-1.8678823020777668
-1.8494188855827651
-1.8432644134177558
-1.8371099412527454
-1.8371099412527454
-1.8371099412527454
-1.8494188855827651
-1.8494188855827651
-1.8371099412527454
-1.830955469087764
-1.8432644134177558
-1.855573357747775
-1.8494188855827651
-1.8371099412527454
-1.8432644134177558
-1.8432644134177558
-1.8371099412527454
-1.8432644134177558
-1.8432644134177558
-1.830955469087764
-1.8186465247577446
-1.8248009969227539
-1.8432644134177558
-1.8494188855827651
-1.8494188855827651
-1.8494188855827651
-1.855573357747775
-1.855573357747775
-1.8371099412527454
-1.8371099412527454
-1.8432644134177558
-1.8371099412527454
-1.830955469087764
-1.8494188855827651
-1.8740367742427766
-1.855573357747775
-1.8494188855827651
-1.8494188855827651
-1.8494188855827651
-1.8432644134177558
-1.861727829912757
-1.861727829912757
-1.8432644134177558
-1.8494188855827651
-1.8494188855827651
-1.855573357747775
-1.855573357747775
-1.8494188855827651
-1.855573357747775
-1.855573357747775
-1.855573357747775
-1.855573357747775
-1.855573357747775
-1.8678823020777668
-1.861727829912757
-1.8494188855827651
-1.8494188855827651
-1.8371099412527454
-1.830955469087764
-1.8432644134177558
-1.830955469087764
-1.8248009969227539
-1.8432644134177558
-1.8432644134177558
-1.8432644134177558
-1.8371099412527454
-1.8371099412527454
-1.830955469087764
-1.830955469087764
-1.830955469087764
-1.8371099412527454
-1.830955469087764
-1.8371099412527454
-1.8248009969227539
-1.8248009969227539
-1.8186465247577446
-1.8001831082627426
-1.8001831082627426
-1.8001831082627426
-1.8063375804277528
-1.8063375804277528
-1.8063375804277528
-1.8063375804277528
-1.8124920525927626
-1.8124920525927626
-1.8248009969227539
-1.830955469087764
-1.8248009969227539
-1.8248009969227539
-1.8186465247577446
-1.8124920525927626
-1.8186465247577446
-1.8186465247577446
-1.830955469087764
-1.8186465247577446
-1.8063375804277528
-1.8001831082627426
-1.8001831082627426
-1.7817196917677414
-1.7694107474377496
-1.7632562752727399
-1.7509473309427481
-1.7509473309427481
-1.7201749701177547
-1.7263294422827367
-1.7078660257877356
-1.677093664962742
-1.6524757763027311
-1.6217034154777374
-1.6278578876427194
-1.6586302484677409
-1.615548943312728
-1.578622110322725
-1.5601586938277234
-1.5232318608377204
-1.4924595000126994
-1.4616871391877062
-1.4493781948577145
-1.437069250527695
-1.3878334732077002
-1.363215584547689
-1.363215584547689
-1.3693700567126987
-1.3693700567126987
-1.3693700567126987
-1.4186058340326935
-1.4432237226927047
-1.4062968897027015
-1.3878334732077002
-1.3755245288776807
-1.3693700567126987
-1.363215584547689
-1.3016708628976748
-1.178581419597674
-1.0493375041326358
-0.9324025329976448
-0.9077846443376336
-0.9754838381526297
-1.11088222578265
-1.2585895577426898
-1.467841611352716
-1.6586302484677409
-1.7817196917677414
-1.7694107474377496
-1.6340123598077294
-1.504768444342719
-1.4186058340326935
-1.3878334732077002
-1.3878334732077002
-1.4124513618677115
-1.4247603061977032
-1.4186058340326935
-1.4309147783627132
-1.437069250527695
-1.437069250527695
-1.4247603061977032
-1.4062968897027015
-1.4124513618677115
-1.437069250527695
-1.4309147783627132
-1.4493781948577145
-1.4493781948577145
-1.4555326670226965
-1.4493781948577145
-1.4493781948577145
-1.4555326670226965
-1.4493781948577145
-1.4493781948577145
-1.4493781948577145
-1.4493781948577145
-1.4616871391877062
-1.4555326670226965
-1.4493781948577145
-1.4432237226927047
-1.4432237226927047
-1.4493781948577145
-1.4616871391877062
-1.473996083517698
-1.4801505556827075
-1.4801505556827075
-1.473996083517698
-1.4863050278477177
-1.4801505556827075
-1.4616871391877062
-1.4801505556827075
-1.4863050278477177
-1.4863050278477177
-1.467841611352716
-1.4616871391877062
-1.4801505556827075
-1.473996083517698
-1.467841611352716
-1.4801505556827075
-1.4801505556827075
-1.473996083517698
-1.473996083517698
-1.467841611352716
-1.467841611352716
-1.467841611352716
-1.467841611352716
-1.4493781948577145
-1.4493781948577145
-1.4493781948577145
-1.4432237226927047
-1.4493781948577145
-1.4493781948577145
-1.4493781948577145
-1.4493781948577145
-1.4432237226927047
-1.437069250527695
-1.4309147783627132
-1.437069250527695
-1.4309147783627132
-1.4309147783627132
-1.4247603061977032
-1.4309147783627132
-1.437069250527695
-1.4493781948577145
-1.473996083517698
-1.4863050278477177
-1.504768444342719
-1.5293863330027024
-1.5540042216627135
-1.590931054652717
-1.6093944711477182
-1.6401668319727392
-1.6647847206327224
-1.677093664962742
-1.683248137127724
-1.6955570814577436
-1.7078660257877356
-1.7324839144477464
-1.7263294422827367
-1.7263294422827367
-1.7263294422827367
-1.7263294422827367
-1.7263294422827367
-1.7386383866127564
-1.7324839144477464
-1.7324839144477464
-1.7201749701177547
-1.6955570814577436
-1.683248137127724
-1.7078660257877356
-1.7447928587777384
-1.7324839144477464
-1.7263294422827367
-1.7201749701177547
-1.7263294422827367
-1.7263294422827367
-1.7263294422827367
-1.7324839144477464
-1.7386383866127564
-1.7324839144477464
-1.7386383866127564
-1.7324839144477464
-1.7201749701177547
-1.7201749701177547
-1.7263294422827367
-1.7263294422827367
-1.7263294422827367
-1.7263294422827367
-1.7201749701177547
-1.7140204979527454
-1.7263294422827367
-1.7263294422827367
-1.7263294422827367
-1.7263294422827367
-1.7324839144477464
-1.7324839144477464
-1.7201749701177547
-1.7263294422827367
-1.7386383866127564
-1.7324839144477464
-1.7263294422827367
-1.7263294422827367
-1.7263294422827367
-1.7201749701177547
-1.7140204979527454
-1.7263294422827367
-1.7263294422827367
-1.7201749701177547
-1.7201749701177547
-1.7324839144477464
-1.7386383866127564
-1.7386383866127564
-1.7263294422827367
-1.7201749701177547
-1.7324839144477464
-1.7263294422827367
-1.7201749701177547
-1.7201749701177547
-1.7324839144477464
-1.7386383866127564
-1.7324839144477464
-1.7447928587777384
-1.7386383866127564
-1.7386383866127564
-1.7386383866127564
-1.7324839144477464
-1.7386383866127564
-1.7509473309427481
-1.7386383866127564
-1.7386383866127564
-1.7201749701177547
-1.6955570814577436
-1.7201749701177547
-1.7201749701177547
-1.7263294422827367
-1.757101803107758
-1.7447928587777384
-1.7447928587777384
-1.7324839144477464
-1.7386383866127564
-1.7386383866127564
-1.7509473309427481
-1.7386383866127564
-1.7447928587777384
-1.7324839144477464
-1.7263294422827367
-1.7324839144477464
-1.7263294422827367
-1.7263294422827367
-1.7324839144477464
-1.7386383866127564
-1.7386383866127564
-1.7324839144477464
-1.7263294422827367
-1.7324839144477464
-1.7447928587777384
-1.7509473309427481
-1.7509473309427481
-1.7386383866127564
-1.7447928587777384
-1.7509473309427481
-1.7447928587777384
-1.757101803107758
-1.757101803107758
-1.7447928587777384
-1.7509473309427481
-1.7509473309427481
-1.7447928587777384
-1.7509473309427481
-1.757101803107758
-1.7447928587777384
-1.7447928587777384
-1.7263294422827367
-1.7017115536227536
-1.7140204979527454
-1.7263294422827367
-1.7263294422827367
-1.7447928587777384
-1.7878741639327511
-1.8001831082627426
-1.855573357747775
-1.9355814958927628
-2.009435161872797
-2.0709798835227837
-2.1202156608428053
-2.1694514381628007
-2.2186872154828228
-2.261768520637808
-2.286386409297819
-2.2802319371328093
-2.2802319371328093
-2.298695353627811
-2.3171587701228398
-2.329467714452832
-2.347931130947833
-2.360240075277825
-2.391012436102846
-2.347931130947833
-2.323313242287822
-2.3171587701228398
-2.304849825792821
-2.2925408814628288
-2.286386409297819
-2.2802319371328093
-2.2802319371328093
-2.261768520637808
-2.261768520637808
-2.261768520637808
-2.2433051041428067
-2.249459576307816
-2.255614048472826
-2.261768520637808
-2.249459576307816
-2.2309961598128147
-2.224841687647805
-2.2186872154828228
-2.2309961598128147
-2.2309961598128147
-2.2186872154828228
-2.212532743317813
-2.200223798987821
-2.200223798987821
-2.200223798987821
-2.1817603824928202
-2.187914854657802
-2.187914854657802
-2.1756059103278105
-2.1571424938328088
-2.150988021667799
-2.1571424938328088
-2.1694514381628007
-2.1571424938328088
-2.1017522443478045
-1.990971745377768
-1.8740367742427766
-1.7694107474377496
-1.7324839144477464
-1.7940286360977609
-1.8863457185727683
-2.003280689707787
-2.1694514381628007
-2.3356221866178415
-2.4156303247628297
-2.3663945474428347
-2.224841687647805
-2.1325246051727973
-2.0709798835227837
-2.04020752269779
-2.0463619948628
-2.052516467027782
-2.0709798835227837
-2.1017522443478045
-2.089443300017785
-2.077134355687793
-2.077134355687793
-2.083288827852803
-2.064825411357801
-2.052516467027782
-2.04020752269779
-2.0278985783677985
-2.0278985783677985
-2.0217441062027888
-2.0278985783677985
-2.0340530505327803
-2.0340530505327803
-2.0217441062027888
-2.009435161872797
-2.009435161872797
-2.015589634037779
-2.0217441062027888
-2.0217441062027888
-2.009435161872797
-1.9971262175427773
-1.9848172732127856
-1.990971745377768
-1.9848172732127856
-1.9786628010477763
-1.972508328882766
-1.954044912387765
-1.954044912387765
-1.9355814958927628
-1.9417359680577726
-1.9417359680577726
-1.9355814958927628
-1.9294270237277809
-1.9355814958927628
-1.9232725515627715
-1.9294270237277809
-1.9294270237277809
-1.9294270237277809
-1.9355814958927628
-1.9171180793977614
-1.9048091350677696
-1.89865466290276
-1.892500190737778
-1.8863457185727683
-1.8863457185727683
-1.8740367742427766
-1.861727829912757
-1.861727829912757
-1.861727829912757
-1.8432644134177558
-1.830955469087764
-1.8124920525927626
-1.8186465247577446
-1.8063375804277528
-1.8186465247577446
-1.8124920525927626
-1.7940286360977609
-1.7817196917677414
-1.7878741639327511
-1.7755652196027594
-1.7447928587777384
-1.7324839144477464
-1.7755652196027594
-1.7817196917677414
-1.7817196917677414
-1.7878741639327511
-1.8001831082627426
-1.8124920525927626
-1.8371099412527454
-1.8494188855827651
-1.8678823020777668
-1.89865466290276
-1.91096360723278
-1.9232725515627715
-1.9232725515627715
-1.9355814958927628
-1.9478904402227823
-1.954044912387765
-1.9478904402227823
-1.9478904402227823
-1.9417359680577726
-1.9478904402227823
-1.954044912387765
-1.9478904402227823
-1.9355814958927628
-1.9355814958927628
-1.9417359680577726
-1.9355814958927628
-1.9294270237277809
-1.9294270237277809
-1.9417359680577726
-1.9478904402227823
-1.9417359680577726
-1.9294270237277809
-1.9171180793977614
-1.91096360723278
-1.9048091350677696
-1.89865466290276
-1.8863457185727683
-1.8863457185727683
-1.8863457185727683
-1.8740367742427766
-1.8801912464077586
-1.8678823020777668
-1.8740367742427766
-1.8801912464077586
-1.8801912464077586
-1.8863457185727683
-1.892500190737778
-1.8801912464077586
-1.8863457185727683
-1.8801912464077586
-1.861727829912757
-1.855573357747775
-1.855573357747775
-1.8494188855827651
-1.861727829912757
-1.8740367742427766
-1.855573357747775
-1.8494188855827651
-1.8371099412527454
-1.8371099412527454
-1.8494188855827651
-1.8371099412527454
-1.8432644134177558
-1.830955469087764
-1.8248009969227539
-1.830955469087764
-1.830955469087764
-1.8371099412527454
-1.830955469087764
-1.8371099412527454
-1.8371099412527454
-1.8432644134177558
-1.8371099412527454
-1.8248009969227539
-1.8001831082627426
-1.8001831082627426
-1.8001831082627426
-1.8063375804277528
-1.8063375804277528
-1.8001831082627426
-1.8001831082627426
-1.8001831082627426
-1.8001831082627426
-1.8063375804277528
-1.8124920525927626
-1.7940286360977609
-1.7940286360977609
-1.7755652196027594
-1.7694107474377496
-1.7632562752727399
-1.7632562752727399
-1.7694107474377496
-1.7509473309427481
-1.7509473309427481
-1.7447928587777384
-1.7386383866127564
-1.7509473309427481
-1.7509473309427481
-1.7447928587777384
-1.7509473309427481
-1.7447928587777384
-1.7509473309427481
-1.7632562752727399
-1.757101803107758
-1.7509473309427481
-1.7386383866127564
-1.7386383866127564
-1.7324839144477464
-1.7447928587777384
-1.7447928587777384
-1.7386383866127564
-1.7447928587777384
-1.7324839144477464
-1.7263294422827367
-1.7324839144477464
-1.7509473309427481
-1.7509473309427481
-1.7324839144477464
-1.7324839144477464
-1.7078660257877356
-1.7078660257877356
-1.7140204979527454
-1.7078660257877356
-1.7078660257877356
-1.7140204979527454
-1.7324839144477464
-1.7694107474377496
-1.7755652196027594
-1.7632562752727399
-1.7632562752727399
-1.7632562752727399
-1.7447928587777384
-1.7324839144477464
-1.7201749701177547
-1.7201749701177547
-1.7201749701177547
-1.7140204979527454
-1.7263294422827367
-1.7324839144477464
-1.7447928587777384
-1.7447928587777384
-1.7447928587777384
-1.7324839144477464
-1.7386383866127564
-1.7263294422827367
-1.7263294422827367
-1.7263294422827367
-1.7386383866127564
-1.7263294422827367
-1.7140204979527454
-1.7140204979527454
-1.7263294422827367
-1.7386383866127564
-1.7324839144477464
-1.7140204979527454
-1.7201749701177547
-1.7140204979527454
-1.7078660257877356
-1.7140204979527454
-1.7078660257877356
-1.6955570814577436
-1.7017115536227536
-1.7078660257877356
-1.7078660257877356
-1.7140204979527454
-1.7140204979527454
-1.7140204979527454
-1.7017115536227536
-1.677093664962742
-1.6647847206327224
-1.6647847206327224
-1.677093664962742
-1.683248137127724
-1.6955570814577436
-1.6955570814577436
-1.683248137127724
-1.6709391927977324
-1.677093664962742
-1.7078660257877356
-1.7201749701177547
-1.7263294422827367
-1.7509473309427481
-1.757101803107758
-1.7386383866127564
-1.7324839144477464
-1.7263294422827367
-1.7201749701177547
-1.7263294422827367
-1.7201749701177547
-1.7201749701177547
-1.7263294422827367
-1.7324839144477464
-1.7263294422827367
-1.7140204979527454
-1.7017115536227536
-1.6955570814577436
-1.7017115536227536
-1.7017115536227536
-1.7017115536227536
-1.7140204979527454
-1.7263294422827367
-1.7017115536227536
-1.6340123598077294
-1.5416952773327222
-1.4062968897027015
-1.2955163907326928
-1.2770529742376913
-1.3755245288776807
-1.504768444342719
-1.6278578876427194
-1.8001831082627426
-1.9478904402227823
-2.015589634037779
-1.9478904402227823
-1.8001831082627426
-1.677093664962742
-1.6093944711477182
-1.5970855268177266
-1.5970855268177266
-1.6217034154777374
-1.6463213041377214
-1.6709391927977324
-1.6709391927977324
-1.6524757763027311
-1.6278578876427194
-1.6340123598077294
-1.6217034154777374
-1.615548943312728
-1.6032399989827364
-1.5847765824877347
-1.578622110322725
-1.5540042216627135
-1.5232318608377204
-1.5232318608377204
-1.4986139721777092
-1.4863050278477177
-1.4801505556827075
-1.4863050278477177
-1.473996083517698
-1.4801505556827075
-1.467841611352716
-1.4247603061977032
-1.4309147783627132
-1.4555326670226965
-1.4801505556827075
-1.4616871391877062
-1.4247603061977032
-1.4186058340326935
-1.4186058340326935
-1.4186058340326935
-1.4062968897027015
-1.4186058340326935
-1.4616871391877062
-1.4616871391877062
-1.4432237226927047
-1.437069250527695
-1.4309147783627132
-1.4062968897027015
-1.3878334732077002
-1.3878334732077002
-1.400142417537692
-1.4062968897027015
-1.400142417537692
-1.4062968897027015
-1.400142417537692
-1.4062968897027015
-1.400142417537692
-1.3816790010426905
-1.3755245288776807
-1.3693700567126987
-1.363215584547689
-1.3693700567126987
-1.363215584547689
-1.3693700567126987
-1.3693700567126987
-1.3693700567126987
-1.3570611123826792
-1.3509066402176972
-1.3509066402176972
-1.3447521680526875
-1.3447521680526875
-1.3447521680526875
-1.3447521680526875
-1.3385976958876775
-1.3447521680526875
-1.3570611123826792
-1.363215584547689
-1.3570611123826792
-1.3816790010426905
-1.4124513618677115
-1.437069250527695
-1.4555326670226965
-1.4801505556827075
-1.504768444342719
-1.5170773886727107
-1.5355408051677124
-1.5540042216627135
-1.578622110322725
-1.5970855268177266
-1.6093944711477182
-1.6093944711477182
-1.590931054652717
-1.5847765824877347
-1.6032399989827364
-1.5970855268177266
-1.5970855268177266
-1.6093944711477182
-1.6340123598077294
-1.6278578876427194
-1.6340123598077294
-1.6401668319727392
-1.6401668319727392
-1.6278578876427194
-1.6340123598077294
-1.6340123598077294
-1.6340123598077294
-1.6278578876427194
-1.6278578876427194
-1.6340123598077294
-1.6401668319727392
-1.6401668319727392
-1.6401668319727392
-1.6401668319727392
-1.6524757763027311
-1.6524757763027311
-1.6524757763027311
-1.6586302484677409
-1.6647847206327224
-1.6709391927977324
-1.6647847206327224
-1.6524757763027311
-1.6586302484677409
-1.6709391927977324
-1.6647847206327224
-1.6709391927977324
-1.6647847206327224
-1.6647847206327224
-1.6709391927977324
-1.6647847206327224
-1.677093664962742
-1.677093664962742
-1.677093664962742
-1.6709391927977324
-1.683248137127724
-1.689402609292734
-1.6955570814577436
-1.6955570814577436
-1.689402609292734
-1.6955570814577436
-1.7140204979527454
-1.7078660257877356
-1.7017115536227536
-1.7017115536227536
-1.7078660257877356
-1.689402609292734
-1.683248137127724
-1.689402609292734
-1.6955570814577436
-1.683248137127724
-1.689402609292734
-1.6955570814577436
-1.6955570814577436
-1.6955570814577436
-1.689402609292734
-1.6647847206327224
-1.6709391927977324
-1.6955570814577436
-1.689402609292734
-1.7017115536227536
-1.7078660257877356
-1.757101803107758
-1.7755652196027594
-1.7447928587777384
-1.7447928587777384
-1.7263294422827367
-1.7140204979527454
-1.6955570814577436
-1.7140204979527454
-1.7140204979527454
-1.7140204979527454
-1.7078660257877356
-1.7140204979527454
-1.7201749701177547
-1.7078660257877356
-1.689402609292734
-1.683248137127724
-1.683248137127724
-1.6955570814577436
-1.7140204979527454
-1.7201749701177547
-1.7140204979527454
-1.7140204979527454
-1.7263294422827367
-1.7263294422827367
-1.7386383866127564
-1.7386383866127564
-1.7201749701177547
-1.7263294422827367
-1.7386383866127564
-1.7386383866127564
-1.7263294422827367
-1.7263294422827367
-1.7201749701177547
-1.7201749701177547
-1.7201749701177547
-1.7263294422827367
-1.7324839144477464
-1.7263294422827367
-1.7324839144477464
-1.7324839144477464
-1.7324839144477464
-1.7324839144477464
-1.7447928587777384
-1.7386383866127564
-1.7201749701177547
-1.7201749701177547
-1.7263294422827367
-1.7386383866127564
-1.7447928587777384
-1.7324839144477464
-1.7263294422827367
-1.7263294422827367
-1.7386383866127564
-1.7386383866127564
-1.7447928587777384
-1.7324839144477464
-1.7447928587777384
-1.7386383866127564
-1.7447928587777384
-1.7447928587777384
-1.7447928587777384
-1.7447928587777384
-1.7386383866127564
-1.7386383866127564
-1.7509473309427481
-1.7509473309427481
-1.7694107474377496
-1.7632562752727399
-1.757101803107758
-1.757101803107758
-1.7509473309427481
-1.7447928587777384
-1.7509473309427481
-1.7509473309427481
-1.7386383866127564
-1.7447928587777384
-1.7447928587777384
-1.7386383866127564
-1.7447928587777384
-1.757101803107758
-1.757101803107758
-1.7632562752727399
-1.7632562752727399
-1.7632562752727399
-1.7694107474377496
-1.7694107474377496
-1.7447928587777384
-1.7632562752727399
-1.7632562752727399
-1.7632562752727399
-1.757101803107758
-1.757101803107758
-1.7632562752727399
-1.757101803107758
-1.7263294422827367
-1.7324839144477464
-1.757101803107758
-1.7447928587777384
-1.7447928587777384
-1.7324839144477464
-1.7386383866127564
-1.757101803107758
-1.757101803107758
-1.7447928587777384
-1.7386383866127564
-1.7386383866127564
-1.7447928587777384
-1.7447928587777384
-1.7447928587777384
-1.7386383866127564
-1.7324839144477464
-1.7386383866127564
-1.7447928587777384
-1.7447928587777384
-1.7263294422827367
-1.7263294422827367
-1.7017115536227536
-1.7078660257877356
-1.7386383866127564
-1.7755652196027594
-1.757101803107758
-1.757101803107758
-1.757101803107758
-1.7447928587777384
-1.7324839144477464
-1.7263294422827367
-1.7201749701177547
-1.7263294422827367
-1.7324839144477464
-1.7324839144477464
-1.7324839144477464
-1.7324839144477464
-1.7324839144477464
-1.7263294422827367
-1.7201749701177547
-1.7201749701177547
-1.7263294422827367
-1.7263294422827367
-1.7201749701177547
-1.7201749701177547
-1.7201749701177547
-1.7078660257877356
-1.7078660257877356
-1.7263294422827367
-1.7447928587777384
-1.7324839144477464
-1.7324839144477464
-1.7263294422827367
-1.7447928587777384
-1.7447928587777384
-1.7509473309427481
-1.7447928587777384
-1.7324839144477464
-1.7386383866127564
-1.7386383866127564
-1.7324839144477464
-1.7447928587777384
-1.757101803107758
-1.757101803107758
-1.7324839144477464
-1.7324839144477464
-1.7447928587777384
-1.7509473309427481
-1.757101803107758
-1.7447928587777384
-1.7386383866127564
-1.7078660257877356
-1.6278578876427194
-1.473996083517698
-1.3385976958876775
-1.2401261412476885
-1.2832074464026733
-1.4247603061977032
-1.5724676381577152
-1.7324839144477464
-1.9355814958927628
-2.077134355687793
-2.1017522443478045
-1.972508328882766
-1.8371099412527454
-1.7694107474377496
-1.7201749701177547
-1.7078660257877356
-1.7263294422827367
-1.7263294422827367
-1.7386383866127564
-1.7447928587777384
-1.7447928587777384
-1.7386383866127564
-1.7263294422827367
-1.7017115536227536
-1.7078660257877356
-1.7140204979527454
-1.7263294422827367
-1.7263294422827367
-1.7201749701177547
-1.7201749701177547
-1.757101803107758
-1.7755652196027594
-1.7509473309427481
-1.7447928587777384
-1.7509473309427481
-1.7324839144477464
-1.7324839144477464
-1.7263294422827367
-1.7324839144477464
-1.7386383866127564
-1.7201749701177547
-1.7201749701177547
-1.7201749701177547
-1.7017115536227536
-1.7017115536227536
-1.7140204979527454
-1.7386383866127564
-1.7324839144477464
-1.7263294422827367
-1.7263294422827367
-1.7263294422827367
-1.7201749701177547
-1.7201749701177547
-1.7263294422827367
-1.7078660257877356
-1.7201749701177547
-1.7201749701177547
-1.7078660257877356
-1.683248137127724
-1.677093664962742
-1.6586302484677409
-1.6586302484677409
-1.6709391927977324
-1.6586302484677409
-1.6524757763027311
-1.6463213041377214
-1.6401668319727392
-1.6340123598077294
-1.6340123598077294
-1.6340123598077294
-1.6032399989827364
-1.6032399989827364
-1.6032399989827364
-1.6093944711477182
-1.5970855268177266
-1.5970855268177266
-1.6032399989827364
-1.6217034154777374
-1.6524757763027311
-1.6278578876427194
-1.615548943312728
-1.615548943312728
-1.6093944711477182
-1.5847765824877347
-1.590931054652717
-1.5970855268177266
-1.6093944711477182
-1.6278578876427194
-1.6278578876427194
-1.6586302484677409
-1.6709391927977324
-1.6955570814577436
-1.7201749701177547
-1.7509473309427481
-1.7755652196027594
-1.7817196917677414
-1.7878741639327511
-1.7940286360977609
-1.8001831082627426
-1.8063375804277528
-1.8001831082627426
-1.8063375804277528
-1.830955469087764
-1.8186465247577446
-1.8063375804277528
-1.8124920525927626
-1.8248009969227539
-1.8124920525927626
-1.8124920525927626
-1.8124920525927626
-1.8124920525927626
-1.8124920525927626
-1.8124920525927626
-1.8063375804277528
-1.8001831082627426
-1.7940286360977609
-1.8124920525927626
-1.8124920525927626
-1.7940286360977609
-1.7940286360977609
-1.7940286360977609
-1.7878741639327511
-1.7878741639327511
-1.7878741639327511
-1.7940286360977609
-1.7878741639327511
-1.7878741639327511
-1.8001831082627426
-1.8001831082627426
-1.7878741639327511
-1.7755652196027594
-1.7755652196027594
-1.7755652196027594
-1.7878741639327511
-1.7755652196027594
-1.7755652196027594
-1.7755652196027594
-1.7817196917677414
-1.7878741639327511
-1.8001831082627426
-1.8063375804277528
-1.8063375804277528
-1.8001831082627426
-1.8001831082627426
-1.7878741639327511
-1.8063375804277528
-1.8001831082627426
-1.8001831082627426
-1.8063375804277528
-1.8124920525927626
-1.8186465247577446
-1.8063375804277528
-1.8124920525927626
-1.8124920525927626
-1.8001831082627426
-1.8001831082627426
-1.7878741639327511
-1.8001831082627426
-1.8186465247577446
-1.8063375804277528
-1.8124920525927626
-1.8186465247577446
-1.8124920525927626
-1.8186465247577446
-1.8124920525927626
-1.830955469087764
-1.8248009969227539
-1.830955469087764
-1.830955469087764
-1.8124920525927626
-1.8248009969227539
-1.8124920525927626
-1.8124920525927626
-1.8001831082627426
-1.7940286360977609
-1.7940286360977609
-1.7817196917677414
-1.7940286360977609
-1.7940286360977609
-1.7940286360977609
-1.8063375804277528
-1.8186465247577446
-1.8186465247577446
-1.8124920525927626
-1.8063375804277528
-1.8124920525927626
-1.8186465247577446
-1.8124920525927626
-1.8001831082627426
-1.8001831082627426
-1.8124920525927626
-1.8063375804277528
-1.7755652196027594
-1.7632562752727399
-1.7694107474377496
-1.7755652196027594
-1.830955469087764
-1.8186465247577446
-1.8063375804277528
-1.7940286360977609
-1.7940286360977609
-1.8001831082627426
-1.8063375804277528
-1.8063375804277528
-1.8124920525927626
-1.8124920525927626
-1.8124920525927626
-1.8001831082627426
-1.7878741639327511
-1.7940286360977609
-1.7940286360977609
-1.8001831082627426
-1.7940286360977609
-1.7878741639327511
-1.7817196917677414
-1.8001831082627426
-1.8001831082627426
-1.7878741639327511
-1.7940286360977609
-1.7817196917677414
-1.7817196917677414
-1.7940286360977609
-1.8001831082627426
-1.7940286360977609
-1.7940286360977609
-1.8001831082627426
-1.7940286360977609
-1.8001831082627426
-1.8186465247577446
-1.830955469087764
-1.8186465247577446
-1.8124920525927626
-1.8063375804277528
-1.8186465247577446
-1.8186465247577446
-1.8248009969227539
-1.8186465247577446
-1.8124920525927626
-1.8124920525927626
-1.8063375804277528
-1.8063375804277528
-1.8063375804277528
-1.7940286360977609
-1.8063375804277528
-1.8124920525927626
-1.8063375804277528
-1.8124920525927626
-1.8063375804277528
-1.8063375804277528
-1.8063375804277528
-1.8063375804277528
-1.8063375804277528
-1.7940286360977609
-1.8063375804277528
-1.8124920525927626
-1.8248009969227539
-1.8001831082627426
-1.7940286360977609
-1.7632562752727399
-1.7755652196027594
-1.8063375804277528
-1.8001831082627426
-1.8001831082627426
-1.7940286360977609
-1.8063375804277528
-1.8001831082627426
-1.8001831082627426
-1.8001831082627426
-1.8001831082627426
-1.8001831082627426
-1.7878741639327511
-1.7878741639327511
-1.7940286360977609
-1.7940286360977609
-1.8001831082627426
-1.8063375804277528
-1.7940286360977609
-1.7878741639327511
-1.8001831082627426
-1.8063375804277528
-1.8063375804277528
-1.7940286360977609
-1.7940286360977609
-1.8001831082627426
-1.8001831082627426
-1.7940286360977609
-1.7878741639327511
-1.7878741639327511
-1.8001831082627426
-1.8063375804277528
-1.8063375804277528
-1.8063375804277528
-1.8063375804277528
-1.8001831082627426
-1.7940286360977609
-1.7878741639327511
-1.7817196917677414
-1.7632562752727399
-1.7509473309427481
-1.7509473309427481
-1.7447928587777384
-1.757101803107758
-1.7632562752727399
-1.7632562752727399
-1.757101803107758
-1.7447928587777384
-1.7509473309427481
-1.7632562752727399
-1.7694107474377496
-1.7878741639327511
-1.7817196917677414
-1.7817196917677414
-1.7755652196027594
-1.7878741639327511
-1.7817196917677414
-1.7386383866127564
-1.7447928587777384
-1.757101803107758
-1.7632562752727399
-1.7694107474377496
-1.7755652196027594
-1.7940286360977609
-1.8432644134177558
-1.8248009969227539
-1.8124920525927626
-1.8063375804277528
-1.8063375804277528
-1.8186465247577446
-1.8124920525927626
-1.7878741639327511
-1.7817196917677414
-1.7447928587777384
-1.6463213041377214
-1.504768444342719
-1.363215584547689
-1.2832074464026733
-1.3324432237226955
-1.4863050278477177
-1.615548943312728
-1.7509473309427481
-1.972508328882766
-2.1202156608428053
-2.1202156608428053
-1.972508328882766
-1.8494188855827651
-1.8124920525927626
-1.8124920525927626
-1.7755652196027594
-1.7694107474377496
-1.7755652196027594
-1.7878741639327511
-1.7755652196027594
-1.7694107474377496
-1.7755652196027594
-1.7817196917677414
-1.7817196917677414
-1.7694107474377496
-1.7755652196027594
-1.7755652196027594
-1.7755652196027594
-1.7694107474377496
-1.7632562752727399
-1.7632562752727399
-1.7632562752727399
-1.7694107474377496
-1.7509473309427481
-1.7509473309427481
-1.757101803107758
-1.757101803107758
-1.7632562752727399
-1.7632562752727399
-1.757101803107758
-1.757101803107758
-1.757101803107758
-1.7509473309427481
-1.7632562752727399
-1.7632562752727399
-1.7694107474377496
-1.7632562752727399
-1.757101803107758
-1.7694107474377496
-1.7632562752727399
-1.7632562752727399
-1.7632562752727399
-1.7509473309427481
-1.7386383866127564
-1.7386383866127564
-1.7386383866127564
-1.7263294422827367
-1.7201749701177547
-1.7263294422827367
-1.7324839144477464
-1.7201749701177547
-1.7201749701177547
-1.7201749701177547
-1.7201749701177547
-1.7140204979527454
-1.7140204979527454
-1.7140204979527454
-1.7078660257877356
-1.7140204979527454
-1.7201749701177547
-1.7078660257877356
-1.6955570814577436
-1.6955570814577436
-1.683248137127724
-1.677093664962742
-1.677093664962742
-1.6647847206327224
-1.6647847206327224
-1.6709391927977324
-1.6709391927977324
-1.6709391927977324
-1.6586302484677409
-1.6586302484677409
-1.6647847206327224
-1.689402609292734
-1.689402609292734
-1.7078660257877356
-1.7324839144477464
-1.757101803107758
-1.7755652196027594
-1.8063375804277528
-1.8432644134177558
-1.8371099412527454
-1.8678823020777668
-1.9048091350677696
-1.9232725515627715
-1.9355814958927628
-1.954044912387765
-1.9601993845527748
-1.954044912387765
-1.954044912387765
-1.9601993845527748
-1.966353856717784
-1.954044912387765
-1.9355814958927628
-1.9171180793977614
-1.954044912387765
-1.9786628010477763
-2.0217441062027888
-2.015589634037779
-1.9971262175427773
-1.9786628010477763
-1.966353856717784
-1.966353856717784
-1.9478904402227823
-1.9417359680577726
-1.9355814958927628
-1.9355814958927628
-1.9355814958927628
-1.9355814958927628
-1.9232725515627715
-1.9355814958927628
-1.9478904402227823
-1.9417359680577726
-1.9232725515627715
-1.9171180793977614
-1.9048091350677696
-1.91096360723278
-1.9048091350677696
-1.91096360723278
-1.9048091350677696
-1.89865466290276
-1.9171180793977614
-1.91096360723278
-1.892500190737778
-1.89865466290276
-1.89865466290276
-1.892500190737778
-1.89865466290276
-1.892500190737778
-1.892500190737778
-1.89865466290276
-1.89865466290276
-1.89865466290276
-1.9048091350677696
-1.9048091350677696
-1.892500190737778
-1.8863457185727683
-1.8863457185727683
-1.8740367742427766
-1.8740367742427766
-1.8740367742427766
-1.8740367742427766
-1.8740367742427766
-1.8801912464077586
-1.8740367742427766
-1.8678823020777668
-1.8494188855827651
-1.855573357747775
-1.861727829912757
-1.855573357747775
-1.861727829912757
-1.8740367742427766
-1.9048091350677696
-1.9171180793977614
-1.91096360723278
-1.9478904402227823
-1.972508328882766
-1.966353856717784
-1.9848172732127856
-1.990971745377768
-1.9971262175427773
-2.003280689707787
-2.003280689707787
-2.009435161872797
-2.009435161872797
-2.003280689707787
-2.0278985783677985
-2.0340530505327803
-2.0217441062027888
-2.0278985783677985
-2.0217441062027888
-2.015589634037779
-2.015589634037779
-2.0340530505327803
-2.0340530505327803
-2.0340530505327803
-2.0278985783677985
-2.0217441062027888
-2.015589634037779
-2.0217441062027888
-2.0278985783677985
-2.0217441062027888
-2.0217441062027888
-2.015589634037779
-2.003280689707787
-1.990971745377768
-1.9971262175427773
-2.003280689707787
-2.003280689707787
-2.0217441062027888
-2.052516467027782
-2.114061188677796
-2.1571424938328088
-2.1448335495027893
-2.1448335495027893
-2.150988021667799
-2.150988021667799
-2.1694514381628007
-2.2063782711528033
-2.212532743317813
-2.2063782711528033
-2.2186872154828228
-2.224841687647805
-2.224841687647805
-2.2186872154828228
-2.212532743317813
-2.2063782711528033
-2.1817603824928202
-2.1817603824928202
-2.1817603824928202
-2.187914854657802
-2.1817603824928202
-2.1756059103278105
-2.1756059103278105
-2.1756059103278105
-2.1694514381628007
-2.1448335495027893
-2.150988021667799
-2.150988021667799
-2.1571424938328088
-2.1571424938328088
-2.138679077337807
-2.138679077337807
-2.194069326822812
-2.194069326822812
-2.1571424938328088
-2.150988021667799
-2.150988021667799
-2.150988021667799
-2.150988021667799
-2.138679077337807
-2.1325246051727973
-2.1202156608428053
-2.1017522443478045
-2.089443300017785
-2.077134355687793
-2.0709798835227837
-2.064825411357801
-2.0586709391927913
-2.0586709391927913
-2.0463619948628
-2.0217441062027888
-1.9971262175427773
-1.9786628010477763
-1.966353856717784
-1.954044912387765
-1.9478904402227823
-1.9355814958927628
-1.9355814958927628
-1.9171180793977614
-1.91096360723278
-1.861727829912757
-1.8186465247577446
-1.8001831082627426
-1.7817196917677414
-1.757101803107758
-1.7324839144477464
-1.7017115536227536
-1.683248137127724
-1.6463213041377214
-1.6340123598077294
-1.6032399989827364
-1.578622110322725
-1.5478497494977315
-1.5416952773327222
-1.5293863330027024
-1.5170773886727107
-1.4986139721777092
-1.4863050278477177
-1.4801505556827075
-1.4924595000126994
-1.4801505556827075
-1.467841611352716
-1.437069250527695
-1.4247603061977032
-1.4247603061977032
-1.4124513618677115
-1.4309147783627132
-1.4493781948577145
-1.437069250527695
-1.4247603061977032
-1.4309147783627132
-1.4493781948577145
-1.4616871391877062
-1.4616871391877062
-1.467841611352716
-1.473996083517698
-1.4801505556827075
-1.473996083517698
-1.467841611352716
-1.4801505556827075
-1.473996083517698
-1.467841611352716
-1.467841611352716
-1.473996083517698
-1.4801505556827075
-1.4863050278477177
-1.4863050278477177
-1.473996083517698
-1.473996083517698
-1.467841611352716
-1.473996083517698
-1.4863050278477177
-1.4863050278477177
-1.4863050278477177
-1.4863050278477177
-1.4801505556827075
-1.4124513618677115
-1.289361918567683
-1.1662724752676545
-1.0247196154726523
-0.9877927824826491
-1.0862643371226666
-1.2339716690826785
-1.3816790010426905
-1.6093944711477182
-1.7878741639327511
-1.89865466290276
-1.89865466290276
-1.7447928587777384
-1.615548943312728
-1.5540042216627135
-1.5170773886727107
-1.5170773886727107
-1.5355408051677124
-1.5478497494977315
-1.5601586938277234
-1.5601586938277234
-1.5540042216627135
-1.5478497494977315
-1.5540042216627135
-1.5601586938277234
-1.5663131659927332
-1.5416952773327222
-1.5293863330027024
-1.5355408051677124
-1.5355408051677124
-1.504768444342719
-1.504768444342719
-1.5232318608377204
-1.5293863330027024
-1.5847765824877347
-1.6217034154777374
-1.6093944711477182
-1.5970855268177266
-1.590931054652717
-1.5970855268177266
-1.615548943312728
-1.6278578876427194
-1.615548943312728
-1.5970855268177266
-1.6032399989827364
-1.6093944711477182
-1.5970855268177266
-1.6032399989827364
-1.590931054652717
-1.590931054652717
-1.5847765824877347
-1.5847765824877347
-1.5847765824877347
-1.5970855268177266
-1.5847765824877347
-1.5847765824877347
-1.5847765824877347
-1.5847765824877347
-1.578622110322725
-1.5724676381577152
-1.5724676381577152
-1.5724676381577152
-1.5663131659927332
-1.5663131659927332
-1.5601586938277234
-1.5478497494977315
-1.5416952773327222
-1.5478497494977315
-1.5478497494977315
-1.5416952773327222
-1.5416952773327222
-1.5355408051677124
-1.5355408051677124
-1.5293863330027024
-1.5293863330027024
-1.5232318608377204
-1.510922916507701
-1.504768444342719
-1.4986139721777092
-1.504768444342719
-1.504768444342719
-1.504768444342719
-1.504768444342719
-1.5170773886727107
-1.5293863330027024
-1.5416952773327222
-1.5478497494977315
-1.5540042216627135
-1.5724676381577152
-1.6032399989827364
-1.6463213041377214
-1.6709391927977324
-1.683248137127724
-1.7140204979527454
-1.7140204979527454
-1.7386383866127564
-1.7447928587777384
-1.7509473309427481
-1.757101803107758
-1.7694107474377496
-1.7755652196027594
-1.7878741639327511
-1.7878741639327511
-1.7940286360977609
-1.7940286360977609
-1.7817196917677414
-1.7878741639327511
-1.7878741639327511
-1.7878741639327511
-1.7878741639327511
-1.7755652196027594
-1.7878741639327511
-1.7878741639327511
-1.7817196917677414
-1.7878741639327511
-1.7817196917677414
-1.7755652196027594
-1.7755652196027594
-1.7755652196027594
-1.7694107474377496
-1.7755652196027594
-1.7755652196027594
-1.7878741639327511
-1.7817196917677414
-1.7632562752727399
-1.7755652196027594
-1.7755652196027594
-1.7694107474377496
-1.7694107474377496
-1.7694107474377496
-1.7694107474377496
-1.7632562752727399
-1.7817196917677414
-1.7817196917677414
-1.7694107474377496
-1.7694107474377496
-1.7817196917677414
-1.7755652196027594
-1.7755652196027594
-1.7817196917677414
-1.7755652196027594
-1.7817196917677414
-1.7878741639327511
-1.7817196917677414
-1.7817196917677414
-1.7940286360977609
-1.7878741639327511
-1.7817196917677414
-1.7817196917677414
-1.7878741639327511
-1.7817196917677414
-1.7817196917677414
-1.7632562752727399
-1.7447928587777384
-1.7447928587777384
-1.7632562752727399
-1.7694107474377496
-1.7694107474377496
-1.7755652196027594
-1.7755652196027594
-1.8186465247577446
-1.8371099412527454
-1.8186465247577446
-1.8001831082627426
-1.7878741639327511
-1.7817196917677414
-1.7817196917677414
-1.7817196917677414
-1.7755652196027594
-1.7940286360977609
-1.7817196917677414
-1.7755652196027594
-1.7632562752727399
-1.7632562752727399
-1.7755652196027594
-1.7817196917677414
-1.7755652196027594
-1.7755652196027594
-1.7940286360977609
-1.7940286360977609
-1.7694107474377496
-1.7755652196027594
-1.7694107474377496
-1.7632562752727399
-1.7632562752727399
-1.7755652196027594
-1.7755652196027594
-1.7694107474377496
-1.7694107474377496
-1.7817196917677414
-1.7878741639327511
-1.8063375804277528
-1.8186465247577446
-1.8063375804277528
-1.7940286360977609
-1.7878741639327511
-1.7878741639327511
-1.8001831082627426
-1.8001831082627426
-1.8063375804277528
-1.830955469087764
-1.8494188855827651
-1.861727829912757
-1.892500190737778
-1.9417359680577726
-2.015589634037779
-2.0278985783677985
-2.0340530505327803
-2.114061188677796
-2.2186872154828228
-2.2925408814628288
-2.304849825792821
-2.3110042979578305
-2.3110042979578305
-2.304849825792821
-2.298695353627811
-2.3171587701228398
-2.3540856031128428
-2.372549019607845
-2.360240075277825
-2.3540856031128428
-2.3417766587828237
-2.323313242287822
-2.3110042979578305
-2.3171587701228398
-2.329467714452832
-2.3417766587828237
-2.3663945474428347
-2.360240075277825
-2.3663945474428347
-2.3663945474428347
-2.360240075277825
-2.3663945474428347
-2.3848579639378364
-2.378703491772827
-2.347931130947833
-2.3356221866178415
-2.329467714452832
-2.323313242287822
-2.323313242287822
-2.3110042979578305
-2.286386409297819
-2.2740774649678275
-2.2740774649678275
-2.2802319371328093
-2.2740774649678275
-2.2679229928028177
-2.2802319371328093
-2.2802319371328093
-2.2802319371328093
-2.2740774649678275
-2.2802319371328093
-2.2802319371328093
-2.2802319371328093
-2.2679229928028177
-2.255614048472826
-2.2433051041428067
-2.2371506319778245
-2.249459576307816
-2.2433051041428067
-2.224841687647805
-2.2063782711528033
-2.2063782711528033
-2.194069326822812
-2.1817603824928202
-2.194069326822812
-2.194069326822812
-2.1817603824928202
-2.1756059103278105
-2.1756059103278105
-2.077134355687793
-1.9848172732127856
-1.9048091350677696
-1.7694107474377496
-1.7078660257877356
-1.7509473309427481
-1.861727829912757
-1.9786628010477763
-2.1756059103278105
-2.360240075277825
-2.434093741257831
-2.372549019607845
-2.2433051041428067
-2.1325246051727973
-2.083288827852803
-2.052516467027782
-2.064825411357801
-2.077134355687793
-2.083288827852803
-2.064825411357801
-2.064825411357801
-2.052516467027782
-2.0586709391927913
-2.0586709391927913
-2.052516467027782
-2.052516467027782
-2.04020752269779
-2.04020752269779
-2.015589634037779
-2.009435161872797
-2.009435161872797
-2.009435161872797
-2.009435161872797
-2.015589634037779
-2.015589634037779
-2.009435161872797
-2.015589634037779
-2.003280689707787
-2.009435161872797
-1.990971745377768
-1.9848172732127856
-1.9786628010477763
-1.972508328882766
-1.972508328882766
-1.9601993845527748
-1.954044912387765
-1.9417359680577726
-1.9417359680577726
-1.954044912387765
-1.9232725515627715
-1.91096360723278
-1.9294270237277809
-1.9355814958927628
-1.9232725515627715
-1.9171180793977614
-1.9294270237277809
-1.972508328882766
-1.954044912387765
-1.9355814958927628
-1.9171180793977614
-1.91096360723278
-1.9171180793977614
-1.9048091350677696
-1.89865466290276
-1.8801912464077586
-1.8863457185727683
-1.8801912464077586
-1.861727829912757
-1.8494188855827651
-1.8432644134177558
-1.8371099412527454
-1.8248009969227539
-1.830955469087764
-1.8186465247577446
-1.8186465247577446
-1.8124920525927626
-1.8124920525927626
-1.8124920525927626
-1.8001831082627426
-1.7755652196027594
-1.7694107474377496
-1.7755652196027594
-1.7632562752727399
-1.7632562752727399
-1.7632562752727399
-1.7694107474377496
-1.7817196917677414
-1.8063375804277528
-1.8186465247577446
-1.8494188855827651
-1.8740367742427766
-1.9048091350677696
-1.9048091350677696
-1.91096360723278
-1.9232725515627715
-1.9355814958927628
-1.9417359680577726
-1.9601993845527748
-1.9601993845527748
-1.966353856717784
-1.966353856717784
-1.972508328882766
-1.966353856717784
-1.966353856717784
-1.9601993845527748
-1.9601993845527748
-1.9478904402227823
-1.9417359680577726
-1.9478904402227823
-1.9478904402227823
-1.9417359680577726
-1.9417359680577726
-1.9294270237277809
-1.9355814958927628
-1.9417359680577726
-1.9417359680577726
-1.9355814958927628
-1.9417359680577726
-1.9355814958927628
-1.9294270237277809
-1.91096360723278
-1.91096360723278
-1.89865466290276
-1.9048091350677696
-1.892500190737778
-1.892500190737778
-1.8801912464077586
-1.89865466290276
-1.89865466290276
-1.8863457185727683
-1.8801912464077586
-1.8740367742427766
-1.8740367742427766
-1.861727829912757
-1.8494188855827651
-1.861727829912757
-1.8801912464077586
-1.8740367742427766
-1.8678823020777668
-1.861727829912757
-1.8678823020777668
-1.8678823020777668
-1.8740367742427766
-1.8801912464077586
-1.8740367742427766
-1.861727829912757
-1.855573357747775
-1.861727829912757
-1.861727829912757
-1.8740367742427766
-1.8740367742427766
-1.8678823020777668
-1.8678823020777668
-1.861727829912757
-1.8678823020777668
-1.8678823020777668
-1.861727829912757
-1.8494188855827651
-1.830955469087764
-1.8186465247577446
-1.8063375804277528
-1.8124920525927626
-1.7878741639327511
-1.7817196917677414
-1.7878741639327511
-1.7817196917677414
-1.7878741639327511
-1.7817196917677414
-1.7817196917677414
-1.7694107474377496
-1.7632562752727399
-1.7386383866127564
-1.7324839144477464
-1.7201749701177547
-1.7017115536227536
-1.7017115536227536
-1.683248137127724
-1.6524757763027311
-1.6278578876427194
-1.6278578876427194
-1.6340123598077294
-1.6524757763027311
-1.615548943312728
-1.590931054652717
-1.578622110322725
-1.5601586938277234
-1.5170773886727107
-1.504768444342719
-1.4986139721777092
-1.4986139721777092
-1.473996083517698
-1.4616871391877062
-1.437069250527695
-1.4247603061977032
-1.4062968897027015
-1.400142417537692
-1.3816790010426905
-1.3755245288776807
-1.3755245288776807
-1.3693700567126987
-1.363215584547689
-1.363215584547689
-1.3693700567126987
-1.3509066402176972
-1.3447521680526875
-1.3447521680526875
-1.3509066402176972
-1.3509066402176972
-1.3447521680526875
-1.3447521680526875
-1.3447521680526875
-1.3509066402176972
-1.3570611123826792
-1.3570611123826792
-1.363215584547689
-1.3570611123826792
-1.3693700567126987
-1.3816790010426905
-1.3755245288776807
-1.3816790010426905
-1.3878334732077002
-1.400142417537692
-1.39398794537271
-1.39398794537271
-1.400142417537692
-1.400142417537692
-1.39398794537271
-1.400142417537692
-1.4124513618677115
-1.4124513618677115
-1.4124513618677115
-1.4186058340326935
-1.4186058340326935
-1.4186058340326935
-1.4186058340326935
-1.4186058340326935
-1.4309147783627132
-1.437069250527695
-1.4493781948577145
-1.4493781948577145
-1.4555326670226965
-1.4555326670226965
-1.467841611352716
-1.467841611352716
-1.473996083517698
-1.4801505556827075
-1.4801505556827075
-1.4924595000126994
-1.473996083517698
-1.4493781948577145
-1.4616871391877062
-1.473996083517698
-1.4863050278477177
-1.5601586938277234
-1.5663131659927332
-1.5540042216627135
-1.5355408051677124
-1.5355408051677124
-1.5355408051677124
-1.5416952773327222
-1.5293863330027024
-1.4924595000126994
-1.5170773886727107
-1.5416952773327222
-1.5540042216627135
-1.5601586938277234
-1.5540042216627135
-1.5601586938277234
-1.5601586938277234
-1.5601586938277234
-1.5540042216627135
-1.5601586938277234
-1.5478497494977315
-1.5416952773327222
-1.5601586938277234
-1.5970855268177266
-1.578622110322725
-1.5847765824877347
-1.5724676381577152
-1.578622110322725
-1.578622110322725
-1.590931054652717
-1.5847765824877347
-1.5970855268177266
-1.6032399989827364
-1.6032399989827364
-1.5970855268177266
-1.6032399989827364
-1.6032399989827364
-1.6032399989827364
-1.6093944711477182
-1.6217034154777374
-1.6217034154777374
-1.6093944711477182
-1.6093944711477182
-1.615548943312728
-1.615548943312728
-1.6217034154777374
-1.6278578876427194
-1.6278578876427194
-1.6401668319727392
-1.6524757763027311
-1.6340123598077294
-1.6217034154777374
-1.6093944711477182
-1.5724676381577152
-1.467841611352716
-1.326288751557686
-1.1970448360926755
-1.1539635309376628
-1.2462806134126705
-1.400142417537692
-1.5355408051677124
-1.7140204979527454
-1.89865466290276
-2.003280689707787
-1.972508328882766
-1.8494188855827651
-1.7447928587777384
-1.6709391927977324
-1.6340123598077294
-1.6401668319727392
-1.6463213041377214
-1.6647847206327224
-1.6709391927977324
-1.677093664962742
-1.677093664962742
-1.677093664962742
-1.683248137127724
-1.6709391927977324
-1.677093664962742
-1.683248137127724
-1.677093664962742
-1.677093664962742
-1.6647847206327224
-1.6586302484677409
-1.6647847206327224
-1.6709391927977324
-1.683248137127724
-1.6709391927977324
-1.6463213041377214
-1.6586302484677409
-1.6647847206327224
-1.6647847206327224
-1.6586302484677409
-1.6647847206327224
-1.6647847206327224
-1.6586302484677409
-1.6709391927977324
-1.6709391927977324
-1.6647847206327224
-1.6709391927977324
-1.6647847206327224
-1.6709391927977324
-1.6709391927977324
-1.6709391927977324
-1.6647847206327224
-1.6709391927977324
-1.6709391927977324
-1.6401668319727392
-1.6401668319727392
-1.6586302484677409
-1.6524757763027311
-1.6524757763027311
-1.6217034154777374
-1.6032399989827364
-1.6217034154777374
-1.6278578876427194
-1.6278578876427194
-1.6340123598077294
-1.6647847206327224
-1.683248137127724
-1.677093664962742
-1.6709391927977324
-1.6647847206327224
-1.6524757763027311
-1.6340123598077294
-1.6217034154777374
-1.615548943312728
-1.6093944711477182
-1.5970855268177266
-1.5970855268177266
-1.5970855268177266
-1.578622110322725
-1.5724676381577152
-1.5663131659927332
-1.5601586938277234
-1.5540042216627135
-1.5601586938277234
-1.5663131659927332
-1.578622110322725
-1.5847765824877347
-1.6032399989827364
-1.6217034154777374
-1.6401668319727392
-1.6524757763027311
-1.677093664962742
-1.7078660257877356
-1.7324839144477464
-1.7632562752727399
-1.7817196917677414
-1.7940286360977609
-1.8063375804277528
-1.8063375804277528
-1.8124920525927626
-1.8063375804277528
-1.7940286360977609
-1.8124920525927626
-1.830955469087764
-1.8371099412527454
-1.8248009969227539
-1.8248009969227539
-1.8248009969227539
-1.8248009969227539
-1.8248009969227539
-1.8124920525927626
-1.8124920525927626
-1.8063375804277528
-1.8063375804277528
-1.8124920525927626
-1.8063375804277528
-1.8063375804277528
-1.8124920525927626
-1.8186465247577446
-1.8186465247577446
-1.8001831082627426
-1.8001831082627426
-1.8001831082627426
-1.8001831082627426
-1.8063375804277528
-1.8248009969227539
-1.8186465247577446
-1.8186465247577446
-1.8248009969227539
-1.8186465247577446
-1.8248009969227539
-1.8186465247577446
-1.8124920525927626
-1.8186465247577446
-1.8001831082627426
-1.8001831082627426
-1.8063375804277528
-1.8001831082627426
-1.8063375804277528
-1.8186465247577446
-1.8063375804277528
-1.8063375804277528
-1.7878741639327511
-1.7878741639327511
-1.7817196917677414
-1.7940286360977609
-1.7878741639327511
-1.7817196917677414
-1.7878741639327511
-1.7940286360977609
-1.7817196917677414
-1.7755652196027594
-1.7817196917677414
-1.7878741639327511
-1.7878741639327511
-1.7755652196027594
-1.7694107474377496
-1.7755652196027594
-1.7878741639327511
-1.7878741639327511
-1.7940286360977609
-1.7940286360977609
-1.7940286360977609
-1.7878741639327511
-1.7817196917677414
-1.7817196917677414
-1.7878741639327511
-1.7940286360977609
-1.7878741639327511
-1.8001831082627426
-1.7878741639327511
-1.7755652196027594
-1.7755652196027594
-1.7878741639327511
-1.7755652196027594
-1.7755652196027594
-1.7694107474377496
-1.7632562752727399
-1.7694107474377496
-1.7755652196027594
-1.7632562752727399
-1.7632562752727399
-1.7694107474377496
-1.7632562752727399
-1.7755652196027594
-1.7755652196027594
-1.7817196917677414
-1.757101803107758
-1.7447928587777384
-1.7447928587777384
-1.7386383866127564
-1.757101803107758
-1.8001831082627426
-1.8186465247577446
-1.7878741639327511
-1.7817196917677414
-1.7817196917677414
-1.7817196917677414
-1.7817196917677414
-1.7817196917677414
-1.7817196917677414
-1.7940286360977609
-1.7878741639327511
-1.7940286360977609
-1.8001831082627426
-1.8001831082627426
-1.8001831082627426
-1.8001831082627426
-1.8001831082627426
-1.8001831082627426
-1.7940286360977609
-1.8001831082627426
-1.7940286360977609
-1.8001831082627426
-1.8124920525927626
-1.8124920525927626
-1.8124920525927626
-1.8001831082627426
-1.8063375804277528
-1.8001831082627426
-1.8001831082627426
-1.7878741639327511
-1.7940286360977609
-1.7940286360977609
-1.7940286360977609
-1.8001831082627426
-1.8001831082627426
-1.8001831082627426
-1.8001831082627426
-1.8001831082627426
-1.8063375804277528
-1.8124920525927626
-1.8248009969227539
-1.8186465247577446
-1.8063375804277528
-1.8063375804277528
-1.8063375804277528
-1.8124920525927626
-1.8186465247577446
-1.8186465247577446
-1.7940286360977609
-1.7878741639327511
-1.7940286360977609
-1.8001831082627426
-1.8063375804277528
-1.8124920525927626
-1.8001831082627426
-1.8001831082627426
-1.7878741639327511
-1.7755652196027594
-1.7878741639327511
-1.7755652196027594
-1.7817196917677414
-1.7878741639327511
-1.7940286360977609
-1.7940286360977609
-1.7940286360977609
-1.7755652196027594
-1.7817196917677414
-1.7878741639327511
-1.7878741639327511
-1.7940286360977609
-1.7940286360977609
-1.7817196917677414
-1.7817196917677414
-1.8063375804277528
-1.8001831082627426
-1.8063375804277528
-1.8063375804277528
-1.8001831082627426
-1.8001831082627426
-1.8001831082627426
-1.8186465247577446
-1.8124920525927626
-1.8124920525927626
-1.8124920525927626
-1.8124920525927626
-1.8001831082627426
-1.8001831082627426
-1.8063375804277528
-1.8124920525927626
-1.8001831082627426
-1.7940286360977609
-1.8001831082627426
-1.8063375804277528
-1.8124920525927626
-1.8186465247577446
-1.8248009969227539
-1.8063375804277528
-1.7878741639327511
-1.7878741639327511
-1.7878741639327511
-1.7694107474377496
-1.7878741639327511
-1.8001831082627426
-1.7940286360977609
-1.7878741639327511
-1.8001831082627426
-1.8001831082627426
-1.8063375804277528
-1.8063375804277528
-1.8063375804277528
-1.8001831082627426
-1.8063375804277528
-1.8124920525927626
-1.8124920525927626
-1.8124920525927626
-1.8063375804277528
-1.8001831082627426
-1.7632562752727399
-1.757101803107758
-1.8124920525927626
-1.8001831082627426
-1.8001831082627426
-1.7940286360977609
-1.7817196917677414
-1.7694107474377496
-1.7694107474377496
-1.7755652196027594
-1.7878741639327511
-1.7940286360977609
-1.8063375804277528
-1.8124920525927626
-1.8063375804277528
-1.7940286360977609
-1.8063375804277528
-1.8124920525927626
-1.8063375804277528
-1.8063375804277528
-1.8063375804277528
-1.8124920525927626
-1.830955469087764
-1.8248009969227539
-1.8124920525927626
-1.8186465247577446
-1.8124920525927626
-1.8124920525927626
-1.8248009969227539
-1.8124920525927626
-1.7940286360977609
-1.7940286360977609
-1.8001831082627426
-1.7940286360977609
-1.7447928587777384
-1.6524757763027311
-1.504768444342719
-1.3755245288776807
-1.3139798072276945
-1.3693700567126987
-1.510922916507701
-1.6463213041377214
-1.830955469087764
-2.0278985783677985
-2.1632969659978185
-2.1571424938328088
-2.009435161872797
-1.8801912464077586
-1.7755652196027594
-1.757101803107758
-1.7878741639327511
-1.7940286360977609
-1.8001831082627426
-1.7940286360977609
-1.8063375804277528
-1.8124920525927626
-1.8063375804277528
-1.8001831082627426
-1.7878741639327511
-1.8001831082627426
-1.7878741639327511
-1.7878741639327511
-1.7940286360977609
-1.8063375804277528
-1.7940286360977609
-1.7632562752727399
-1.7386383866127564
-1.7509473309427481
-1.7632562752727399
-1.7755652196027594
-1.7694107474377496
-1.7694107474377496
-1.8124920525927626
-1.8432644134177558
-1.8248009969227539
-1.8124920525927626
-1.7940286360977609
-1.7878741639327511
-1.7878741639327511
-1.7940286360977609
-1.7817196917677414
-1.7878741639327511
-1.7878741639327511
-1.7878741639327511
-1.7878741639327511
-1.7940286360977609
-1.7940286360977609
-1.7878741639327511
-1.7755652196027594
-1.7817196917677414
-1.7878741639327511
-1.7755652196027594
-1.7694107474377496
-1.7632562752727399
-1.757101803107758
-1.7509473309427481
-1.7447928587777384
-1.7509473309427481
-1.7447928587777384
-1.7509473309427481
-1.7386383866127564
-1.7263294422827367
-1.7324839144477464
-1.7263294422827367
-1.7324839144477464
-1.7140204979527454
-1.7078660257877356
-1.7078660257877356
-1.7078660257877356
-1.689402609292734
-1.689402609292734
-1.683248137127724
-1.677093664962742
-1.6709391927977324
-1.6647847206327224
-1.6647847206327224
-1.6586302484677409
-1.6586302484677409
-1.6524757763027311
-1.6524757763027311
-1.6647847206327224
-1.677093664962742
-1.6709391927977324
-1.677093664962742
-1.7140204979527454
-1.7447928587777384
-1.7694107474377496
-1.8248009969227539
-1.8863457185727683
-1.8801912464077586
-1.8801912464077586
-1.8863457185727683
-1.8863457185727683
-1.89865466290276
-1.892500190737778
-1.8801912464077586
-1.8801912464077586
-1.892500190737778
-1.9048091350677696
-1.892500190737778
-1.8863457185727683
-1.8863457185727683
-1.892500190737778
-1.892500190737778
-1.8863457185727683
-1.8863457185727683
-1.8863457185727683
-1.8863457185727683
-1.8801912464077586
-1.8801912464077586
-1.8740367742427766
-1.8432644134177558
-1.8432644134177558
-1.8432644134177558
-1.8432644134177558
-1.8371099412527454
-1.8494188855827651
-1.8494188855827651
-1.855573357747775
-1.855573357747775
-1.861727829912757
-1.855573357747775
-1.8494188855827651
-1.855573357747775
-1.861727829912757
-1.8740367742427766
-1.8740367742427766
-1.8678823020777668
-1.8678823020777668
-1.861727829912757
-1.8432644134177558
-1.8432644134177558
-1.8371099412527454
-1.830955469087764
-1.8371099412527454
-1.8371099412527454
-1.8371099412527454
-1.8371099412527454
-1.8494188855827651
-1.8494188855827651
-1.8432644134177558
-1.8371099412527454
-1.8371099412527454
-1.8371099412527454
-1.8371099412527454
-1.8432644134177558
-1.830955469087764
-1.830955469087764
-1.8124920525927626
-1.8063375804277528
-1.8124920525927626
-1.8248009969227539
-1.830955469087764
-1.830955469087764
-1.830955469087764
-1.8371099412527454
-1.8432644134177558
-1.8371099412527454
-1.830955469087764
-1.8371099412527454
-1.8432644134177558
-1.8371099412527454
-1.8371099412527454
-1.8248009969227539
-1.8186465247577446
-1.8248009969227539
-1.8186465247577446
-1.8186465247577446
-1.8248009969227539
-1.830955469087764
-1.8248009969227539
-1.830955469087764
-1.830955469087764
-1.8186465247577446
-1.8124920525927626
-1.8248009969227539
-1.8124920525927626
-1.8124920525927626
-1.8124920525927626
-1.8124920525927626
-1.8063375804277528
-1.8063375804277528
-1.8001831082627426
-1.7694107474377496
-1.7447928587777384
-1.7447928587777384
-1.7509473309427481
-1.7694107474377496
-1.7817196917677414
-1.7817196917677414
-1.7878741639327511
-1.7755652196027594
-1.7447928587777384
-1.7201749701177547
-1.7078660257877356
-1.6955570814577436
-1.7017115536227536
-1.7017115536227536
-1.7017115536227536
-1.7017115536227536
-1.7078660257877356
-1.7140204979527454
-1.7263294422827367
-1.7201749701177547
-1.6955570814577436
-1.6955570814577436
-1.7447928587777384
-1.7447928587777384
-1.7324839144477464
-1.7324839144477464
-1.7324839144477464
-1.7447928587777384
-1.7386383866127564
-1.7324839144477464
-1.7324839144477464
-1.7263294422827367
-1.7324839144477464
-1.7386383866127564
-1.7263294422827367
-1.7078660257877356
-1.7078660257877356
-1.7201749701177547
-1.7201749701177547
-1.7201749701177547
-1.7263294422827367
-1.7324839144477464
-1.7386383866127564
-1.7509473309427481
-1.7386383866127564
-1.7386383866127564
-1.7447928587777384
-1.7509473309427481
-1.757101803107758
-1.7509473309427481
-1.757101803107758
-1.7632562752727399
-1.7755652196027594
-1.7509473309427481
-1.7201749701177547
-1.7447928587777384
-1.7509473309427481
-1.7386383866127564
-1.7447928587777384
-1.7632562752727399
-1.7509473309427481
-1.757101803107758
-1.7632562752727399
-1.7632562752727399
-1.7632562752727399
-1.7694107474377496
-1.7694107474377496
-1.7694107474377496
-1.7755652196027594
-1.7817196917677414
-1.7755652196027594
-1.7755652196027594
-1.7694107474377496
-1.7632562752727399
-1.757101803107758
-1.7509473309427481
-1.7386383866127564
-1.7201749701177547
-1.7263294422827367
-1.7263294422827367
-1.7324839144477464
-1.7201749701177547
-1.7201749701177547
-1.7324839144477464
-1.7078660257877356
-1.7078660257877356
-1.7201749701177547
-1.7263294422827367
-1.7201749701177547
-1.7140204979527454
-1.7386383866127564
-1.7324839144477464
-1.7263294422827367
-1.7140204979527454
-1.7017115536227536
-1.7201749701177547
-1.7324839144477464
-1.7201749701177547
-1.7078660257877356
-1.7140204979527454
-1.7201749701177547
-1.7201749701177547
-1.7263294422827367
-1.7324839144477464
-1.7263294422827367
-1.7263294422827367
-1.7263294422827367
-1.7140204979527454
-1.7201749701177547
-1.7201749701177547
-1.7201749701177547
-1.7140204979527454
-1.7201749701177547
-1.7140204979527454
-1.7140204979527454
-1.7201749701177547
-1.7263294422827367
-1.7324839144477464
-1.7386383866127564
-1.7447928587777384
-1.7509473309427481
-1.7324839144477464
-1.6955570814577436
-1.689402609292734
-1.689402609292734
-1.683248137127724
-1.683248137127724
-1.683248137127724
-1.677093664962742
-1.6955570814577436
-1.7017115536227536
-1.7078660257877356
-1.7078660257877356
-1.7140204979527454
-1.7263294422827367
-1.7263294422827367
-1.7386383866127564
-1.7324839144477464
-1.7263294422827367
-1.7324839144477464
-1.7386383866127564
-1.7201749701177547
-1.6955570814577436
-1.689402609292734
-1.7017115536227536
-1.7078660257877356
-1.7078660257877356
-1.7140204979527454
-1.7632562752727399
-1.7694107474377496
-1.757101803107758
-1.7386383866127564
-1.7509473309427481
-1.7509473309427481
-1.7447928587777384
-1.6955570814577436
-1.615548943312728
-1.473996083517698
-1.326288751557686
-1.2708985020726815
-1.2955163907326928
-1.400142417537692
-1.5355408051677124
-1.7263294422827367
-1.990971745377768
-2.1079067165127863
-2.1017522443478045
-1.954044912387765
-1.8248009969227539
-1.7509473309427481
-1.7140204979527454
-1.7140204979527454
-1.7324839144477464
-1.7447928587777384
-1.7386383866127564
-1.7324839144477464
-1.7324839144477464
-1.7386383866127564
-1.7386383866127564
-1.7263294422827367
-1.7140204979527454
-1.7324839144477464
-1.7386383866127564
-1.7324839144477464
-1.7386383866127564
-1.7386383866127564
-1.7324839144477464
-1.7263294422827367
-1.7324839144477464
-1.7263294422827367
-1.7201749701177547
-1.7201749701177547
-1.7201749701177547
-1.7263294422827367
-1.7140204979527454
-1.7201749701177547
-1.7078660257877356
-1.7140204979527454
-1.7201749701177547
-1.7140204979527454
-1.7140204979527454
-1.7324839144477464
-1.7324839144477464
-1.7324839144477464
-1.7324839144477464
-1.7201749701177547
-1.7201749701177547
-1.7201749701177547
-1.7201749701177547
-1.7201749701177547
-1.7140204979527454
-1.6955570814577436
-1.7078660257877356
-1.6955570814577436
-1.6955570814577436
-1.689402609292734
-1.683248137127724
-1.689402609292734
-1.6955570814577436
-1.6955570814577436
-1.6709391927977324
-1.6647847206327224
-1.683248137127724
-1.6955570814577436
-1.689402609292734
-1.677093664962742
-1.6647847206327224
-1.6586302484677409
-1.6586302484677409
-1.6709391927977324
-1.677093664962742
-1.6709391927977324
-1.6524757763027311
-1.6524757763027311
-1.6463213041377214
-1.6340123598077294
-1.6340123598077294
-1.6278578876427194
-1.6217034154777374
-1.6401668319727392
-1.6524757763027311
-1.6524757763027311
-1.6463213041377214
-1.6647847206327224
-1.683248137127724
-1.6955570814577436
-1.6955570814577436
-1.7140204979527454
-1.7447928587777384
-1.7694107474377496
-1.7940286360977609
-1.8124920525927626
-1.8186465247577446
-1.8186465247577446
-1.830955469087764
-1.8494188855827651
-1.8678823020777668
-1.8678823020777668
-1.8801912464077586
-1.8801912464077586
-1.8740367742427766
-1.8740367742427766
-1.8678823020777668
-1.855573357747775
-1.8494188855827651
-1.8432644134177558
-1.8801912464077586
-1.8740367742427766
-1.855573357747775
-1.855573357747775
-1.8494188855827651
-1.8494188855827651
-1.8432644134177558
-1.8494188855827651
-1.8371099412527454
-1.830955469087764
-1.8371099412527454
-1.8432644134177558
-1.861727829912757
-1.861727829912757
-1.855573357747775
-1.8494188855827651
-1.861727829912757
-1.855573357747775
-1.855573357747775
-1.8494188855827651
-1.8432644134177558
-1.8432644134177558
-1.8248009969227539
-1.8248009969227539
-1.830955469087764
-1.8371099412527454
-1.8248009969227539
-1.8186465247577446
-1.830955469087764
-1.830955469087764
-1.8371099412527454
-1.830955469087764
-1.8432644134177558
-1.8432644134177558
-1.8432644134177558
-1.8371099412527454
-1.8248009969227539
-1.8248009969227539
-1.830955469087764
-1.8124920525927626
-1.8248009969227539
-1.830955469087764
-1.8248009969227539
-1.830955469087764
-1.8371099412527454
-1.8432644134177558
-1.8186465247577446
-1.8186465247577446
-1.8248009969227539
-1.830955469087764
-1.8371099412527454
-1.8432644134177558
-1.855573357747775
-1.861727829912757
-1.8740367742427766
-1.861727829912757
-1.855573357747775
-1.8432644134177558
-1.830955469087764
-1.830955469087764
-1.8494188855827651
-1.8494188855827651
-1.8124920525927626
-1.8063375804277528
-1.7817196917677414
-1.7878741639327511
-1.7878741639327511
-1.7878741639327511
-1.7940286360977609
-1.8001831082627426
-1.7878741639327511
-1.7878741639327511
-1.7940286360977609
-1.7940286360977609
-1.8001831082627426
-1.8063375804277528
-1.8124920525927626
-1.8063375804277528
-1.7940286360977609
-1.7940286360977609
-1.8001831082627426
-1.7940286360977609
-1.8001831082627426
-1.8186465247577446
-1.8124920525927626
-1.8124920525927626
-1.8001831082627426
-1.8124920525927626
-1.830955469087764
-1.8248009969227539
-1.8186465247577446
-1.8001831082627426
-1.8063375804277528
-1.7940286360977609
-1.8001831082627426
-1.8001831082627426
-1.8001831082627426
-1.7940286360977609
-1.7817196917677414
-1.7694107474377496
-1.7632562752727399
-1.7755652196027594
-1.7755652196027594
-1.7817196917677414
-1.7694107474377496
-1.7755652196027594
-1.7940286360977609
-1.8063375804277528
-1.8248009969227539
-1.8124920525927626
-1.8124920525927626
-1.7878741639327511
-1.7940286360977609
-1.7940286360977609
-1.7940286360977609
-1.8001831082627426
-1.8001831082627426
-1.8063375804277528
-1.8001831082627426
-1.8001831082627426
-1.7632562752727399
-1.757101803107758
-1.7694107474377496
-1.757101803107758
-1.7632562752727399
-1.7632562752727399
-1.8001831082627426
-1.8063375804277528
-1.8001831082627426
-1.8063375804277528
-1.7940286360977609
-1.7878741639327511
-1.7755652196027594
-1.7878741639327511
-1.8001831082627426
-1.8124920525927626
-1.8248009969227539
-1.8124920525927626
-1.8124920525927626
-1.8186465247577446
-1.8248009969227539
-1.830955469087764
-1.830955469087764
-1.830955469087764
-1.830955469087764
-1.830955469087764
-1.8248009969227539
-1.8186465247577446
-1.8063375804277528
-1.8063375804277528
-1.7940286360977609
-1.7817196917677414
-1.7817196917677414
-1.8186465247577446
-1.8371099412527454
-1.8432644134177558
-1.8371099412527454
-1.8371099412527454
-1.830955469087764
-1.8371099412527454
-1.8371099412527454
-1.855573357747775
-1.8678823020777668
-1.861727829912757
-1.8678823020777668
-1.8801912464077586
-1.8863457185727683
-1.8801912464077586
-1.8678823020777668
-1.8740367742427766
-1.8678823020777668
-1.855573357747775
-1.855573357747775
-1.8494188855827651
-1.8371099412527454
-1.8371099412527454
-1.8494188855827651
-1.861727829912757
-1.8678823020777668
-1.8740367742427766
-1.8801912464077586
-1.8801912464077586
-1.8740367742427766
-1.861727829912757
-1.7755652196027594
-1.6524757763027311
-1.5416952773327222
-1.437069250527695
-1.400142417537692
-1.467841611352716
-1.6032399989827364
-1.7509473309427481
-1.954044912387765
-2.1263701330077875
-2.194069326822812
-2.150988021667799
-2.0217441062027888
-1.89865466290276
-1.8371099412527454
-1.7940286360977609
-1.8001831082627426
-1.8124920525927626
-1.8124920525927626
-1.8063375804277528
-1.8124920525927626
-1.8063375804277528
-1.7817196917677414
-1.7694107474377496
-1.7817196917677414
-1.7940286360977609
-1.8001831082627426
-1.8063375804277528
-1.8063375804277528
-1.855573357747775
-1.855573357747775
-1.830955469087764
-1.8248009969227539
-1.8124920525927626
-1.8124920525927626
-1.8063375804277528
-1.7817196917677414
-1.7694107474377496
-1.7694107474377496
-1.7694107474377496
-1.7694107474377496
-1.7817196917677414
-1.8063375804277528
-1.8063375804277528
-1.7940286360977609
-1.7755652196027594
-1.7632562752727399
-1.7817196917677414
-1.7878741639327511
-1.7878741639327511
-1.8001831082627426
-1.7940286360977609
-1.7940286360977609
-1.7940286360977609
-1.7817196917677414
-1.7940286360977609
-1.7817196917677414
-1.7817196917677414
-1.7632562752727399
-1.7447928587777384
-1.7878741639327511
-1.8063375804277528
-1.7755652196027594
-1.757101803107758
-1.757101803107758
-1.7447928587777384
-1.7509473309427481
-1.7509473309427481
-1.7386383866127564
-1.7324839144477464
-1.7324839144477464
-1.7201749701177547
-1.7140204979527454
-1.7017115536227536
-1.689402609292734
-1.689402609292734
-1.683248137127724
-1.6709391927977324
-1.6647847206327224
-1.6709391927977324
-1.677093664962742
-1.6647847206327224
-1.6709391927977324
-1.6709391927977324
-1.677093664962742
-1.6955570814577436
-1.7201749701177547
-1.7263294422827367
-1.7324839144477464
-1.757101803107758
-1.7817196917677414
-1.8001831082627426
-1.8186465247577446
-1.8494188855827651
-1.8740367742427766
-1.892500190737778
-1.892500190737778
-1.8863457185727683
-1.89865466290276
-1.89865466290276
-1.89865466290276
-1.9048091350677696
-1.91096360723278
-1.9171180793977614
-1.9232725515627715
-1.9171180793977614
-1.91096360723278
-1.91096360723278
-1.91096360723278
-1.91096360723278
-1.91096360723278
-1.9048091350677696
-1.9171180793977614
-1.9048091350677696
-1.89865466290276
-1.892500190737778
-1.89865466290276
-1.89865466290276
-1.9048091350677696
-1.9048091350677696
-1.892500190737778
-1.892500190737778
-1.8678823020777668
-1.8801912464077586
-1.892500190737778
-1.8740367742427766
-1.8801912464077586
-1.8801912464077586
-1.8678823020777668
-1.861727829912757
-1.855573357747775
-1.8678823020777668
-1.8678823020777668
-1.8863457185727683
-1.892500190737778
-1.91096360723278
-1.91096360723278
-1.9294270237277809
-1.954044912387765
-1.9786628010477763
-1.9786628010477763
-1.9848172732127856
-1.9971262175427773
-1.9971262175427773
-2.0217441062027888
-2.064825411357801
-2.083288827852803
-2.114061188677796
-2.1817603824928202
-2.2433051041428067
-2.304849825792821
-2.3663945474428347
-2.378703491772827
-2.403321380432838
-2.434093741257831
-2.4525571577528327
-2.483329518577854
-2.5325652958978484
-2.55718318455786
-2.587955545382853
-2.5941100175478624
-2.5941100175478624
-2.6002644897128726
-2.5941100175478624
-2.563337656722869
-2.563337656722869
-2.563337656722869
-2.55102871239285
-2.544874240227868
-2.526410823732866
-2.5325652958978484
-2.507947407237865
-2.5141018794028467
-2.5141018794028467
-2.501792935072855
-2.495638462907845
-2.4894839907428636
-2.477175046412844
-2.4894839907428636
-2.4894839907428636
-2.4648661020828517
-2.409475852597848
-2.403321380432838
-2.409475852597848
-2.409475852597848
-2.409475852597848
-2.4279392690928487
-2.446402685587851
-2.409475852597848
-2.391012436102846
-2.378703491772827
-2.372549019607845
-2.3848579639378364
-2.3848579639378364
-2.3663945474428347
-2.3417766587828237
-2.329467714452832
-2.3171587701228398
-2.3171587701228398
-2.3110042979578305
-2.298695353627811
-2.2925408814628288
-2.286386409297819
-2.2740774649678275
-2.255614048472826
-2.2433051041428067
-2.249459576307816
-2.249459576307816
-2.224841687647805
-2.2186872154828228
-2.2186872154828228
-2.2063782711528033
-2.2063782711528033
-2.200223798987821
-2.194069326822812
-2.187914854657802
-2.1756059103278105
-2.1632969659978185
-2.1756059103278105
-2.150988021667799
-2.138679077337807
-2.1325246051727973
-2.1202156608428053
-2.114061188677796
-2.1263701330077875
-2.1202156608428053
-2.1017522443478045
-2.083288827852803
-2.089443300017785
-2.089443300017785
-2.083288827852803
-2.1017522443478045
-2.1017522443478045
-2.0955977721827947
-2.114061188677796
-2.138679077337807
-2.1079067165127863
-2.0955977721827947
-2.1017522443478045
-2.1079067165127863
-2.1017522443478045
-2.089443300017785
-2.077134355687793
-2.083288827852803
-2.083288827852803
-2.089443300017785
-2.089443300017785
-2.083288827852803
-2.089443300017785
-2.0709798835227837
-2.0586709391927913
-2.052516467027782
-2.0586709391927913
-2.0586709391927913
-2.0586709391927913
-1.990971745377768
-1.892500190737778
-1.7755652196027594
-1.6647847206327224
-1.6217034154777374
-1.677093664962742
-1.7755652196027594
-1.892500190737778
-2.0709798835227837
-2.2371506319778245
-2.3171587701228398
-2.2679229928028177
-2.1448335495027893
-2.04020752269779
-1.966353856717784
-1.9355814958927628
-1.954044912387765
-1.972508328882766
-1.9786628010477763
-1.9848172732127856
-1.9848172732127856
-1.9971262175427773
-1.9971262175427773
-1.966353856717784
-1.954044912387765
-1.9601993845527748
-1.9478904402227823
-1.9355814958927628
-1.9417359680577726
-1.9478904402227823
-1.954044912387765
-1.9417359680577726
-1.9294270237277809
-1.91096360723278
-1.892500190737778
-1.8863457185727683
-1.89865466290276
-1.91096360723278
-1.9048091350677696
-1.9048091350677696
-1.9048091350677696
-1.9048091350677696
-1.9048091350677696
-1.89865466290276
-1.89865466290276
-1.89865466290276
-1.91096360723278
-1.91096360723278
-1.8801912464077586
-1.8863457185727683
-1.9355814958927628
-1.9232725515627715
-1.8863457185727683
-1.8863457185727683
-1.8863457185727683
-1.8740367742427766
-1.861727829912757
-1.8740367742427766
-1.8801912464077586
-1.8801912464077586
-1.8678823020777668
-1.861727829912757
-1.855573357747775
-1.855573357747775
-1.861727829912757
-1.861727829912757
-1.861727829912757
-1.8432644134177558
-1.8371099412527454
-1.8248009969227539
-1.8248009969227539
-1.830955469087764
-1.8124920525927626
-1.8063375804277528
-1.7940286360977609
-1.7878741639327511
-1.7817196917677414
-1.7817196917677414
-1.7755652196027594
-1.7632562752727399
-1.7632562752727399
-1.7632562752727399
-1.7386383866127564
-1.7263294422827367
-1.7324839144477464
-1.7324839144477464
-1.757101803107758
-1.7755652196027594
-1.8063375804277528
-1.861727829912757
-1.892500190737778
-1.9048091350677696
-1.9294270237277809
-1.9232725515627715
-1.9232725515627715
-1.9355814958927628
-1.9417359680577726
-1.9478904402227823
-1.9355814958927628
-1.9417359680577726
-1.9478904402227823
-1.9601993845527748
-1.954044912387765
-1.9478904402227823
-1.9417359680577726
-1.9478904402227823
-1.9478904402227823
-1.9417359680577726
-1.9294270237277809
-1.9232725515627715
-1.9294270237277809
-1.9232725515627715
-1.9232725515627715
-1.9355814958927628
-1.9294270237277809
-1.9478904402227823
-1.9601993845527748
-1.9355814958927628
-1.9294270237277809
-1.9232725515627715
-1.9232725515627715
-1.9171180793977614
-1.9048091350677696
-1.9048091350677696
-1.9048091350677696
-1.9048091350677696
-1.9171180793977614
-1.9171180793977614
-1.9048091350677696
-1.9048091350677696
-1.9048091350677696
-1.89865466290276
-1.89865466290276
-1.8863457185727683
-1.8863457185727683
-1.892500190737778
-1.8863457185727683
-1.8863457185727683
-1.8801912464077586
-1.8801912464077586
-1.892500190737778
-1.8740367742427766
-1.861727829912757
-1.8678823020777668
-1.892500190737778
-1.8801912464077586
-1.8678823020777668
-1.861727829912757
-1.861727829912757
-1.855573357747775
-1.855573357747775
-1.855573357747775
-1.855573357747775
-1.8494188855827651
-1.8432644134177558
-1.8432644134177558
-1.8432644134177558
-1.830955469087764
-1.8371099412527454
-1.830955469087764
-1.8248009969227539
-1.8186465247577446
-1.8124920525927626
-1.8186465247577446
-1.8063375804277528
-1.8063375804277528
-1.8124920525927626
-1.8063375804277528
-1.8063375804277528
-1.7940286360977609
-1.7755652196027594
-1.7817196917677414
-1.7878741639327511
-1.7878741639327511
-1.8001831082627426
-1.8001831082627426
-1.8432644134177558
-1.8432644134177558
-1.8186465247577446
-1.8001831082627426
-1.7878741639327511
-1.7878741639327511
-1.7878741639327511
-1.7817196917677414
-1.7817196917677414
-1.7694107474377496
-1.7694107474377496
-1.7632562752727399
-1.757101803107758
-1.7509473309427481
-1.7386383866127564
-1.7263294422827367
-1.7263294422827367
-1.7447928587777384
-1.7447928587777384
-1.7201749701177547
-1.6955570814577436
-1.6647847206327224
-1.6340123598077294
-1.6278578876427194
-1.6278578876427194
-1.6278578876427194
-1.6340123598077294
-1.6278578876427194
-1.6278578876427194
-1.5970855268177266
-1.5540042216627135
-1.510922916507701
-1.473996083517698
-1.4616871391877062
-1.437069250527695
-1.4062968897027015
-1.3878334732077002
-1.363215584547689
-1.3324432237226955
-1.3078253350626845
-1.289361918567683
-1.2770529742376913
-1.2770529742376913
-1.2647440299076718
-1.2647440299076718
-1.2708985020726815
-1.2647440299076718
-1.2770529742376913
-1.2708985020726815
-1.2708985020726815
-1.2647440299076718
-1.2708985020726815
-1.2770529742376913
-1.2770529742376913
-1.2708985020726815
-1.2647440299076718
-1.2832074464026733
-1.2770529742376913
-1.2708985020726815
-1.2708985020726815
-1.2647440299076718
-1.25243508557768
-1.2585895577426898
-1.2708985020726815
-1.2832074464026733
-1.289361918567683
-1.2832074464026733
-1.2955163907326928
-1.3016708628976748
-1.3139798072276945
-1.3078253350626845
-1.3078253350626845
-1.3139798072276945
-1.3078253350626845
-1.3139798072276945
-1.3139798072276945
-1.3139798072276945
-1.3201342793926762
-1.3201342793926762
-1.326288751557686
-1.3385976958876775
-1.3570611123826792
-1.3570611123826792
-1.363215584547689
-1.3755245288776807
-1.3693700567126987
-1.3816790010426905
-1.39398794537271
-1.3878334732077002
-1.3816790010426905
-1.3878334732077002
-1.39398794537271
-1.4062968897027015
-1.400142417537692
-1.4062968897027015
-1.4247603061977032
-1.4247603061977032
-1.4309147783627132
-1.4247603061977032
-1.4247603061977032
-1.4432237226927047
-1.4555326670226965
-1.4555326670226965
-1.437069250527695
-1.437069250527695
-1.4432237226927047
-1.437069250527695
-1.437069250527695
-1.4493781948577145
-1.4493781948577145
-1.4493781948577145
-1.4493781948577145
-1.467841611352716
-1.4863050278477177
-1.4924595000126994
-1.467841611352716
-1.467841611352716
-1.4924595000126994
-1.5540042216627135
-1.5601586938277234
-1.5478497494977315
-1.5416952773327222
-1.5478497494977315
-1.5601586938277234
-1.5540042216627135
-1.5478497494977315
-1.5478497494977315
-1.5540042216627135
-1.5601586938277234
-1.5601586938277234
-1.5540042216627135
-1.5663131659927332
-1.5663131659927332
-1.5663131659927332
-1.5724676381577152
-1.5540042216627135
-1.5355408051677124
-1.4924595000126994
-1.400142417537692
-1.2708985020726815
-1.1539635309376628
-1.0985732814526583
-1.1601180031026725
-1.3078253350626845
-1.4432237226927047
-1.6278578876427194
-1.8124920525927626
-1.9294270237277809
-1.892500190737778
-1.6955570814577436
-1.5847765824877347
-1.5355408051677124
-1.5232318608377204
-1.5293863330027024
-1.5540042216627135
-1.5663131659927332
-1.5724676381577152
-1.590931054652717
-1.6032399989827364
-1.5970855268177266
-1.6032399989827364
-1.6032399989827364
-1.6032399989827364
-1.6032399989827364
-1.5970855268177266
-1.6032399989827364
-1.6093944711477182
-1.6032399989827364
-1.615548943312728
-1.6217034154777374
-1.6401668319727392
-1.6463213041377214
-1.6401668319727392
-1.6278578876427194
-1.6401668319727392
-1.6401668319727392
-1.6463213041377214
-1.6401668319727392
-1.6463213041377214
-1.6278578876427194
-1.6278578876427194
-1.6340123598077294
-1.6463213041377214
-1.6524757763027311
-1.6524757763027311
-1.6647847206327224
-1.6586302484677409
-1.6647847206327224
-1.6647847206327224
-1.6709391927977324
-1.6586302484677409
-1.6524757763027311
-1.6463213041377214
-1.6463213041377214
-1.6463213041377214
-1.6340123598077294
-1.6340123598077294
-1.6278578876427194
-1.6278578876427194
-1.6340123598077294
-1.6278578876427194
-1.6217034154777374
-1.6217034154777374
-1.615548943312728
-1.6217034154777374
-1.615548943312728
-1.6093944711477182
-1.6032399989827364
-1.6032399989827364
-1.590931054652717
-1.590931054652717
-1.590931054652717
-1.578622110322725
-1.5663131659927332
-1.5663131659927332
-1.5540042216627135
-1.5478497494977315
-1.5416952773327222
-1.5478497494977315
-1.5540042216627135
-1.5540042216627135
-1.5416952773327222
-1.5232318608377204
-1.5293863330027024
-1.5355408051677124
-1.5416952773327222
-1.590931054652717
-1.6463213041377214
-1.7201749701177547
-1.757101803107758
-1.757101803107758
-1.7263294422827367
-1.7263294422827367
-1.7447928587777384
-1.757101803107758
-1.757101803107758
-1.7632562752727399
-1.7386383866127564
-1.7201749701177547
-1.7263294422827367
-1.7386383866127564
-1.7447928587777384
-1.7447928587777384
-1.757101803107758
-1.8001831082627426
-1.8124920525927626
-1.8063375804277528
-1.8001831082627426
-1.7878741639327511
-1.7817196917677414
-1.7817196917677414
-1.7817196917677414
-1.8124920525927626
-1.8371099412527454
-1.8432644134177558
-1.8432644134177558
-1.8248009969227539
-1.8371099412527454
-1.8494188855827651
-1.8432644134177558
-1.8186465247577446
-1.7755652196027594
-1.7632562752727399
-1.7694107474377496
-1.757101803107758
-1.7509473309427481
-1.757101803107758
-1.7755652196027594
-1.7878741639327511
-1.8063375804277528
-1.8371099412527454
-1.8494188855827651
-1.830955469087764
-1.8248009969227539
-1.830955469087764
-1.8432644134177558
-1.8432644134177558
-1.8371099412527454
-1.8371099412527454
-1.8371099412527454
-1.8494188855827651
-1.8494188855827651
-1.8494188855827651
-1.8494188855827651
-1.861727829912757
-1.855573357747775
-1.8494188855827651
-1.8494188855827651
-1.8494188855827651
-1.8494188855827651
-1.8494188855827651
-1.8494188855827651
-1.855573357747775
-1.861727829912757
-1.855573357747775
-1.8494188855827651
-1.8432644134177558
-1.8494188855827651
-1.8494188855827651
-1.861727829912757
-1.8740367742427766
-1.8678823020777668
-1.861727829912757
-1.861727829912757
-1.8494188855827651
-1.855573357747775
-1.855573357747775
-1.855573357747775
-1.855573357747775
-1.855573357747775
-1.8494188855827651
-1.855573357747775
-1.861727829912757
-1.855573357747775
-1.8432644134177558
-1.8494188855827651
-1.8432644134177558
-1.8371099412527454
-1.8432644134177558
-1.8371099412527454
-1.8371099412527454
-1.830955469087764
-1.830955469087764
-1.830955469087764
-1.8432644134177558
-1.8432644134177558
-1.855573357747775
-1.8432644134177558
-1.8371099412527454
-1.8248009969227539
-1.8063375804277528
-1.8248009969227539
-1.8432644134177558
-1.8186465247577446
-1.8124920525927626
-1.8248009969227539
-1.8371099412527454
-1.830955469087764
-1.8371099412527454
-1.8371099412527454
-1.8248009969227539
-1.830955469087764
-1.8186465247577446
-1.8248009969227539
-1.8124920525927626
-1.8001831082627426
-1.8063375804277528
-1.8124920525927626
-1.8063375804277528
-1.8124920525927626
-1.8124920525927626
-1.8001831082627426
-1.7817196917677414
-1.7694107474377496
-1.7817196917677414
-1.7940286360977609
-1.8001831082627426
-1.7878741639327511
-1.7755652196027594
-1.7632562752727399
-1.7324839144477464
-1.757101803107758
-1.8063375804277528
-1.830955469087764
-1.8124920525927626
-1.8186465247577446
-1.8124920525927626
-1.8248009969227539
-1.8001831082627426
-1.7878741639327511
-1.7817196917677414
-1.7694107474377496
-1.757101803107758
-1.7632562752727399
-1.7632562752727399
-1.7632562752727399
-1.7509473309427481
-1.7386383866127564
-1.7509473309427481
-1.757101803107758
-1.7632562752727399
-1.7694107474377496
-1.7694107474377496
-1.7755652196027594
-1.7755652196027594
-1.7817196917677414
-1.7817196917677414
-1.7817196917677414
-1.7817196917677414
-1.7940286360977609
-1.7940286360977609
-1.7755652196027594
-1.7755652196027594
-1.7940286360977609
-1.8001831082627426
-1.7940286360977609
-1.8001831082627426
-1.8063375804277528
-1.8001831082627426
-1.7940286360977609
-1.7940286360977609
-1.7940286360977609
-1.8001831082627426
-1.7940286360977609
-1.7817196917677414
-1.7755652196027594
-1.7817196917677414
-1.7878741639327511
-1.7878741639327511
-1.8001831082627426
-1.8063375804277528
-1.8124920525927626
-1.8186465247577446
-1.8124920525927626
-1.8001831082627426
-1.7940286360977609
-1.8063375804277528
-1.7940286360977609
-1.7817196917677414
-1.7755652196027594
-1.7817196917677414
-1.7940286360977609
-1.8001831082627426
-1.7755652196027594
-1.7632562752727399
-1.7632562752727399
-1.7755652196027594
-1.7509473309427481
-1.7263294422827367
-1.7324839144477464
-1.7386383866127564
-1.7263294422827367
-1.7201749701177547
-1.7078660257877356
-1.6955570814577436
-1.7140204979527454
-1.7324839144477464
-1.7509473309427481
-1.7509473309427481
-1.7386383866127564
-1.7263294422827367
-1.7263294422827367
-1.7386383866127564
-1.7386383866127564
-1.7386383866127564
-1.7386383866127564
-1.7386383866127564
-1.7694107474377496
-1.7817196917677414
-1.7694107474377496
-1.7755652196027594
-1.7817196917677414
-1.7755652196027594
-1.7694107474377496
-1.757101803107758
-1.7509473309427481
-1.7694107474377496
-1.7694107474377496
-1.7694107474377496
-1.7755652196027594
-1.7755652196027594
-1.7632562752727399
-1.7632562752727399
-1.7694107474377496
-1.7755652196027594
-1.7755652196027594
-1.7694107474377496
-1.7632562752727399
-1.7632562752727399
-1.7632562752727399
-1.7632562752727399
-1.7447928587777384
-1.7078660257877356
-1.6340123598077294
-1.4863050278477177
-1.3509066402176972
-1.2832074464026733
-1.326288751557686
-1.4616871391877062
-1.5970855268177266
-1.7632562752727399
-1.9601993845527748
-2.0709798835227837
-2.077134355687793
-1.9355814958927628
-1.8124920525927626
-1.7386383866127564
-1.7140204979527454
-1.7509473309427481
-1.7878741639327511
-1.7817196917677414
-1.7940286360977609
-1.7940286360977609
-1.7817196917677414
-1.7694107474377496
-1.7694107474377496
-1.7632562752727399
-1.7694107474377496
-1.757101803107758
-1.7632562752727399
-1.7632562752727399
-1.7632562752727399
-1.7509473309427481
-1.7509473309427481
-1.7263294422827367
-1.7386383866127564
-1.7386383866127564
-1.7386383866127564
-1.7324839144477464
-1.7324839144477464
-1.7324839144477464
-1.7324839144477464
-1.7263294422827367
-1.7324839144477464
-1.7324839144477464
-1.7201749701177547
-1.7324839144477464
-1.7263294422827367
-1.7386383866127564
-1.7324839144477464
-1.7386383866127564
-1.7324839144477464
-1.7324839144477464
-1.7386383866127564
-1.7447928587777384
-1.7447928587777384
-1.7447928587777384
-1.757101803107758
-1.7386383866127564
-1.7140204979527454
-1.7078660257877356
-1.6955570814577436
-1.689402609292734
-1.6955570814577436
-1.689402609292734
-1.7078660257877356
-1.7201749701177547
-1.689402609292734
-1.677093664962742
-1.689402609292734
-1.689402609292734
-1.6709391927977324
-1.6586302484677409
-1.689402609292734
-1.7263294422827367
-1.7017115536227536
-1.7017115536227536
-1.677093664962742
-1.6586302484677409
-1.6524757763027311
-1.6463213041377214
-1.6524757763027311
-1.6463213041377214
-1.6524757763027311
-1.6401668319727392
-1.6524757763027311
-1.6524757763027311
-1.6463213041377214
-1.6647847206327224
-1.6709391927977324
-1.6709391927977324
-1.683248137127724
-1.6955570814577436
-1.7078660257877356
-1.7386383866127564
-1.757101803107758
-1.7447928587777384
-1.7509473309427481
-1.7755652196027594
-1.8001831082627426
-1.8063375804277528
-1.7940286360977609
-1.8001831082627426
-1.8001831082627426
-1.8248009969227539
-1.8248009969227539
-1.8494188855827651
-1.8432644134177558
-1.8432644134177558
-1.8494188855827651
-1.8371099412527454
-1.8371099412527454
-1.8371099412527454
-1.830955469087764
-1.8248009969227539
-1.8248009969227539
-1.830955469087764
-1.8186465247577446
-1.8186465247577446
-1.8186465247577446
-1.8186465247577446
-1.8248009969227539
-1.8432644134177558
-1.855573357747775
-1.855573357747775
-1.855573357747775
-1.861727829912757
-1.861727829912757
-1.8740367742427766
-1.8801912464077586
-1.8678823020777668
-1.855573357747775
-1.855573357747775
-1.8432644134177558
-1.855573357747775
-1.861727829912757
-1.8740367742427766
-1.91096360723278
-1.89865466290276
-1.8863457185727683
-1.8863457185727683
-1.8801912464077586
-1.8801912464077586
-1.8863457185727683
-1.8801912464077586
-1.8678823020777668
-1.8801912464077586
-1.892500190737778
-1.8863457185727683
-1.8863457185727683
-1.8801912464077586
-1.8801912464077586
-1.8740367742427766
-1.8740367742427766
-1.8801912464077586
-1.861727829912757
-1.8494188855827651
-1.855573357747775
-1.861727829912757
-1.8371099412527454
-1.830955469087764
-1.830955469087764
-1.830955469087764
-1.830955469087764
-1.830955469087764
-1.830955469087764
-1.830955469087764
-1.8432644134177558
-1.8432644134177558
-1.8371099412527454
-1.830955469087764
-1.830955469087764
-1.8186465247577446
-1.8124920525927626
-1.8248009969227539
-1.8186465247577446
-1.8186465247577446
-1.8124920525927626
-1.8124920525927626
-1.8124920525927626
-1.8063375804277528
-1.8001831082627426
-1.8124920525927626
-1.8063375804277528
-1.8124920525927626
-1.8186465247577446
-1.830955469087764
-1.8186465247577446
-1.8124920525927626
-1.8186465247577446
-1.8186465247577446
-1.8124920525927626
-1.8186465247577446
-1.8371099412527454
-1.8186465247577446
-1.8124920525927626
-1.8186465247577446
-1.8063375804277528
-1.8124920525927626
-1.8001831082627426
-1.8001831082627426
-1.8001831082627426
-1.8063375804277528
-1.8001831082627426
-1.7940286360977609
-1.8063375804277528
-1.8001831082627426
-1.8063375804277528
-1.8186465247577446
-1.8248009969227539
-1.8186465247577446
-1.8124920525927626
-1.8124920525927626
-1.8124920525927626
-1.8248009969227539
-1.8124920525927626
-1.7940286360977609
-1.8063375804277528
-1.8001831082627426
-1.8063375804277528
-1.8063375804277528
-1.8001831082627426
-1.8124920525927626
-1.8063375804277528
-1.8063375804277528
-1.8063375804277528
-1.7940286360977609
-1.7940286360977609
-1.7940286360977609
-1.8001831082627426
-1.8124920525927626
-1.8001831082627426
-1.8063375804277528
-1.8063375804277528
-1.8001831082627426
-1.8124920525927626
-1.8124920525927626
-1.8063375804277528
-1.8063375804277528
-1.8001831082627426
-1.7940286360977609
-1.8001831082627426
-1.7940286360977609
-1.7755652196027594
-1.7817196917677414
-1.7817196917677414
-1.7878741639327511
-1.7878741639327511
-1.7878741639327511
-1.7940286360977609
-1.7878741639327511
-1.7940286360977609
-1.7878741639327511
-1.7755652196027594
-1.7817196917677414
-1.757101803107758
-1.757101803107758
-1.757101803107758
-1.7447928587777384
-1.7386383866127564
-1.7447928587777384
-1.757101803107758
-1.7755652196027594
-1.8186465247577446
-1.8001831082627426
-1.7940286360977609
-1.7878741639327511
-1.7817196917677414
-1.7878741639327511
-1.7755652196027594
-1.7694107474377496
-1.7817196917677414
-1.7817196917677414
-1.7817196917677414
-1.7817196917677414
-1.7817196917677414
-1.7878741639327511
-1.7755652196027594
-1.7755652196027594
-1.7755652196027594
-1.7755652196027594
-1.7755652196027594
-1.7755652196027594
-1.7694107474377496
-1.7694107474377496
-1.7694107474377496
-1.7817196917677414
-1.7940286360977609
-1.7878741639327511
-1.7755652196027594
-1.7755652196027594
-1.7632562752727399
-1.7447928587777384
-1.7201749701177547
-1.7140204979527454
-1.7386383866127564
-1.7447928587777384
-1.7386383866127564
-1.7324839144477464
-1.7263294422827367
-1.7509473309427481
-1.7755652196027594
-1.7694107474377496
-1.7632562752727399
-1.757101803107758
-1.7694107474377496
-1.7755652196027594
-1.7755652196027594
-1.7694107474377496
-1.7755652196027594
-1.7817196917677414
-1.7878741639327511
-1.7878741639327511
-1.7817196917677414
-1.7817196917677414
-1.7755652196027594
-1.7817196917677414
-1.7940286360977609
-1.7878741639327511
-1.7632562752727399
-1.7694107474377496
-1.7694107474377496
-1.7694107474377496
-1.757101803107758
-1.757101803107758
-1.7509473309427481
-1.6709391927977324
-1.5601586938277234
-1.437069250527695
-1.3324432237226955
-1.3078253350626845
-1.3878334732077002
-1.5170773886727107
-1.6586302484677409
-1.8678823020777668
-2.0278985783677985
-2.114061188677796
-2.064825411357801
-1.9294270237277809
-1.8124920525927626
-1.7509473309427481
-1.7078660257877356
-1.7140204979527454
-1.7447928587777384
-1.7386383866127564
-1.7324839144477464
-1.7140204979527454
-1.7201749701177547
-1.7263294422827367
-1.7324839144477464
-1.7386383866127564
-1.7263294422827367
-1.7201749701177547
-1.7324839144477464
-1.7386383866127564
-1.7263294422827367
-1.7201749701177547
-1.7386383866127564
-1.7447928587777384
-1.7447928587777384
-1.7447928587777384
-1.7324839144477464
-1.7324839144477464
-1.7263294422827367
-1.7324839144477464
-1.7201749701177547
-1.7263294422827367
-1.7324839144477464
-1.7201749701177547
-1.7078660257877356
-1.7201749701177547
-1.7324839144477464
-1.7263294422827367
-1.7263294422827367
-1.7263294422827367
-1.7386383866127564
-1.7324839144477464
-1.7201749701177547
-1.689402609292734
-1.683248137127724
-1.7017115536227536
-1.7263294422827367
-1.7140204979527454
-1.689402609292734
-1.6955570814577436
-1.7017115536227536
-1.7017115536227536
-1.6955570814577436
-1.7140204979527454
-1.7632562752727399
-1.7386383866127564
-1.7201749701177547
-1.6955570814577436
-1.6709391927977324
-1.6647847206327224
-1.6647847206327224
-1.6709391927977324
-1.6586302484677409
-1.6401668319727392
-1.6401668319727392
-1.6401668319727392
-1.6401668319727392
-1.6340123598077294
-1.6217034154777374
-1.590931054652717
-1.6032399989827364
-1.6032399989827364
-1.6032399989827364
-1.6032399989827364
-1.5970855268177266
-1.5970855268177266
-1.5970855268177266
-1.6093944711477182
-1.6278578876427194
-1.6401668319727392
-1.6647847206327224
-1.6955570814577436
-1.7201749701177547
-1.7386383866127564
-1.7632562752727399
-1.7694107474377496
-1.7878741639327511
-1.8063375804277528
-1.8063375804277528
-1.8248009969227539
-1.8186465247577446
-1.8186465247577446
-1.8248009969227539
-1.8371099412527454
-1.8432644134177558
-1.830955469087764
-1.8371099412527454
-1.8432644134177558
-1.8371099412527454
-1.830955469087764
-1.8186465247577446
-1.8186465247577446
-1.8248009969227539
-1.8124920525927626
-1.8063375804277528
-1.7940286360977609
-1.8001831082627426
-1.7940286360977609
-1.7940286360977609
-1.8063375804277528
-1.7940286360977609
-1.7940286360977609
-1.8001831082627426
-1.8063375804277528
-1.7940286360977609
-1.8001831082627426
-1.8001831082627426
-1.7878741639327511
-1.7632562752727399
-1.7694107474377496
-1.7817196917677414
-1.7755652196027594
-1.7817196917677414
-1.7755652196027594
-1.7755652196027594
-1.7940286360977609
-1.8001831082627426
-1.7940286360977609
-1.7940286360977609
-1.7940286360977609
-1.8001831082627426
-1.8063375804277528
-1.8001831082627426
-1.8001831082627426
-1.8063375804277528
-1.8001831082627426
-1.7940286360977609
-1.8001831082627426
-1.8001831082627426
-1.7878741639327511
-1.7817196917677414
-1.7878741639327511
-1.7940286360977609
-1.7878741639327511
-1.7755652196027594
-1.7755652196027594
-1.7694107474377496
-1.7817196917677414
-1.8001831082627426
-1.8063375804277528
-1.8001831082627426
-1.8063375804277528
-1.8063375804277528
-1.8001831082627426
-1.8001831082627426
-1.8001831082627426
-1.8001831082627426
-1.8063375804277528
-1.8001831082627426
-1.7940286360977609
-1.7878741639327511
-1.8001831082627426
-1.8001831082627426
-1.8063375804277528
-1.7817196917677414
-1.7509473309427481
-1.7632562752727399
-1.7817196917677414
-1.7940286360977609
-1.8063375804277528
-1.8124920525927626
-1.8063375804277528
-1.861727829912757
-1.855573357747775
-1.8248009969227539
-1.8186465247577446
-1.8186465247577446
-1.8186465247577446
-1.8248009969227539
-1.8186465247577446
-1.830955469087764
-1.8371099412527454
-1.830955469087764
-1.8248009969227539
-1.8248009969227539
-1.830955469087764
-1.830955469087764
-1.830955469087764
-1.8186465247577446
-1.7817196917677414
-1.8001831082627426
-1.8001831082627426
-1.8063375804277528
-1.8124920525927626
-1.8124920525927626
-1.8063375804277528
-1.8186465247577446
-1.830955469087764
-1.830955469087764
-1.8248009969227539
-1.8124920525927626
-1.8063375804277528
-1.8001831082627426
-1.8063375804277528
-1.8063375804277528
-1.8124920525927626
-1.8186465247577446
-1.8186465247577446
-1.8186465247577446
-1.8432644134177558
-1.8371099412527454
-1.8124920525927626
-1.8063375804277528
-1.8063375804277528
-1.8001831082627426
-1.7940286360977609
-1.8001831082627426
-1.8186465247577446
-1.8001831082627426
-1.7940286360977609
-1.7878741639327511
-1.7755652196027594
-1.7878741639327511
-1.7878741639327511
-1.7755652196027594
-1.7694107474377496
-1.7694107474377496
-1.7878741639327511
-1.7694107474377496
-1.7694107474377496
-1.7755652196027594
-1.7817196917677414
-1.8001831082627426
-1.8063375804277528
-1.8063375804277528
-1.8124920525927626
-1.8248009969227539
-1.8248009969227539
-1.8124920525927626
-1.8186465247577446
-1.8124920525927626
-1.8186465247577446
-1.8248009969227539
-1.8248009969227539
-1.8186465247577446
-1.8186465247577446
-1.8248009969227539
-1.8063375804277528
-1.8001831082627426
-1.7940286360977609
-1.7755652196027594
-1.7201749701177547
-1.615548943312728
-1.4863050278477177
-1.3509066402176972
-1.3078253350626845
-1.3878334732077002
-1.5355408051677124
-1.689402609292734
-1.892500190737778
-2.064825411357801
-2.1632969659978185
-2.1263701330077875
-1.9848172732127856
-1.8678823020777668
-1.8001831082627426
-1.7694107474377496
-1.7755652196027594
-1.7755652196027594
-1.7817196917677414
-1.7878741639327511
-1.8001831082627426
-1.8063375804277528
-1.8248009969227539
-1.8124920525927626
-1.8063375804277528
-1.8001831082627426
-1.7817196917677414
-1.7817196917677414
-1.7755652196027594
-1.7694107474377496
-1.7694107474377496
-1.7694107474377496
-1.7694107474377496
-1.7755652196027594
-1.7632562752727399
-1.7447928587777384
-1.7140204979527454
-1.7078660257877356
-1.7017115536227536
-1.757101803107758
-1.7755652196027594
-1.757101803107758
-1.757101803107758
-1.757101803107758
-1.757101803107758
-1.7509473309427481
-1.757101803107758
-1.7509473309427481
-1.7632562752727399
-1.757101803107758
-1.7694107474377496
-1.757101803107758
-1.7509473309427481
-1.7447928587777384
-1.7386383866127564
-1.7447928587777384
-1.7509473309427481
-1.7509473309427481
-1.7324839144477464
-1.7140204979527454
-1.7078660257877356
-1.7140204979527454
-1.7078660257877356
-1.7017115536227536
-1.677093664962742
-1.677093664962742
-1.689402609292734
-1.677093664962742
-1.6709391927977324
-1.677093664962742
-1.6586302484677409
-1.6524757763027311
-1.6524757763027311
-1.6586302484677409
-1.6401668319727392
-1.6278578876427194
-1.6217034154777374
-1.6278578876427194
-1.6278578876427194
-1.6217034154777374
-1.6032399989827364
-1.6032399989827364
-1.6093944711477182
-1.615548943312728
-1.6278578876427194
-1.6340123598077294
-1.6524757763027311
-1.6709391927977324
-1.689402609292734
-1.7078660257877356
-1.7324839144477464
-1.7632562752727399
-1.7755652196027594
-1.8001831082627426
-1.8186465247577446
-1.8248009969227539
-1.830955469087764
-1.855573357747775
-1.8801912464077586
-1.855573357747775
-1.861727829912757
-1.8678823020777668
-1.861727829912757
-1.861727829912757
-1.8678823020777668
-1.8740367742427766
-1.8801912464077586
-1.8801912464077586
-1.8678823020777668
-1.861727829912757
-1.8432644134177558
-1.8124920525927626
-1.8001831082627426
-1.8248009969227539
-1.830955469087764
-1.830955469087764
-1.8371099412527454
-1.8432644134177558
-1.892500190737778
-1.8863457185727683
-1.861727829912757
-1.855573357747775
-1.8432644134177558
-1.8432644134177558
-1.8432644134177558
-1.8432644134177558
-1.8371099412527454
-1.8248009969227539
-1.830955469087764
-1.830955469087764
-1.8248009969227539
-1.830955469087764
-1.8494188855827651
-1.8432644134177558
-1.7940286360977609
-1.7878741639327511
-1.8063375804277528
-1.8063375804277528
-1.8001831082627426
-1.8063375804277528
-1.7940286360977609
-1.7878741639327511
-1.8001831082627426
-1.8063375804277528
-1.8124920525927626
-1.8063375804277528
-1.8063375804277528
-1.8063375804277528
-1.8371099412527454
-1.8371099412527454
-1.8248009969227539
-1.8186465247577446
-1.8186465247577446
-1.8063375804277528
-1.8001831082627426
-1.8001831082627426
-1.8063375804277528
-1.7755652196027594
-1.7632562752727399
-1.7755652196027594
-1.7755652196027594
-1.7755652196027594
-1.7755652196027594
-1.7940286360977609
-1.8063375804277528
-1.8371099412527454
-1.855573357747775
-1.8432644134177558
-1.8248009969227539
-1.8124920525927626
-1.8063375804277528
-1.8124920525927626
-1.8124920525927626
-1.8124920525927626
-1.8063375804277528
-1.8001831082627426
-1.8063375804277528
-1.8124920525927626
-1.8063375804277528
-1.8001831082627426
-1.8124920525927626
-1.8063375804277528
-1.8063375804277528
-1.8001831082627426
-1.8124920525927626
-1.8063375804277528
-1.7940286360977609
-1.8063375804277528
-1.8001831082627426
-1.8001831082627426
-1.8001831082627426
-1.8001831082627426
-1.7940286360977609
-1.7878741639327511
-1.8001831082627426
-1.8001831082627426
-1.8063375804277528
-1.8001831082627426
-1.8001831082627426
-1.7940286360977609
-1.7878741639327511
-1.7940286360977609
-1.7940286360977609
-1.7878741639327511
-1.7878741639327511
-1.7940286360977609
-1.7940286360977609
-1.7940286360977609
-1.7940286360977609
-1.7940286360977609
-1.7878741639327511
-1.7878741639327511
-1.8063375804277528
-1.8001831082627426
-1.7940286360977609
-1.7878741639327511
-1.7940286360977609
-1.7817196917677414
-1.7694107474377496
-1.7694107474377496
-1.7940286360977609
-1.7817196917677414
-1.7694107474377496
-1.7755652196027594
-1.7817196917677414
-1.7817196917677414
-1.7878741639327511
-1.7817196917677414
-1.7755652196027594
-1.7940286360977609
-1.7817196917677414
-1.7694107474377496
-1.7509473309427481
-1.7447928587777384
-1.7447928587777384
-1.7447928587777384
-1.7447928587777384
-1.7447928587777384
-1.7447928587777384
-1.7447928587777384
-1.7447928587777384
-1.7509473309427481
-1.757101803107758
-1.7632562752727399
-1.7755652196027594
-1.7817196917677414
-1.7878741639327511
-1.7940286360977609
-1.7878741639327511
-1.7878741639327511
-1.7878741639327511
-1.7878741639327511
-1.7878741639327511
-1.7817196917677414
-1.7694107474377496
-1.7632562752727399
-1.7632562752727399
-1.7694107474377496
-1.7694107474377496
-1.757101803107758
-1.757101803107758
-1.7694107474377496
-1.7694107474377496
-1.757101803107758
-1.7324839144477464
-1.6709391927977324
-1.5601586938277234
-1.400142417537692
-1.2832074464026733
-1.2708985020726815
-1.3755245288776807
-1.5293863330027024
-1.683248137127724
-1.8740367742427766
-2.0463619948628
-2.1263701330077875
-2.04020752269779
-1.892500190737778
-1.7878741639327511
-1.7078660257877356
-1.689402609292734
-1.7140204979527454
-1.7140204979527454
-1.7447928587777384
-1.7940286360977609
-1.7755652196027594
-1.7632562752727399
-1.7694107474377496
-1.7694107474377496
-1.7632562752727399
-1.757101803107758
-1.7447928587777384
-1.7509473309427481
-1.7447928587777384
-1.7386383866127564
-1.7447928587777384
-1.7324839144477464
-1.7263294422827367
-1.7201749701177547
-1.7263294422827367
-1.7386383866127564
-1.7324839144477464
-1.7263294422827367
-1.7263294422827367
-1.7140204979527454
-1.7140204979527454
-1.7201749701177547
-1.7140204979527454
-1.7263294422827367
-1.7263294422827367
-1.7201749701177547
-1.7201749701177547
-1.7078660257877356
-1.7078660257877356
-1.7017115536227536
-1.7078660257877356
-1.7140204979527454
-1.7140204979527454
-1.7017115536227536
-1.7017115536227536
-1.7017115536227536
-1.7017115536227536
-1.689402609292734
-1.689402609292734
-1.683248137127724
-1.689402609292734
-1.689402609292734
-1.683248137127724
-1.677093664962742
-1.683248137127724
-1.6709391927977324
-1.6647847206327224
-1.677093664962742
-1.677093664962742
-1.6586302484677409
-1.6463213041377214
-1.6340123598077294
-1.6278578876427194
-1.6278578876427194
-1.6278578876427194
-1.6217034154777374
-1.615548943312728
-1.6340123598077294
-1.6093944711477182
-1.590931054652717
-1.6032399989827364
-1.6032399989827364
-1.6032399989827364
-1.5970855268177266
-1.6093944711477182
-1.615548943312728
-1.6340123598077294
-1.6524757763027311
-1.677093664962742
-1.7017115536227536
-1.7263294422827367
-1.757101803107758
-1.7755652196027594
-1.7878741639327511
-1.8186465247577446
-1.8186465247577446
-1.8248009969227539
-1.8371099412527454
-1.8432644134177558
-1.8494188855827651
-1.8494188855827651
-1.8432644134177558
-1.8494188855827651
-1.855573357747775
-1.861727829912757
-1.8678823020777668
-1.8678823020777668
-1.861727829912757
-1.8801912464077586
-1.8863457185727683
-1.892500190737778
-1.8863457185727683
-1.8740367742427766
-1.861727829912757
-1.861727829912757
-1.855573357747775
-1.8494188855827651
-1.861727829912757
-1.855573357747775
-1.855573357747775
-1.855573357747775
-1.8678823020777668
-1.8678823020777668
-1.8678823020777668
-1.8740367742427766
-1.861727829912757
-1.8678823020777668
-1.8678823020777668
-1.8678823020777668
-1.8678823020777668
-1.8678823020777668
-1.8678823020777668
-1.855573357747775
-1.8494188855827651
-1.8432644134177558
-1.8371099412527454
-1.855573357747775
-1.8863457185727683
-1.861727829912757
-1.8494188855827651
-1.8494188855827651
-1.8432644134177558
-1.8432644134177558
-1.8494188855827651
-1.8494188855827651
-1.8432644134177558
-1.855573357747775
-1.8432644134177558
-1.830955469087764
-1.8248009969227539
-1.830955469087764
-1.830955469087764
-1.8494188855827651
-1.8432644134177558
-1.830955469087764
-1.8186465247577446
-1.8248009969227539
-1.8371099412527454
-1.8371099412527454
-1.8371099412527454
-1.8432644134177558
-1.8124920525927626
-1.8063375804277528
-1.8063375804277528
-1.8248009969227539
-1.830955469087764
-1.8371099412527454
-1.8371099412527454
-1.8740367742427766
-1.892500190737778
-1.8678823020777668
-1.8494188855827651
-1.8494188855827651
-1.855573357747775
-1.855573357747775
-1.8371099412527454
-1.830955469087764
-1.8371099412527454
-1.8494188855827651
-1.8371099412527454
-1.8248009969227539
-1.8186465247577446
-1.8248009969227539
-1.8371099412527454
-1.8186465247577446
-1.8186465247577446
-1.8186465247577446
-1.8248009969227539
-1.830955469087764
-1.8371099412527454
-1.8371099412527454
-1.8248009969227539
-1.8371099412527454
-1.8432644134177558
-1.830955469087764
-1.8186465247577446
-1.8248009969227539
-1.830955469087764
-1.830955469087764
-1.8494188855827651
-1.8432644134177558
-1.8432644134177558
-1.8432644134177558
-1.8432644134177558
-1.8371099412527454
-1.8371099412527454
-1.8432644134177558
-1.8432644134177558
-1.8371099412527454
-1.8371099412527454
-1.8432644134177558
-1.8371099412527454
-1.8248009969227539
-1.830955469087764
-1.830955469087764
-1.8186465247577446
-1.8124920525927626
-1.8124920525927626
-1.8124920525927626
-1.8124920525927626
-1.8248009969227539
-1.8248009969227539
-1.8186465247577446
-1.8186465247577446
-1.8248009969227539
-1.8248009969227539
-1.8432644134177558
-1.8494188855827651
-1.8432644134177558
-1.8248009969227539
-1.830955469087764
-1.830955469087764
-1.8432644134177558
-1.8432644134177558
-1.8432644134177558
-1.8371099412527454
-1.8432644134177558
-1.8432644134177558
-1.8432644134177558
-1.8432644134177558
-1.8432644134177558
-1.8371099412527454
-1.8371099412527454
-1.8371099412527454
-1.830955469087764
-1.8371099412527454
-1.830955469087764
-1.8186465247577446
-1.8186465247577446
-1.8124920525927626
-1.8063375804277528
-1.8063375804277528
-1.8124920525927626
-1.8063375804277528
-1.8063375804277528
-1.8124920525927626
-1.8248009969227539
-1.8186465247577446
-1.8063375804277528
-1.7878741639327511
-1.7878741639327511
-1.8001831082627426
-1.830955469087764
-1.8801912464077586
-1.8740367742427766
-1.8801912464077586
-1.8678823020777668
-1.8740367742427766
-1.8801912464077586
-1.8740367742427766
-1.8678823020777668
-1.8740367742427766
-1.8740367742427766
-1.8740367742427766
-1.8740367742427766
-1.8801912464077586
-1.8740367742427766
-1.8678823020777668
-1.855573357747775
-1.855573357747775
-1.8678823020777668
-1.861727829912757
-1.855573357747775
-1.861727829912757
-1.8678823020777668
-1.8801912464077586
-1.8863457185727683
-1.892500190737778
-1.9048091350677696
-1.89865466290276
-1.9048091350677696
-1.9048091350677696
-1.9048091350677696
-1.9171180793977614
-1.9048091350677696
-1.89865466290276
-1.9048091350677696
-1.91096360723278
-1.9355814958927628
-1.9417359680577726
-1.9601993845527748
-1.9478904402227823
-1.9417359680577726
-1.9232725515627715
-1.9294270237277809
-1.9355814958927628
-1.9478904402227823
-1.9786628010477763
-1.9848172732127856
-1.990971745377768
-2.015589634037779
-2.0463619948628
-2.052516467027782
-2.064825411357801
-2.064825411357801
-2.0709798835227837
-2.077134355687793
-2.077134355687793
-2.089443300017785
-2.0955977721827947
-2.089443300017785
-2.1017522443478045
-2.0955977721827947
-2.1017522443478045
-2.0955977721827947
-2.1017522443478045
-2.0955977721827947
-2.1017522443478045
-2.077134355687793
-2.064825411357801
-2.0586709391927913
-2.04020752269779
-2.0217441062027888
-1.9971262175427773
-1.972508328882766
-1.9294270237277809
-1.8001831082627426
-1.6647847206327224
-1.5416952773327222
-1.4924595000126994
-1.5416952773327222
-1.6586302484677409
-1.7817196917677414
-1.972508328882766
-2.1448335495027893
-2.224841687647805
-2.1632969659978185
-2.003280689707787
-1.8863457185727683
-1.8186465247577446
-1.7817196917677414
-1.7755652196027594
-1.7940286360977609
-1.7940286360977609
-1.7817196917677414
-1.7817196917677414
-1.7755652196027594
-1.7755652196027594
-1.7694107474377496
-1.757101803107758
-1.7632562752727399
-1.7509473309427481
-1.7447928587777384
-1.7386383866127564
-1.7386383866127564
-1.7263294422827367
-1.7324839144477464
-1.7201749701177547
-1.7201749701177547
-1.7201749701177547
-1.7078660257877356
-1.7017115536227536
-1.6955570814577436
-1.7017115536227536
-1.7140204979527454
-1.7078660257877356
-1.6955570814577436
-1.6955570814577436
-1.689402609292734
-1.677093664962742
-1.6647847206327224
-1.6955570814577436
-1.7078660257877356
-1.7017115536227536
-1.6955570814577436
-1.6955570814577436
-1.6955570814577436
-1.6955570814577436
-1.689402609292734
-1.683248137127724
-1.683248137127724
-1.677093664962742
-1.6647847206327224
-1.6524757763027311
-1.6463213041377214
-1.6524757763027311
-1.6524757763027311
-1.6524757763027311
-1.6463213041377214
-1.6340123598077294
-1.6340123598077294
-1.6401668319727392
-1.6340123598077294
-1.6278578876427194
-1.6278578876427194
-1.6217034154777374
-1.615548943312728
-1.6093944711477182
-1.6032399989827364
-1.6093944711477182
-1.6032399989827364
-1.6093944711477182
-1.590931054652717
-1.578622110322725
-1.578622110322725
-1.5663131659927332
-1.5724676381577152
-1.5724676381577152
-1.5724676381577152
-1.578622110322725
-1.5847765824877347
-1.590931054652717
-1.6032399989827364
-1.6278578876427194
-1.6463213041377214
-1.6647847206327224
-1.683248137127724
-1.7017115536227536
-1.7140204979527454
-1.7386383866127564
-1.7755652196027594
-1.7940286360977609
-1.8001831082627426
-1.8001831082627426
-1.8124920525927626
-1.8186465247577446
-1.8186465247577446
-1.8248009969227539
-1.8248009969227539
-1.830955469087764
-1.830955469087764
-1.8248009969227539
-1.8186465247577446
-1.830955469087764
-1.8186465247577446
-1.8063375804277528
-1.8186465247577446
-1.8186465247577446
-1.8124920525927626
-1.8186465247577446
-1.8124920525927626
-1.8186465247577446
-1.8124920525927626
-1.8124920525927626
-1.8063375804277528
-1.8001831082627426
-1.8063375804277528
-1.8001831082627426
-1.8063375804277528
-1.8186465247577446
-1.8248009969227539
-1.8186465247577446
-1.8124920525927626
-1.8001831082627426
-1.8063375804277528
-1.8124920525927626
-1.8248009969227539
-1.8186465247577446
-1.8186465247577446
-1.8186465247577446
-1.8248009969227539
-1.8248009969227539
-1.830955469087764
-1.8186465247577446
-1.8186465247577446
-1.8186465247577446
-1.8063375804277528
-1.7878741639327511
-1.7940286360977609
-1.8001831082627426
-1.8063375804277528
-1.8124920525927626
-1.8186465247577446
-1.8432644134177558
-1.8801912464077586
-1.8494188855827651
-1.855573357747775
-1.861727829912757
-1.8494188855827651
-1.8432644134177558
-1.8432644134177558
-1.8432644134177558
-1.8371099412527454
-1.830955469087764
-1.830955469087764
-1.8248009969227539
-1.8432644134177558
-1.830955469087764
-1.8248009969227539
-1.8186465247577446
-1.8186465247577446
-1.8186465247577446
-1.7940286360977609
-1.7940286360977609
-1.8001831082627426
-1.7878741639327511
-1.8001831082627426
-1.8494188855827651
-1.855573357747775
-1.8371099412527454
-1.8432644134177558
-1.8494188855827651
-1.830955469087764
-1.830955469087764
-1.8432644134177558
-1.8371099412527454
-1.830955469087764
-1.8248009969227539
-1.8432644134177558
-1.8371099412527454
-1.830955469087764
-1.8371099412527454
-1.830955469087764
-1.830955469087764
-1.8248009969227539
-1.8186465247577446
-1.8186465247577446
-1.8248009969227539
-1.8432644134177558
-1.8371099412527454
-1.8248009969227539
-1.8248009969227539
-1.830955469087764
-1.8186465247577446
-1.830955469087764
-1.8248009969227539
-1.8186465247577446
-1.8124920525927626
-1.8063375804277528
-1.8124920525927626
-1.8186465247577446
-1.8124920525927626
-1.8186465247577446
-1.830955469087764
-1.8186465247577446
-1.830955469087764
-1.8248009969227539
-1.8248009969227539
-1.8186465247577446
-1.8248009969227539
-1.8371099412527454
-1.8432644134177558
-1.8371099412527454
-1.830955469087764
-1.8371099412527454
-1.830955469087764
-1.8371099412527454
-1.8371099412527454
-1.8432644134177558
-1.8432644134177558
-1.8371099412527454
-1.8371099412527454
-1.830955469087764
-1.830955469087764
-1.8371099412527454
-1.8371099412527454
-1.8124920525927626
-1.8001831082627426
-1.7940286360977609
-1.7878741639327511
-1.8001831082627426
-1.7940286360977609
-1.8001831082627426
-1.8124920525927626
-1.8186465247577446
-1.8248009969227539
-1.8248009969227539
-1.830955469087764
-1.830955469087764
-1.830955469087764
-1.8186465247577446
-1.8248009969227539
-1.8248009969227539
-1.8124920525927626
-1.8186465247577446
-1.8124920525927626
-1.8186465247577446
-1.8124920525927626
-1.8001831082627426
-1.8186465247577446
-1.8248009969227539
-1.8371099412527454
-1.8248009969227539
-1.830955469087764
-1.8248009969227539
-1.8248009969227539
-1.8124920525927626
-1.7755652196027594
-1.7017115536227536
-1.5847765824877347
-1.4616871391877062
-1.363215584547689
-1.3570611123826792
-1.4247603061977032
-1.5416952773327222
-1.7263294422827367
-1.9294270237277809
-2.089443300017785
-2.1571424938328088
-2.1202156608428053
-1.990971745377768
-1.8678823020777668
-1.8186465247577446
-1.8001831082627426
-1.7940286360977609
-1.8124920525927626
-1.8124920525927626
-1.8124920525927626
-1.8124920525927626
-1.8063375804277528
-1.8001831082627426
-1.8001831082627426
-1.8063375804277528
-1.7878741639327511
-1.7694107474377496
-1.7878741639327511
-1.8432644134177558
-1.830955469087764
-1.8248009969227539
-1.8371099412527454
-1.89865466290276
-2.083288827852803
-2.2925408814628288
-2.495638462907845
-2.667963683527869
-2.772589710332896
-2.8156710154879088
-2.8095165433228986
-2.7910531268278973
-2.766435238167886
-2.760280766002876
-2.760280766002876
-2.7418173495078744
-2.7171994608478913
-2.6987360443528896
-2.68642710002287
-2.674118155692878
-2.661809211362886
-2.655654739197877
-2.6433457948678853
-2.618727906207874
-2.612573434042864
-2.606418961877855
-2.587955545382853
-2.5694921288878514
-2.55102871239285
-2.544874240227868
-2.5325652958978484
-2.5325652958978484
-2.520256351567857
-2.4894839907428636
-2.477175046412844
-2.4525571577528327
-2.4402482134228407
-2.4279392690928487
-2.4156303247628297
-2.3971669082678284
-2.378703491772827
-2.3663945474428347
-2.3540856031128428
-2.329467714452832
-2.329467714452832
-2.3171587701228398
-2.298695353627811
-2.2925408814628288
-2.2679229928028177
-2.261768520637808
-2.249459576307816
-2.249459576307816
-2.2433051041428067
-2.224841687647805
-2.200223798987821
-2.2063782711528033
-2.212532743317813
-2.2309961598128147
-2.2433051041428067
-2.255614048472826
-2.2802319371328093
-2.2802319371328093
-2.286386409297819
-2.304849825792821
-2.3171587701228398
-2.3171587701228398
-2.329467714452832
-2.3356221866178415
-2.329467714452832
-2.329467714452832
-2.323313242287822
-2.329467714452832
-2.323313242287822
-2.304849825792821
-2.2925408814628288
-2.2802319371328093
-2.286386409297819
-2.2679229928028177
-2.2802319371328093
-2.2802319371328093
-2.2740774649678275
-2.261768520637808
-2.255614048472826
-2.2371506319778245
-2.2371506319778245
-2.2371506319778245
-2.2309961598128147
-2.224841687647805
-2.212532743317813
-2.200223798987821
-2.2063782711528033
-2.2063782711528033
-2.200223798987821
-2.187914854657802
-2.194069326822812
-2.187914854657802
-2.1756059103278105
-2.1571424938328088
-2.150988021667799
-2.1448335495027893
-2.1325246051727973
-2.1202156608428053
-2.114061188677796
-2.1017522443478045
-2.1017522443478045
-2.089443300017785
-2.089443300017785
-2.089443300017785
-2.077134355687793
-2.077134355687793
-2.0709798835227837
-2.0709798835227837
-2.077134355687793
-2.0709798835227837
-2.077134355687793
-2.0709798835227837
-2.0586709391927913
-2.04020752269779
-2.0340530505327803
-2.0217441062027888
-2.009435161872797
-2.015589634037779
-2.0278985783677985
-2.015589634037779
-2.0278985783677985
-2.052516467027782
-2.0340530505327803
-2.015589634037779
-2.009435161872797
-2.003280689707787
-2.003280689707787
-2.003280689707787
-1.9971262175427773
-1.9848172732127856
-1.972508328882766
-1.9355814958927628
-1.9294270237277809
-1.9417359680577726
-1.9601993845527748
-1.966353856717784
-1.9478904402227823
-1.9417359680577726
-1.9355814958927628
-1.9417359680577726
-1.9294270237277809
-1.9232725515627715
-1.9294270237277809
-1.9355814958927628
-1.9232725515627715
-1.9171180793977614
-1.9048091350677696
-1.9048091350677696
-1.89865466290276
-1.892500190737778
-1.89865466290276
-1.8863457185727683
-1.8801912464077586
-1.8801912464077586
-1.8678823020777668
-1.8740367742427766
-1.8740367742427766
-1.8678823020777668
-1.8432644134177558
-1.8248009969227539
-1.8186465247577446
-1.8001831082627426
-1.7878741639327511
-1.7817196917677414
-1.7817196917677414
-1.7694107474377496
-1.7817196917677414
-1.7878741639327511
-1.8371099412527454
-1.8124920525927626
-1.8001831082627426
-1.7940286360977609
-1.8001831082627426
-1.8124920525927626
-1.8248009969227539
-1.8124920525927626
-1.8063375804277528
-1.8186465247577446
-1.8124920525927626
-1.8001831082627426
-1.8001831082627426
-1.7878741639327511
-1.7878741639327511
-1.7755652196027594
-1.7755652196027594
-1.7940286360977609
-1.8186465247577446
-1.8063375804277528
-1.7940286360977609
-1.7940286360977609
-1.7878741639327511
-1.7694107474377496
-1.7324839144477464
-1.7017115536227536
-1.6647847206327224
-1.6647847206327224
-1.677093664962742
-1.6647847206327224
-1.6340123598077294
-1.615548943312728
-1.615548943312728
-1.6217034154777374
-1.590931054652717
-1.5724676381577152
-1.5601586938277234
-1.5540042216627135
-1.5478497494977315
-1.5170773886727107
-1.510922916507701
-1.504768444342719
-1.4863050278477177
-1.473996083517698
-1.4555326670226965
-1.4616871391877062
-1.4493781948577145
-1.4493781948577145
-1.4555326670226965
-1.4616871391877062
-1.4801505556827075
-1.4924595000126994
-1.510922916507701
-1.4986139721777092
-1.4493781948577145
-1.400142417537692
-1.3447521680526875
-1.2585895577426898
-1.1170366979476598
-0.9816383103176396
-0.8523943948526291
-0.8154675618626261
-0.9200935886676254
-1.0554919762976458
-1.1908903639276658
-1.3755245288776807
-1.5293863330027024
-1.615548943312728
-1.5232318608377204
-1.3570611123826792
-1.2770529742376913
-1.2708985020726815
-1.2462806134126705
-1.25243508557768
-1.2708985020726815
-1.2647440299076718
-1.2585895577426898
-1.25243508557768
-1.25243508557768
-1.25243508557768
-1.2647440299076718
-1.2647440299076718
-1.25243508557768
-1.2708985020726815
-1.2770529742376913
-1.2708985020726815
-1.2832074464026733
-1.2955163907326928
-1.289361918567683
-1.2832074464026733
-1.289361918567683
-1.3016708628976748
-1.289361918567683
-1.3016708628976748
-1.2955163907326928
-1.3016708628976748
-1.3139798072276945
-1.3201342793926762
-1.3078253350626845
-1.3078253350626845
-1.3139798072276945
-1.326288751557686
-1.326288751557686
-1.3385976958876775
-1.3385976958876775
-1.3385976958876775
-1.3324432237226955
-1.3385976958876775
-1.3570611123826792
-1.3570611123826792
-1.3693700567126987
-1.363215584547689
-1.3570611123826792
-1.3509066402176972
-1.3447521680526875
-1.3447521680526875
-1.3570611123826792
-1.3509066402176972
-1.3509066402176972
-1.3509066402176972
-1.3447521680526875
-1.3509066402176972
-1.3570611123826792
-1.3570611123826792
-1.3509066402176972
-1.3447521680526875
-1.3509066402176972
-1.3509066402176972
-1.3570611123826792
-1.3447521680526875
-1.3509066402176972
-1.3509066402176972
-1.3509066402176972
-1.3324432237226955
-1.3324432237226955
-1.326288751557686
-1.3385976958876775
-1.3385976958876775
-1.3447521680526875
-1.3447521680526875
-1.3570611123826792
-1.3570611123826792
-1.3755245288776807
-1.400142417537692
-1.4186058340326935
-1.4432237226927047
-1.4801505556827075
-1.504768444342719
-1.5293863330027024
-1.5663131659927332
-1.5847765824877347
-1.6093944711477182
-1.615548943312728
-1.6278578876427194
-1.6278578876427194
-1.6340123598077294
-1.6524757763027311
-1.6647847206327224
-1.677093664962742
-1.6586302484677409
-1.6586302484677409
-1.6586302484677409
-1.6647847206327224
-1.677093664962742
-1.677093664962742
-1.6709391927977324
-1.677093664962742
-1.683248137127724
-1.683248137127724
-1.6955570814577436
-1.683248137127724
-1.677093664962742
-1.6709391927977324
-1.6709391927977324
-1.677093664962742
-1.677093664962742
-1.6709391927977324
-1.6586302484677409
-1.6463213041377214
-1.6463213041377214
-1.6463213041377214
-1.6586302484677409
-1.6647847206327224
-1.6647847206327224
-1.6709391927977324
-1.6709391927977324
-1.677093664962742
-1.677093664962742
-1.677093664962742
-1.6709391927977324
-1.6709391927977324
-1.6586302484677409
-1.7201749701177547
-1.7201749701177547
-1.7140204979527454
-1.7140204979527454
-1.7140204979527454
-1.7201749701177547
-1.677093664962742
-1.6709391927977324
-1.689402609292734
-1.7078660257877356
-1.7140204979527454
-1.7263294422827367
-1.7324839144477464
-1.7447928587777384
-1.7386383866127564
-1.7386383866127564
-1.7324839144477464
-1.7263294422827367
-1.7386383866127564
-1.7509473309427481
-1.7447928587777384
-1.7324839144477464
-1.7324839144477464
-1.7201749701177547
-1.7201749701177547
-1.7386383866127564
-1.7386383866127564
-1.7509473309427481
-1.7447928587777384
-1.7263294422827367
-1.7078660257877356
-1.7078660257877356
-1.7140204979527454
-1.7263294422827367
-1.7201749701177547
-1.7201749701177547
-1.7324839144477464
-1.7386383866127564
-1.7447928587777384
-1.7386383866127564
-1.7263294422827367
-1.7324839144477464
-1.7386383866127564
-1.7386383866127564
-1.7509473309427481
-1.757101803107758
-1.7632562752727399
-1.757101803107758
-1.757101803107758
-1.7447928587777384
-1.7201749701177547
-1.7263294422827367
-1.7263294422827367
-1.7201749701177547
-1.7017115536227536
-1.683248137127724
-1.7140204979527454
-1.7263294422827367
-1.7509473309427481
-1.7694107474377496
-1.8063375804277528
-1.7755652196027594
-1.7694107474377496
-1.757101803107758
-1.7509473309427481
-1.7386383866127564
-1.7509473309427481
-1.7694107474377496
-1.757101803107758
-1.7632562752727399
-1.7632562752727399
-1.7755652196027594
-1.7755652196027594
-1.7755652196027594
-1.7694107474377496
-1.757101803107758
-1.7694107474377496
-1.7817196917677414
-1.7878741639327511
-1.7755652196027594
-1.7755652196027594
-1.7632562752727399
-1.757101803107758
-1.7632562752727399
-1.7817196917677414
-1.7878741639327511
