4.231199613438097
4.231199613438097
4.237354085603107
4.231199613438097
4.225045141273086
4.231199613438097
4.231199613438097
4.218890669108104
4.157345947458091
4.231199613438097
4.237354085603107
4.237354085603107
4.231199613438097
4.2065817247780855
4.225045141273086
4.225045141273086
4.225045141273086
4.225045141273086
4.237354085603107
4.231199613438097
4.231199613438097
4.237354085603107
4.237354085603107
4.231199613438097
4.237354085603107
4.231199613438097
4.237354085603107
4.237354085603107
4.231199613438097
4.237354085603107
4.249663029933098
4.249663029933098
4.243508557768089
4.243508557768089
4.243508557768089
4.243508557768089
4.237354085603107
4.243508557768089
4.243508557768089
4.261971974263091
4.261971974263091
4.255817502098108
4.249663029933098
4.249663029933098
4.249663029933098
4.255817502098108
4.261971974263091
4.2681264464281
4.261971974263091
4.261971974263091
4.261971974263091
4.261971974263091
4.255817502098108
4.2681264464281
4.261971974263091
4.2681264464281
4.261971974263091
4.261971974263091
4.2681264464281
4.2681264464281
4.261971974263091
4.255817502098108
4.261971974263091
4.261971974263091
4.255817502098108
4.249663029933098
4.255817502098108
4.243508557768089
4.249663029933098
4.237354085603107
4.237354085603107
4.231199613438097
4.231199613438097
4.218890669108104
4.212736196943095
4.2065817247780855
4.212736196943095
4.200427252613103
4.2065817247780855
4.200427252613103
4.188118308283084
4.1942727804480935
4.1942727804480935
4.181963836118102
4.188118308283084
4.188118308283084
4.188118308283084
4.1942727804480935
4.1942727804480935
4.188118308283084
4.1942727804480935
4.181963836118102
4.188118308283084
4.188118308283084
4.1942727804480935
4.1942727804480935
4.188118308283084
4.188118308283084
4.200427252613103
4.200427252613103
4.2065817247780855
4.200427252613103
4.2065817247780855
4.2065817247780855
4.2065817247780855
4.200427252613103
4.200427252613103
4.212736196943095
4.212736196943095
4.200427252613103
4.2065817247780855
4.2065817247780855
4.212736196943095
4.212736196943095
4.2065817247780855
4.2065817247780855
4.2065817247780855
4.200427252613103
4.2065817247780855
4.212736196943095
4.212736196943095
4.2065817247780855
4.212736196943095
4.218890669108104
4.218890669108104
4.218890669108104
4.218890669108104
4.218890669108104
4.218890669108104
4.200427252613103
4.145037003128072
4.225045141273086
4.237354085603107
4.231199613438097
4.231199613438097
4.225045141273086
4.231199613438097
4.225045141273086
4.2065817247780855
4.2065817247780855
4.212736196943095
4.218890669108104
4.218890669108104
4.218890669108104
4.218890669108104
4.200427252613103
4.138882530963089
4.218890669108104
4.243508557768089
4.243508557768089
4.237354085603107
4.237354085603107
4.231199613438097
4.225045141273086
4.212736196943095
4.225045141273086
4.218890669108104
4.225045141273086
4.231199613438097
4.231199613438097
4.231199613438097
4.225045141273086
4.218890669108104
4.225045141273086
4.225045141273086
4.225045141273086
4.225045141273086
4.225045141273086
4.231199613438097
4.218890669108104
4.231199613438097
4.231199613438097
4.225045141273086
4.231199613438097
4.225045141273086
4.225045141273086
4.225045141273086
4.218890669108104
4.225045141273086
4.225045141273086
4.225045141273086
4.231199613438097
4.231199613438097
4.231199613438097
4.231199613438097
4.225045141273086
4.237354085603107
4.237354085603107
4.237354085603107
4.237354085603107
4.237354085603107
4.237354085603107
4.231199613438097
4.231199613438097
4.231199613438097
4.237354085603107
4.243508557768089
4.237354085603107
4.237354085603107
4.237354085603107
4.237354085603107
4.237354085603107
4.237354085603107
4.237354085603107
4.231199613438097
4.237354085603107
4.243508557768089
4.231199613438097
4.231199613438097
4.225045141273086
4.231199613438097
4.237354085603107
4.243508557768089
4.237354085603107
4.243508557768089
4.243508557768089
4.243508557768089
4.255817502098108
4.255817502098108
4.255817502098108
4.255817502098108
4.249663029933098
4.255817502098108
4.255817502098108
4.255817502098108
4.255817502098108
4.249663029933098
4.243508557768089
4.243508557768089
4.231199613438097
4.237354085603107
4.225045141273086
4.225045141273086
4.225045141273086
4.218890669108104
4.212736196943095
4.212736196943095
4.212736196943095
4.212736196943095
4.2065817247780855
4.2065817247780855
4.212736196943095
4.2065817247780855
4.212736196943095
4.218890669108104
4.218890669108104
4.212736196943095
4.212736196943095
4.2065817247780855
4.212736196943095
4.212736196943095
4.1942727804480935
4.145037003128072
4.218890669108104
4.225045141273086
4.212736196943095
4.2065817247780855
4.2065817247780855
4.1942727804480935
4.1942727804480935
4.1942727804480935
4.1942727804480935
4.237354085603107
4.329671168078114
4.458915083543125
4.563541110348153
4.612776887668146
4.588158999008135
4.465069555708134
4.335825640243124
4.231199613438097
4.181963836118102
4.200427252613103
4.2065817247780855
4.212736196943095
4.218890669108104
4.218890669108104
4.212736196943095
4.212736196943095
4.212736196943095
4.212736196943095
4.2065817247780855
4.212736196943095
4.212736196943095
4.218890669108104
4.212736196943095
4.212736196943095
4.212736196943095
4.218890669108104
4.218890669108104
4.212736196943095
4.212736196943095
4.218890669108104
4.212736196943095
4.212736196943095
4.212736196943095
4.218890669108104
4.218890669108104
4.218890669108104
4.218890669108104
4.218890669108104
4.218890669108104
4.218890669108104
4.225045141273086
4.225045141273086
4.231199613438097
4.231199613438097
4.225045141273086
4.231199613438097
4.231199613438097
4.231199613438097
4.231199613438097
4.231199613438097
4.231199613438097
4.237354085603107
4.237354085603107
4.249663029933098
4.237354085603107
4.243508557768089
4.237354085603107
4.243508557768089
4.249663029933098
4.243508557768089
4.243508557768089
4.249663029933098
4.255817502098108
4.261971974263091
4.261971974263091
4.2681264464281
4.261971974263091
4.261971974263091
4.261971974263091
4.2681264464281
4.261971974263091
4.2681264464281
4.261971974263091
4.261971974263091
4.2681264464281
4.2681264464281
4.249663029933098
4.249663029933098
4.255817502098108
4.255817502098108
4.249663029933098
4.243508557768089
4.243508557768089
4.243508557768089
4.237354085603107
4.231199613438097
4.218890669108104
4.212736196943095
4.218890669108104
4.218890669108104
4.218890669108104
4.212736196943095
4.212736196943095
4.2065817247780855
4.1942727804480935
4.1942727804480935
4.2065817247780855
4.200427252613103
4.1942727804480935
4.2065817247780855
4.200427252613103
4.2065817247780855
4.1942727804480935
4.2065817247780855
4.2065817247780855
4.2065817247780855
4.200427252613103
4.2065817247780855
4.2065817247780855
4.1942727804480935
4.181963836118102
4.138882530963089
4.200427252613103
4.218890669108104
4.2065817247780855
4.212736196943095
4.2065817247780855
4.1942727804480935
4.181963836118102
4.1942727804480935
4.2065817247780855
4.200427252613103
4.2065817247780855
4.2065817247780855
4.2065817247780855
4.2065817247780855
4.2065817247780855
4.2065817247780855
4.212736196943095
4.212736196943095
4.218890669108104
4.212736196943095
4.218890669108104
4.212736196943095
4.212736196943095
4.212736196943095
4.218890669108104
4.218890669108104
4.225045141273086
4.225045141273086
4.225045141273086
4.218890669108104
4.218890669108104
4.225045141273086
4.225045141273086
4.231199613438097
4.237354085603107
4.231199613438097
4.231199613438097
4.225045141273086
4.231199613438097
4.237354085603107
4.231199613438097
4.225045141273086
4.231199613438097
4.231199613438097
4.231199613438097
4.225045141273086
4.231199613438097
4.231199613438097
4.231199613438097
4.225045141273086
4.225045141273086
4.231199613438097
4.218890669108104
4.212736196943095
4.225045141273086
4.225045141273086
4.231199613438097
4.231199613438097
4.231199613438097
4.225045141273086
4.218890669108104
4.225045141273086
4.225045141273086
4.225045141273086
4.225045141273086
4.225045141273086
4.225045141273086
4.231199613438097
4.231199613438097
4.231199613438097
4.237354085603107
4.237354085603107
4.237354085603107
4.237354085603107
4.231199613438097
4.237354085603107
4.237354085603107
4.237354085603107
4.237354085603107
4.237354085603107
4.243508557768089
4.237354085603107
4.237354085603107
4.218890669108104
4.163500419623101
4.237354085603107
4.243508557768089
4.255817502098108
4.249663029933098
4.243508557768089
4.243508557768089
4.231199613438097
4.218890669108104
4.231199613438097
4.237354085603107
4.231199613438097
4.237354085603107
4.243508557768089
4.243508557768089
4.237354085603107
4.237354085603107
4.237354085603107
4.243508557768089
4.249663029933098
4.249663029933098
4.255817502098108
4.255817502098108
4.249663029933098
4.255817502098108
4.255817502098108
4.261971974263091
4.2681264464281
4.261971974263091
4.255817502098108
4.255817502098108
4.243508557768089
4.243508557768089
4.249663029933098
4.243508557768089
4.249663029933098
4.218890669108104
4.169654891788083
4.218890669108104
4.212736196943095
4.212736196943095
4.212736196943095
4.218890669108104
4.212736196943095
4.218890669108104
4.218890669108104
4.212736196943095
4.200427252613103
4.212736196943095
4.218890669108104
4.212736196943095
4.2065817247780855
4.212736196943095
4.2065817247780855
4.212736196943095
4.200427252613103
4.200427252613103
4.2065817247780855
4.2065817247780855
4.212736196943095
4.212736196943095
4.2065817247780855
4.188118308283084
4.181963836118102
4.1942727804480935
4.200427252613103
4.255817502098108
4.366598001068117
4.471224027873144
4.52661427735815
4.5327687495231315
4.465069555708134
4.341980112408105
4.237354085603107
4.157345947458091
4.145037003128072
4.157345947458091
4.163500419623101
4.1758093639530935
4.181963836118102
4.188118308283084
4.188118308283084
4.1942727804480935
4.188118308283084
4.188118308283084
4.181963836118102
4.1758093639530935
4.181963836118102
4.188118308283084
4.188118308283084
4.181963836118102
4.181963836118102
4.181963836118102
4.200427252613103
4.181963836118102
4.188118308283084
4.188118308283084
4.181963836118102
4.1942727804480935
4.181963836118102
4.188118308283084
4.188118308283084
4.188118308283084
4.188118308283084
4.200427252613103
4.200427252613103
4.1942727804480935
4.200427252613103
4.1942727804480935
4.188118308283084
4.1942727804480935
4.2065817247780855
4.2065817247780855
4.2065817247780855
4.200427252613103
4.2065817247780855
4.200427252613103
4.200427252613103
4.200427252613103
4.212736196943095
4.2065817247780855
4.212736196943095
4.2065817247780855
4.212736196943095
4.2065817247780855
4.2065817247780855
4.212736196943095
4.218890669108104
4.225045141273086
4.218890669108104
4.218890669108104
4.231199613438097
4.225045141273086
4.225045141273086
4.237354085603107
4.237354085603107
4.237354085603107
4.231199613438097
4.243508557768089
4.237354085603107
4.243508557768089
4.243508557768089
4.237354085603107
4.243508557768089
4.237354085603107
4.237354085603107
4.231199613438097
4.225045141273086
4.218890669108104
4.218890669108104
4.218890669108104
4.2065817247780855
4.200427252613103
4.200427252613103
4.1942727804480935
4.188118308283084
4.181963836118102
4.181963836118102
4.169654891788083
4.114264642303079
4.181963836118102
4.1942727804480935
4.181963836118102
4.1758093639530935
4.163500419623101
4.157345947458091
4.1758093639530935
4.181963836118102
4.1758093639530935
4.181963836118102
4.188118308283084
4.181963836118102
4.181963836118102
4.188118308283084
4.188118308283084
4.181963836118102
4.188118308283084
4.188118308283084
4.181963836118102
4.181963836118102
4.188118308283084
4.188118308283084
4.1942727804480935
4.1942727804480935
4.1942727804480935
4.1942727804480935
4.1942727804480935
4.1942727804480935
4.1942727804480935
4.1942727804480935
4.200427252613103
4.2065817247780855
4.200427252613103
4.1942727804480935
4.200427252613103
4.1942727804480935
4.200427252613103
4.1942727804480935
4.1942727804480935
4.2065817247780855
4.200427252613103
4.200427252613103
4.2065817247780855
4.200427252613103
4.200427252613103
4.200427252613103
4.212736196943095
4.212736196943095
4.212736196943095
4.2065817247780855
4.2065817247780855
4.218890669108104
4.212736196943095
4.212736196943095
4.218890669108104
4.225045141273086
4.225045141273086
4.237354085603107
4.225045141273086
4.218890669108104
4.225045141273086
4.237354085603107
4.231199613438097
4.231199613438097
4.237354085603107
4.249663029933098
4.231199613438097
4.237354085603107
4.249663029933098
4.249663029933098
4.237354085603107
4.243508557768089
4.249663029933098
4.249663029933098
4.231199613438097
4.225045141273086
4.243508557768089
4.237354085603107
4.249663029933098
4.249663029933098
4.243508557768089
4.243508557768089
4.237354085603107
4.231199613438097
4.237354085603107
4.231199613438097
4.237354085603107
4.237354085603107
4.231199613438097
4.231199613438097
4.225045141273086
4.231199613438097
4.237354085603107
4.237354085603107
4.231199613438097
4.231199613438097
4.231199613438097
4.231199613438097
4.225045141273086
4.231199613438097
4.231199613438097
4.231199613438097
4.218890669108104
4.218890669108104
4.218890669108104
4.225045141273086
4.212736196943095
4.218890669108104
4.212736196943095
4.218890669108104
4.225045141273086
4.2065817247780855
4.212736196943095
4.218890669108104
4.2065817247780855
4.212736196943095
4.218890669108104
4.212736196943095
4.212736196943095
4.212736196943095
4.1942727804480935
4.1327280587980795
4.188118308283084
4.200427252613103
4.2065817247780855
4.225045141273086
4.218890669108104
4.212736196943095
4.218890669108104
4.212736196943095
4.212736196943095
4.218890669108104
4.225045141273086
4.237354085603107
4.225045141273086
4.231199613438097
4.237354085603107
4.231199613438097
4.218890669108104
4.218890669108104
4.218890669108104
4.218890669108104
4.218890669108104
4.237354085603107
4.231199613438097
4.218890669108104
4.212736196943095
4.2065817247780855
4.212736196943095
4.2065817247780855
4.200427252613103
4.2065817247780855
4.188118308283084
4.120419114468088
4.1942727804480935
4.212736196943095
4.212736196943095
4.212736196943095
4.200427252613103
4.2065817247780855
4.188118308283084
4.1758093639530935
4.181963836118102
4.200427252613103
4.1942727804480935
4.200427252613103
4.200427252613103
4.200427252613103
4.188118308283084
4.181963836118102
4.169654891788083
4.1758093639530935
4.181963836118102
4.225045141273086
4.3173622237481215
4.446606139213133
4.538923221688139
4.563541110348153
4.551232166018132
4.415833778388112
4.2865898629231
4.188118308283084
4.151191475293081
4.163500419623101
4.163500419623101
4.181963836118102
4.181963836118102
4.181963836118102
4.181963836118102
4.181963836118102
4.181963836118102
4.1758093639530935
4.169654891788083
4.1758093639530935
4.169654891788083
4.1758093639530935
4.1758093639530935
4.1758093639530935
4.169654891788083
4.169654891788083
4.169654891788083
4.1758093639530935
4.181963836118102
4.181963836118102
4.181963836118102
4.1758093639530935
4.169654891788083
4.169654891788083
4.169654891788083
4.181963836118102
4.188118308283084
4.188118308283084
4.1942727804480935
4.188118308283084
4.181963836118102
4.181963836118102
4.1758093639530935
4.181963836118102
4.188118308283084
4.181963836118102
4.181963836118102
4.181963836118102
4.188118308283084
4.181963836118102
4.188118308283084
4.1942727804480935
4.1942727804480935
4.1942727804480935
4.188118308283084
4.188118308283084
4.1942727804480935
4.188118308283084
4.1942727804480935
4.2065817247780855
4.200427252613103
4.200427252613103
4.212736196943095
4.212736196943095
4.212736196943095
4.2065817247780855
4.212736196943095
4.218890669108104
4.200427252613103
4.157345947458091
4.225045141273086
4.231199613438097
4.225045141273086
4.200427252613103
4.218890669108104
4.218890669108104
4.218890669108104
4.218890669108104
4.218890669108104
4.225045141273086
4.218890669108104
4.2065817247780855
4.200427252613103
4.200427252613103
4.2065817247780855
4.1942727804480935
4.188118308283084
4.1942727804480935
4.1758093639530935
4.181963836118102
4.1758093639530935
4.1758093639530935
4.1758093639530935
4.169654891788083
4.1758093639530935
4.169654891788083
4.1758093639530935
4.169654891788083
4.169654891788083
4.169654891788083
4.169654891788083
4.1758093639530935
4.1758093639530935
4.163500419623101
4.157345947458091
4.169654891788083
4.1758093639530935
4.181963836118102
4.1758093639530935
4.181963836118102
4.1758093639530935
4.181963836118102
4.1758093639530935
4.181963836118102
4.181963836118102
4.188118308283084
4.181963836118102
4.188118308283084
4.181963836118102
4.1758093639530935
4.1758093639530935
4.181963836118102
4.188118308283084
4.188118308283084
4.1942727804480935
4.188118308283084
4.1942727804480935
4.181963836118102
4.1942727804480935
4.200427252613103
4.1942727804480935
4.1942727804480935
4.188118308283084
4.200427252613103
4.200427252613103
4.1942727804480935
4.1942727804480935
4.200427252613103
4.2065817247780855
4.2065817247780855
4.200427252613103
4.2065817247780855
4.200427252613103
4.2065817247780855
4.212736196943095
4.2065817247780855
4.2065817247780855
4.200427252613103
4.2065817247780855
4.212736196943095
4.2065817247780855
4.200427252613103
4.2065817247780855
4.218890669108104
4.218890669108104
4.218890669108104
4.225045141273086
4.218890669108104
4.212736196943095
4.218890669108104
4.218890669108104
4.218890669108104
4.212736196943095
4.218890669108104
4.225045141273086
4.225045141273086
4.218890669108104
4.237354085603107
4.243508557768089
4.243508557768089
4.255817502098108
4.261971974263091
4.255817502098108
4.261971974263091
4.261971974263091
4.261971974263091
4.2681264464281
4.27428091859311
4.2681264464281
4.261971974263091
4.2681264464281
4.261971974263091
4.255817502098108
4.261971974263091
4.261971974263091
4.261971974263091
4.2681264464281
4.255817502098108
4.261971974263091
4.255817502098108
4.243508557768089
4.1942727804480935
4.261971974263091
4.27428091859311
4.2681264464281
4.261971974263091
4.255817502098108
4.255817502098108
4.243508557768089
4.249663029933098
4.261971974263091
4.261971974263091
4.261971974263091
4.261971974263091
4.261971974263091
4.2681264464281
4.255817502098108
4.261971974263091
4.27428091859311
4.27428091859311
4.27428091859311
4.261971974263091
4.261971974263091
4.261971974263091
4.261971974263091
4.2681264464281
4.261971974263091
4.261971974263091
4.261971974263091
4.261971974263091
4.261971974263091
4.255817502098108
4.249663029933098
4.2681264464281
4.2681264464281
4.27428091859311
4.27428091859311
4.27428091859311
4.27428091859311
4.2681264464281
4.2681264464281
4.2681264464281
4.280435390758093
4.280435390758093
4.27428091859311
4.2681264464281
4.2681264464281
4.255817502098108
4.249663029933098
4.249663029933098
4.255817502098108
4.261971974263091
4.255817502098108
4.255817502098108
4.237354085603107
4.237354085603107
4.231199613438097
4.237354085603107
4.237354085603107
4.231199613438097
4.231199613438097
4.237354085603107
4.237354085603107
4.225045141273086
4.218890669108104
4.225045141273086
4.225045141273086
4.231199613438097
4.225045141273086
4.231199613438097
4.225045141273086
4.218890669108104
4.225045141273086
4.225045141273086
4.218890669108104
4.225045141273086
4.218890669108104
4.212736196943095
4.200427252613103
4.200427252613103
4.2065817247780855
4.231199613438097
4.305053279418103
4.40967930622313
4.514305333028129
4.569695582513134
4.563541110348153
4.471224027873144
4.341980112408105
4.237354085603107
4.163500419623101
4.163500419623101
4.181963836118102
4.181963836118102
4.181963836118102
4.1942727804480935
4.200427252613103
4.2065817247780855
4.2065817247780855
4.212736196943095
4.212736196943095
4.188118308283084
4.12657358663307
4.1942727804480935
4.2065817247780855
4.212736196943095
4.212736196943095
4.2065817247780855
4.200427252613103
4.188118308283084
4.181963836118102
4.188118308283084
4.200427252613103
4.1942727804480935
4.1942727804480935
4.200427252613103
4.200427252613103
4.1942727804480935
4.188118308283084
4.1942727804480935
4.1942727804480935
4.1942727804480935
4.181963836118102
4.1327280587980795
4.200427252613103
4.1942727804480935
4.181963836118102
4.200427252613103
4.2065817247780855
4.2065817247780855
4.2065817247780855
4.200427252613103
4.2065817247780855
4.1942727804480935
4.2065817247780855
4.2065817247780855
4.2065817247780855
4.218890669108104
4.212736196943095
4.218890669108104
4.218890669108104
4.2065817247780855
4.218890669108104
4.225045141273086
4.225045141273086
4.225045141273086
4.231199613438097
4.225045141273086
4.231199613438097
4.231199613438097
4.243508557768089
4.237354085603107
4.231199613438097
4.237354085603107
4.237354085603107
4.231199613438097
4.231199613438097
4.231199613438097
4.231199613438097
4.237354085603107
4.225045141273086
4.225045141273086
4.218890669108104
4.218890669108104
4.2065817247780855
4.200427252613103
4.200427252613103
4.188118308283084
4.188118308283084
4.181963836118102
4.181963836118102
4.1758093639530935
4.163500419623101
4.169654891788083
4.169654891788083
4.169654891788083
4.1758093639530935
4.181963836118102
4.1758093639530935
4.163500419623101
4.157345947458091
4.163500419623101
4.151191475293081
4.157345947458091
4.169654891788083
4.163500419623101
4.163500419623101
4.169654891788083
4.163500419623101
4.157345947458091
4.163500419623101
4.163500419623101
4.163500419623101
4.163500419623101
4.1758093639530935
4.169654891788083
4.157345947458091
4.169654891788083
4.169654891788083
4.163500419623101
4.157345947458091
4.157345947458091
4.169654891788083
4.169654891788083
4.157345947458091
4.163500419623101
4.163500419623101
4.169654891788083
4.163500419623101
4.169654891788083
4.163500419623101
4.169654891788083
4.163500419623101
4.163500419623101
4.169654891788083
4.1758093639530935
4.169654891788083
4.1758093639530935
4.163500419623101
4.157345947458091
4.157345947458091
4.163500419623101
4.163500419623101
4.157345947458091
4.151191475293081
4.151191475293081
4.151191475293081
4.145037003128072
4.151191475293081
4.157345947458091
4.157345947458091
4.151191475293081
4.157345947458091
4.157345947458091
4.151191475293081
4.157345947458091
4.157345947458091
4.151191475293081
4.151191475293081
4.145037003128072
4.151191475293081
4.157345947458091
4.163500419623101
4.157345947458091
4.1327280587980795
4.0711833371480655
4.151191475293081
4.157345947458091
4.157345947458091
4.151191475293081
4.138882530963089
4.12657358663307
4.138882530963089
4.138882530963089
4.1327280587980795
4.1327280587980795
4.138882530963089
4.1327280587980795
4.138882530963089
4.138882530963089
4.1327280587980795
4.138882530963089
4.145037003128072
4.145037003128072
4.145037003128072
4.145037003128072
4.1327280587980795
4.138882530963089
4.138882530963089
4.138882530963089
4.138882530963089
4.1327280587980795
4.1327280587980795
4.145037003128072
4.138882530963089
4.145037003128072
4.145037003128072
4.138882530963089
4.138882530963089
4.145037003128072
4.145037003128072
4.138882530963089
4.1327280587980795
4.1327280587980795
4.138882530963089
4.138882530963089
4.1327280587980795
4.1327280587980795
4.138882530963089
4.1327280587980795
4.138882530963089
4.151191475293081
4.145037003128072
4.138882530963089
4.145037003128072
4.138882530963089
4.145037003128072
4.138882530963089
4.145037003128072
4.151191475293081
4.151191475293081
4.145037003128072
4.145037003128072
4.1327280587980795
4.145037003128072
4.138882530963089
4.138882530963089
4.138882530963089
4.145037003128072
4.163500419623101
4.169654891788083
4.163500419623101
4.151191475293081
4.157345947458091
4.157345947458091
4.163500419623101
4.163500419623101
4.163500419623101
4.169654891788083
4.169654891788083
4.1758093639530935
4.157345947458091
4.157345947458091
4.157345947458091
4.157345947458091
4.151191475293081
4.163500419623101
4.163500419623101
4.151191475293081
4.138882530963089
4.138882530963089
4.12657358663307
4.12657358663307
4.138882530963089
4.138882530963089
4.138882530963089
4.138882530963089
4.138882530963089
4.1327280587980795
4.1327280587980795
4.1327280587980795
4.12657358663307
4.138882530963089
4.138882530963089
4.1327280587980795
4.12657358663307
4.1327280587980795
4.1327280587980795
4.1327280587980795
4.12657358663307
4.12657358663307
4.138882530963089
4.138882530963089
4.1327280587980795
4.120419114468088
4.114264642303079
4.12657358663307
4.169654891788083
4.27428091859311
4.37890694539811
4.477378500038126
4.508150860863147
4.471224027873144
4.341980112408105
4.218890669108104
4.120419114468088
4.065028864983084
4.028102031993082
4.083492281478085
4.108110170138069
4.114264642303079
4.114264642303079
4.120419114468088
4.120419114468088
4.120419114468088
4.120419114468088
4.114264642303079
4.1327280587980795
4.1327280587980795
4.120419114468088
4.120419114468088
4.120419114468088
4.12657358663307
4.1327280587980795
4.12657358663307
4.1327280587980795
4.1327280587980795
4.12657358663307
4.1327280587980795
4.12657358663307
4.1327280587980795
4.120419114468088
4.12657358663307
4.1327280587980795
4.1327280587980795
4.12657358663307
4.1327280587980795
4.138882530963089
4.138882530963089
4.138882530963089
4.145037003128072
4.145037003128072
4.145037003128072
4.145037003128072
4.151191475293081
4.145037003128072
4.138882530963089
4.145037003128072
4.145037003128072
4.145037003128072
4.157345947458091
4.151191475293081
4.151191475293081
4.151191475293081
4.151191475293081
4.077337809313075
4.163500419623101
4.181963836118102
4.1758093639530935
4.1758093639530935
4.181963836118102
4.188118308283084
4.1758093639530935
4.163500419623101
4.181963836118102
4.181963836118102
4.181963836118102
4.188118308283084
4.188118308283084
4.188118308283084
4.1942727804480935
4.181963836118102
4.188118308283084
4.188118308283084
4.181963836118102
4.188118308283084
4.1942727804480935
4.188118308283084
4.1758093639530935
4.1758093639530935
4.181963836118102
4.1758093639530935
4.163500419623101
4.163500419623101
4.157345947458091
4.157345947458091
4.145037003128072
4.151191475293081
4.163500419623101
4.157345947458091
4.145037003128072
4.145037003128072
4.145037003128072
4.145037003128072
4.1327280587980795
4.145037003128072
4.145037003128072
4.138882530963089
4.138882530963089
4.138882530963089
4.145037003128072
4.12657358663307
4.12657358663307
4.12657358663307
4.12657358663307
4.138882530963089
4.138882530963089
4.1327280587980795
4.138882530963089
4.138882530963089
4.145037003128072
4.145037003128072
4.138882530963089
4.145037003128072
4.145037003128072
4.151191475293081
4.151191475293081
4.145037003128072
4.151191475293081
4.157345947458091
4.157345947458091
4.157345947458091
4.157345947458091
4.157345947458091
4.157345947458091
4.151191475293081
4.151191475293081
4.151191475293081
4.145037003128072
4.089646753643067
4.163500419623101
4.163500419623101
4.157345947458091
4.145037003128072
4.151191475293081
4.157345947458091
4.157345947458091
4.163500419623101
4.163500419623101
4.157345947458091
4.151191475293081
4.145037003128072
4.151191475293081
4.151191475293081
4.157345947458091
4.157345947458091
4.157345947458091
4.163500419623101
4.157345947458091
4.157345947458091
4.157345947458091
4.163500419623101
4.157345947458091
4.157345947458091
4.163500419623101
4.163500419623101
4.163500419623101
4.157345947458091
4.151191475293081
4.157345947458091
4.163500419623101
4.169654891788083
4.169654891788083
4.169654891788083
4.163500419623101
4.163500419623101
4.169654891788083
4.163500419623101
4.169654891788083
4.163500419623101
4.169654891788083
4.169654891788083
4.163500419623101
4.169654891788083
4.169654891788083
4.163500419623101
4.163500419623101
4.169654891788083
4.169654891788083
4.163500419623101
4.163500419623101
4.169654891788083
4.169654891788083
4.181963836118102
4.169654891788083
4.1758093639530935
4.1758093639530935
4.169654891788083
4.169654891788083
4.169654891788083
4.169654891788083
4.169654891788083
4.163500419623101
4.1758093639530935
4.181963836118102
4.181963836118102
4.169654891788083
4.1758093639530935
4.181963836118102
4.1758093639530935
4.1758093639530935
4.1758093639530935
4.181963836118102
4.1758093639530935
4.1758093639530935
4.1758093639530935
4.169654891788083
4.1758093639530935
4.1758093639530935
4.1758093639530935
4.163500419623101
4.163500419623101
4.169654891788083
4.163500419623101
4.169654891788083
4.1758093639530935
4.181963836118102
4.1758093639530935
4.169654891788083
4.169654891788083
4.1758093639530935
4.169654891788083
4.181963836118102
4.1758093639530935
4.1758093639530935
4.188118308283084
4.181963836118102
4.1758093639530935
4.1758093639530935
4.181963836118102
4.1758093639530935
4.188118308283084
4.1942727804480935
4.1942727804480935
4.188118308283084
4.181963836118102
4.181963836118102
4.181963836118102
4.188118308283084
4.181963836118102
4.169654891788083
4.169654891788083
4.169654891788083
4.157345947458091
4.157345947458091
4.151191475293081
4.145037003128072
4.151191475293081
4.151191475293081
4.151191475293081
4.1327280587980795
4.077337809313075
4.151191475293081
4.163500419623101
4.157345947458091
4.157345947458091
4.157345947458091
4.163500419623101
4.138882530963089
4.138882530963089
4.145037003128072
4.157345947458091
4.157345947458091
4.163500419623101
4.151191475293081
4.151191475293081
4.151191475293081
4.151191475293081
4.151191475293081
4.145037003128072
4.138882530963089
4.145037003128072
4.169654891788083
4.261971974263091
4.37890694539811
4.501996388698137
4.563541110348153
4.551232166018132
4.440451667048122
4.305053279418103
4.188118308283084
4.120419114468088
4.1327280587980795
4.145037003128072
4.157345947458091
4.163500419623101
4.163500419623101
4.157345947458091
4.157345947458091
4.145037003128072
4.138882530963089
4.145037003128072
4.151191475293081
4.157345947458091
4.157345947458091
4.151191475293081
4.151191475293081
4.151191475293081
4.157345947458091
4.157345947458091
4.163500419623101
4.163500419623101
4.163500419623101
4.157345947458091
4.151191475293081
4.145037003128072
4.157345947458091
4.157345947458091
4.157345947458091
4.163500419623101
4.169654891788083
4.163500419623101
4.169654891788083
4.163500419623101
4.157345947458091
4.169654891788083
4.169654891788083
4.169654891788083
4.169654891788083
4.157345947458091
4.157345947458091
4.163500419623101
4.1758093639530935
4.169654891788083
4.1758093639530935
4.1758093639530935
4.1758093639530935
4.169654891788083
4.169654891788083
4.163500419623101
4.1758093639530935
4.181963836118102
4.181963836118102
4.188118308283084
4.188118308283084
4.1942727804480935
4.181963836118102
4.188118308283084
4.1942727804480935
4.188118308283084
4.1942727804480935
4.1942727804480935
4.200427252613103
4.1942727804480935
4.1942727804480935
4.1942727804480935
4.1942727804480935
4.1942727804480935
4.1942727804480935
4.1942727804480935
4.1942727804480935
4.1942727804480935
4.188118308283084
4.188118308283084
4.188118308283084
4.181963836118102
4.181963836118102
4.169654891788083
4.169654891788083
4.157345947458091
4.157345947458091
4.157345947458091
4.157345947458091
4.157345947458091
4.151191475293081
4.145037003128072
4.151191475293081
4.138882530963089
4.052719920653064
4.12657358663307
4.157345947458091
4.151191475293081
4.1327280587980795
4.065028864983084
4.1327280587980795
4.145037003128072
4.120419114468088
4.12657358663307
4.138882530963089
4.145037003128072
4.145037003128072
4.145037003128072
4.151191475293081
4.145037003128072
4.151191475293081
4.145037003128072
4.145037003128072
4.145037003128072
4.145037003128072
4.151191475293081
4.157345947458091
4.151191475293081
4.151191475293081
4.151191475293081
4.157345947458091
4.157345947458091
4.157345947458091
4.157345947458091
4.163500419623101
4.151191475293081
4.157345947458091
4.157345947458091
4.145037003128072
4.151191475293081
4.157345947458091
4.163500419623101
4.163500419623101
4.157345947458091
4.169654891788083
4.169654891788083
4.163500419623101
4.163500419623101
4.169654891788083
4.1758093639530935
4.1758093639530935
4.1758093639530935
4.169654891788083
4.1758093639530935
4.169654891788083
4.163500419623101
4.169654891788083
4.169654891788083
4.163500419623101
4.163500419623101
4.163500419623101
4.163500419623101
4.157345947458091
4.163500419623101
4.1758093639530935
4.169654891788083
4.169654891788083
4.169654891788083
4.1758093639530935
4.1758093639530935
4.163500419623101
4.169654891788083
4.163500419623101
4.181963836118102
4.169654891788083
4.181963836118102
4.169654891788083
4.169654891788083
4.1758093639530935
4.1758093639530935
4.1758093639530935
4.1758093639530935
4.1758093639530935
4.181963836118102
4.181963836118102
4.169654891788083
4.181963836118102
4.181963836118102
4.181963836118102
4.1758093639530935
4.181963836118102
4.188118308283084
4.181963836118102
4.188118308283084
4.181963836118102
4.181963836118102
4.188118308283084
4.1942727804480935
4.188118308283084
4.181963836118102
4.188118308283084
4.1942727804480935
4.1942727804480935
4.188118308283084
4.188118308283084
4.1942727804480935
4.181963836118102
4.188118308283084
4.1942727804480935
4.188118308283084
4.188118308283084
4.1942727804480935
4.200427252613103
4.188118308283084
4.188118308283084
4.188118308283084
4.1942727804480935
4.188118308283084
4.188118308283084
4.1942727804480935
4.188118308283084
4.188118308283084
4.1942727804480935
4.200427252613103
4.200427252613103
4.200427252613103
4.200427252613103
4.188118308283084
4.188118308283084
4.188118308283084
4.181963836118102
4.12657358663307
4.2065817247780855
4.218890669108104
4.212736196943095
4.212736196943095
4.212736196943095
4.1942727804480935
4.200427252613103
4.212736196943095
4.212736196943095
4.212736196943095
4.218890669108104
4.218890669108104
4.212736196943095
4.212736196943095
4.218890669108104
4.212736196943095
4.218890669108104
4.218890669108104
4.212736196943095
4.2065817247780855
4.200427252613103
4.212736196943095
4.218890669108104
4.2065817247780855
4.2065817247780855
4.200427252613103
4.1942727804480935
4.1942727804480935
4.181963836118102
4.1942727804480935
4.200427252613103
4.200427252613103
4.200427252613103
4.200427252613103
4.200427252613103
4.200427252613103
4.1942727804480935
4.1942727804480935
4.1942727804480935
4.200427252613103
4.200427252613103
4.1942727804480935
4.188118308283084
4.1942727804480935
4.188118308283084
4.1942727804480935
4.1942727804480935
4.1942727804480935
4.1758093639530935
4.1758093639530935
4.1758093639530935
4.200427252613103
4.298898807253093
4.434297194883113
4.551232166018132
4.6004679433381535
4.588158999008135
4.465069555708134
4.329671168078114
4.218890669108104
4.151191475293081
4.163500419623101
4.1758093639530935
4.188118308283084
4.200427252613103
4.200427252613103
4.2065817247780855
4.200427252613103
4.1942727804480935
4.1942727804480935
4.200427252613103
4.1942727804480935
4.1942727804480935
4.188118308283084
4.188118308283084
4.1942727804480935
4.2065817247780855
4.200427252613103
4.212736196943095
4.2065817247780855
4.212736196943095
4.212736196943095
4.2065817247780855
4.2065817247780855
4.2065817247780855
4.200427252613103
4.212736196943095
4.2065817247780855
4.2065817247780855
4.212736196943095
4.212736196943095
4.1942727804480935
4.2065817247780855
4.218890669108104
4.212736196943095
4.218890669108104
4.218890669108104
4.218890669108104
4.218890669108104
4.212736196943095
4.218890669108104
4.218890669108104
4.218890669108104
4.2065817247780855
4.212736196943095
4.225045141273086
4.237354085603107
4.231199613438097
4.237354085603107
4.237354085603107
4.249663029933098
4.249663029933098
4.243508557768089
4.243508557768089
4.243508557768089
4.255817502098108
4.261971974263091
4.261971974263091
4.255817502098108
4.261971974263091
4.243508557768089
4.1942727804480935
4.249663029933098
4.249663029933098
4.249663029933098
4.261971974263091
4.261971974263091
4.261971974263091
4.255817502098108
4.255817502098108
4.243508557768089
4.237354085603107
4.237354085603107
4.243508557768089
4.237354085603107
4.237354085603107
4.231199613438097
4.225045141273086
4.2065817247780855
4.218890669108104
4.212736196943095
4.2065817247780855
4.200427252613103
4.2065817247780855
4.200427252613103
4.200427252613103
4.200427252613103
4.200427252613103
4.200427252613103
4.200427252613103
4.2065817247780855
4.2065817247780855
4.2065817247780855
4.200427252613103
4.200427252613103
4.200427252613103
4.200427252613103
4.200427252613103
4.2065817247780855
4.218890669108104
4.2065817247780855
4.2065817247780855
4.200427252613103
4.212736196943095
4.200427252613103
4.1942727804480935
4.200427252613103
4.200427252613103
4.2065817247780855
4.200427252613103
4.200427252613103
4.200427252613103
4.2065817247780855
4.2065817247780855
4.2065817247780855
4.2065817247780855
4.2065817247780855
4.212736196943095
4.218890669108104
4.212736196943095
4.212736196943095
4.218890669108104
4.225045141273086
4.212736196943095
4.1942727804480935
4.138882530963089
4.218890669108104
4.237354085603107
4.231199613438097
4.225045141273086
4.218890669108104
4.225045141273086
4.212736196943095
4.200427252613103
4.212736196943095
4.212736196943095
4.212736196943095
4.212736196943095
4.218890669108104
4.2065817247780855
4.200427252613103
4.2065817247780855
4.218890669108104
4.225045141273086
4.218890669108104
4.212736196943095
4.212736196943095
4.212736196943095
4.2065817247780855
4.2065817247780855
4.2065817247780855
4.212736196943095
4.2065817247780855
4.218890669108104
4.212736196943095
4.212736196943095
4.2065817247780855
4.2065817247780855
4.212736196943095
4.212736196943095
4.2065817247780855
4.200427252613103
4.2065817247780855
4.200427252613103
4.2065817247780855
4.2065817247780855
4.2065817247780855
4.218890669108104
4.212736196943095
4.212736196943095
4.212736196943095
4.200427252613103
4.2065817247780855
4.212736196943095
4.212736196943095
4.2065817247780855
4.2065817247780855
4.2065817247780855
4.212736196943095
4.212736196943095
4.2065817247780855
4.2065817247780855
4.188118308283084
4.138882530963089
4.200427252613103
4.218890669108104
4.218890669108104
4.200427252613103
4.1942727804480935
4.200427252613103
4.200427252613103
4.2065817247780855
4.200427252613103
4.2065817247780855
4.200427252613103
4.2065817247780855
4.2065817247780855
4.212736196943095
4.212736196943095
4.212736196943095
4.212736196943095
4.200427252613103
4.200427252613103
4.200427252613103
4.200427252613103
4.2065817247780855
4.200427252613103
4.200427252613103
4.2065817247780855
4.2065817247780855
4.200427252613103
4.200427252613103
4.2065817247780855
4.2065817247780855
4.200427252613103
4.1942727804480935
4.1942727804480935
4.200427252613103
4.1942727804480935
4.200427252613103
4.212736196943095
4.212736196943095
4.212736196943095
4.212736196943095
4.2065817247780855
4.2065817247780855
4.212736196943095
4.225045141273086
4.218890669108104
4.225045141273086
4.218890669108104
4.212736196943095
4.212736196943095
4.212736196943095
4.200427252613103
4.2065817247780855
4.2065817247780855
4.2065817247780855
4.1942727804480935
4.188118308283084
4.181963836118102
4.181963836118102
4.1758093639530935
4.169654891788083
4.1758093639530935
4.1758093639530935
4.1758093639530935
4.181963836118102
4.181963836118102
4.188118308283084
4.181963836118102
4.188118308283084
4.188118308283084
4.181963836118102
4.181963836118102
4.1758093639530935
4.181963836118102
4.1758093639530935
4.1758093639530935
4.181963836118102
4.188118308283084
4.181963836118102
4.188118308283084
4.1758093639530935
4.163500419623101
4.157345947458091
4.157345947458091
4.1758093639530935
4.243508557768089
4.3727524732331275
4.489687444368147
4.563541110348153
4.575850054678144
4.471224027873144
4.3173622237481215
4.212736196943095
4.138882530963089
4.138882530963089
4.163500419623101
4.151191475293081
4.157345947458091
4.157345947458091
4.157345947458091
4.157345947458091
4.169654891788083
4.157345947458091
4.163500419623101
4.157345947458091
4.157345947458091
4.157345947458091
4.163500419623101
4.163500419623101
4.163500419623101
4.169654891788083
4.169654891788083
4.169654891788083
4.163500419623101
4.169654891788083
4.169654891788083
4.1758093639530935
4.169654891788083
4.1758093639530935
4.1758093639530935
4.1758093639530935
4.157345947458091
4.101955697973087
4.181963836118102
4.188118308283084
4.181963836118102
4.181963836118102
4.181963836118102
4.181963836118102
4.1942727804480935
4.157345947458091
4.163500419623101
4.169654891788083
4.169654891788083
4.1758093639530935
4.181963836118102
4.181963836118102
4.169654891788083
4.181963836118102
4.181963836118102
4.1942727804480935
4.200427252613103
4.1942727804480935
4.200427252613103
4.1942727804480935
4.1942727804480935
4.200427252613103
4.200427252613103
4.212736196943095
4.200427252613103
4.2065817247780855
4.2065817247780855
4.218890669108104
4.218890669108104
4.212736196943095
4.218890669108104
4.225045141273086
4.218890669108104
4.218890669108104
4.212736196943095
4.218890669108104
4.218890669108104
4.225045141273086
4.225045141273086
4.212736196943095
4.212736196943095
4.2065817247780855
4.2065817247780855
4.1942727804480935
4.1942727804480935
4.181963836118102
4.181963836118102
4.1758093639530935
4.181963836118102
4.181963836118102
4.1758093639530935
4.169654891788083
4.157345947458091
4.163500419623101
4.169654891788083
4.1758093639530935
4.169654891788083
4.169654891788083
4.169654891788083
4.157345947458091
4.157345947458091
4.157345947458091
4.157345947458091
4.157345947458091
4.157345947458091
4.157345947458091
4.157345947458091
4.145037003128072
4.157345947458091
4.157345947458091
4.163500419623101
4.157345947458091
4.157345947458091
4.163500419623101
4.163500419623101
4.151191475293081
4.163500419623101
4.157345947458091
4.157345947458091
4.163500419623101
4.163500419623101
4.163500419623101
4.157345947458091
4.157345947458091
4.157345947458091
4.157345947458091
4.163500419623101
4.169654891788083
4.169654891788083
4.169654891788083
4.163500419623101
4.1758093639530935
4.1758093639530935
4.169654891788083
4.1758093639530935
4.169654891788083
4.1758093639530935
4.1758093639530935
4.1758093639530935
4.169654891788083
4.1758093639530935
4.1758093639530935
4.169654891788083
4.1758093639530935
4.1758093639530935
4.169654891788083
4.157345947458091
4.169654891788083
4.169654891788083
4.169654891788083
4.1758093639530935
4.169654891788083
4.169654891788083
4.169654891788083
4.163500419623101
4.163500419623101
4.169654891788083
4.1758093639530935
4.157345947458091
4.114264642303079
4.1758093639530935
4.1758093639530935
4.163500419623101
4.163500419623101
4.163500419623101
4.169654891788083
4.163500419623101
4.169654891788083
4.169654891788083
4.163500419623101
4.095801225808079
4.163500419623101
4.188118308283084
4.188118308283084
4.188118308283084
4.188118308283084
4.188118308283084
4.1758093639530935
4.157345947458091
4.169654891788083
4.1758093639530935
4.1758093639530935
4.1758093639530935
4.1758093639530935
4.169654891788083
4.163500419623101
4.1758093639530935
4.1758093639530935
4.181963836118102
4.1758093639530935
4.181963836118102
4.1758093639530935
4.181963836118102
4.169654891788083
4.1758093639530935
4.1758093639530935
4.181963836118102
4.181963836118102
4.169654891788083
4.1758093639530935
4.169654891788083
4.163500419623101
4.169654891788083
4.169654891788083
4.169654891788083
4.1758093639530935
4.169654891788083
4.181963836118102
4.1758093639530935
4.169654891788083
4.181963836118102
4.181963836118102
4.1758093639530935
4.1758093639530935
4.1758093639530935
4.181963836118102
4.1758093639530935
4.1758093639530935
4.1758093639530935
4.163500419623101
4.163500419623101
4.1758093639530935
4.181963836118102
4.1758093639530935
4.1758093639530935
4.1758093639530935
4.163500419623101
4.169654891788083
4.169654891788083
4.169654891788083
4.169654891788083
4.1758093639530935
4.181963836118102
4.181963836118102
4.200427252613103
4.1942727804480935
4.1942727804480935
4.188118308283084
4.1942727804480935
4.188118308283084
4.188118308283084
4.1942727804480935
4.200427252613103
4.2065817247780855
4.200427252613103
4.188118308283084
4.181963836118102
4.1758093639530935
4.181963836118102
4.188118308283084
4.181963836118102
4.181963836118102
4.181963836118102
4.1758093639530935
4.163500419623101
4.1758093639530935
4.169654891788083
4.169654891788083
4.163500419623101
4.163500419623101
4.169654891788083
4.163500419623101
4.163500419623101
4.169654891788083
4.169654891788083
4.1758093639530935
4.169654891788083
4.1758093639530935
4.1758093639530935
4.169654891788083
4.181963836118102
4.181963836118102
4.188118308283084
4.2065817247780855
4.2065817247780855
4.2065817247780855
4.200427252613103
4.1942727804480935
4.1942727804480935
4.1942727804480935
4.200427252613103
4.218890669108104
4.415833778388112
4.538923221688139
4.6004679433381535
4.5943134711731455
4.489687444368147
4.3173622237481215
4.2065817247780855
4.145037003128072
4.157345947458091
4.1758093639530935
4.181963836118102
4.188118308283084
4.188118308283084
4.181963836118102
4.1758093639530935
4.181963836118102
4.181963836118102
4.181963836118102
4.1758093639530935
4.169654891788083
4.1758093639530935
4.169654891788083
4.169654891788083
4.1758093639530935
4.181963836118102
4.181963836118102
4.181963836118102
4.1758093639530935
4.1758093639530935
4.1758093639530935
4.188118308283084
4.188118308283084
4.188118308283084
4.181963836118102
4.1758093639530935
4.1758093639530935
4.181963836118102
4.188118308283084
4.181963836118102
4.188118308283084
4.188118308283084
4.181963836118102
4.188118308283084
4.188118308283084
4.181963836118102
4.188118308283084
4.1942727804480935
4.181963836118102
4.188118308283084
4.1942727804480935
4.200427252613103
4.1942727804480935
4.188118308283084
4.200427252613103
4.200427252613103
4.200427252613103
4.2065817247780855
4.200427252613103
4.2065817247780855
4.200427252613103
4.200427252613103
4.212736196943095
4.212736196943095
4.212736196943095
4.225045141273086
4.225045141273086
4.212736196943095
4.2065817247780855
4.2065817247780855
4.218890669108104
4.212736196943095
4.212736196943095
4.212736196943095
4.212736196943095
4.212736196943095
4.212736196943095
4.2065817247780855
4.2065817247780855
4.200427252613103
4.200427252613103
4.1942727804480935
4.181963836118102
4.1758093639530935
4.1758093639530935
4.169654891788083
4.1758093639530935
4.1758093639530935
4.181963836118102
4.169654891788083
4.169654891788083
4.163500419623101
4.145037003128072
4.163500419623101
4.169654891788083
4.163500419623101
4.157345947458091
4.151191475293081
4.151191475293081
4.151191475293081
4.157345947458091
4.157345947458091
4.157345947458091
4.151191475293081
4.151191475293081
4.157345947458091
4.157345947458091
4.157345947458091
4.145037003128072
4.163500419623101
4.163500419623101
4.157345947458091
4.157345947458091
4.157345947458091
4.163500419623101
4.157345947458091
4.157345947458091
4.151191475293081
4.151191475293081
4.163500419623101
4.169654891788083
4.138882530963089
4.095801225808079
4.151191475293081
4.145037003128072
4.151191475293081
4.157345947458091
4.151191475293081
4.163500419623101
4.163500419623101
4.169654891788083
4.157345947458091
4.163500419623101
4.169654891788083
4.163500419623101
4.163500419623101
4.169654891788083
4.169654891788083
4.163500419623101
4.151191475293081
4.151191475293081
4.157345947458091
4.151191475293081
4.151191475293081
4.151191475293081
4.151191475293081
4.151191475293081
4.145037003128072
4.151191475293081
4.145037003128072
4.151191475293081
4.151191475293081
4.151191475293081
4.163500419623101
4.157345947458091
4.145037003128072
4.163500419623101
4.157345947458091
4.151191475293081
4.157345947458091
4.151191475293081
4.163500419623101
4.157345947458091
4.145037003128072
4.157345947458091
4.151191475293081
4.163500419623101
4.157345947458091
4.163500419623101
4.157345947458091
4.163500419623101
4.151191475293081
4.157345947458091
4.163500419623101
4.157345947458091
4.163500419623101
4.157345947458091
4.163500419623101
4.151191475293081
4.151191475293081
4.157345947458091
4.157345947458091
4.151191475293081
4.157345947458091
4.151191475293081
4.151191475293081
4.157345947458091
4.145037003128072
4.151191475293081
4.145037003128072
4.145037003128072
4.151191475293081
4.157345947458091
4.145037003128072
4.151191475293081
4.151191475293081
4.151191475293081
4.151191475293081
4.151191475293081
4.145037003128072
4.145037003128072
4.138882530963089
4.0711833371480655
4.1327280587980795
4.157345947458091
4.157345947458091
4.157345947458091
4.169654891788083
4.169654891788083
4.163500419623101
4.138882530963089
4.151191475293081
4.151191475293081
4.157345947458091
4.157345947458091
4.169654891788083
4.169654891788083
4.151191475293081
4.145037003128072
4.151191475293081
4.163500419623101
4.151191475293081
4.157345947458091
4.151191475293081
4.145037003128072
4.1327280587980795
4.138882530963089
4.138882530963089
4.138882530963089
4.138882530963089
4.145037003128072
4.138882530963089
4.138882530963089
4.12657358663307
4.1327280587980795
4.138882530963089
4.138882530963089
4.145037003128072
4.151191475293081
4.151191475293081
4.151191475293081
4.138882530963089
4.145037003128072
4.1327280587980795
4.077337809313075
4.151191475293081
4.157345947458091
4.157345947458091
4.145037003128072
4.12657358663307
4.1327280587980795
4.120419114468088
4.12657358663307
4.12657358663307
4.1758093639530935
4.280435390758093
4.385061417563119
4.465069555708134
4.501996388698137
4.452760611378115
4.323516695913104
4.2065817247780855
4.12657358663307
4.095801225808079
4.114264642303079
4.12657358663307
4.1327280587980795
4.145037003128072
4.138882530963089
4.138882530963089
4.145037003128072
4.145037003128072
4.145037003128072
4.138882530963089
4.151191475293081
4.145037003128072
4.151191475293081
4.151191475293081
4.151191475293081
4.145037003128072
4.151191475293081
4.151191475293081
4.151191475293081
4.157345947458091
4.151191475293081
4.157345947458091
4.151191475293081
4.151191475293081
4.151191475293081
4.157345947458091
4.163500419623101
4.157345947458091
4.169654891788083
4.169654891788083
4.169654891788083
4.169654891788083
4.157345947458091
4.169654891788083
4.163500419623101
4.169654891788083
4.163500419623101
4.163500419623101
4.163500419623101
4.163500419623101
4.157345947458091
4.163500419623101
4.151191475293081
4.151191475293081
4.169654891788083
4.163500419623101
4.163500419623101
4.169654891788083
4.169654891788083
4.169654891788083
4.1758093639530935
4.1758093639530935
4.181963836118102
4.181963836118102
4.181963836118102
4.181963836118102
4.200427252613103
4.200427252613103
4.188118308283084
4.1942727804480935
4.188118308283084
4.188118308283084
4.188118308283084
4.181963836118102
4.188118308283084
4.188118308283084
4.1942727804480935
4.188118308283084
4.181963836118102
4.181963836118102
4.188118308283084
4.1758093639530935
4.1758093639530935
4.169654891788083
4.1758093639530935
4.169654891788083
4.169654891788083
4.157345947458091
4.157345947458091
4.151191475293081
4.145037003128072
4.145037003128072
4.145037003128072
4.138882530963089
4.138882530963089
4.138882530963089
4.138882530963089
4.138882530963089
4.138882530963089
4.1327280587980795
4.138882530963089
4.1327280587980795
4.138882530963089
4.1327280587980795
4.1327280587980795
4.138882530963089
4.1327280587980795
4.1327280587980795
4.138882530963089
4.138882530963089
4.138882530963089
4.1327280587980795
4.065028864983084
4.145037003128072
4.157345947458091
4.151191475293081
4.151191475293081
4.151191475293081
4.151191475293081
4.145037003128072
4.1327280587980795
4.12657358663307
4.1327280587980795
4.138882530963089
4.145037003128072
4.138882530963089
4.145037003128072
4.151191475293081
4.145037003128072
4.145037003128072
4.151191475293081
4.145037003128072
4.145037003128072
4.157345947458091
4.157345947458091
4.151191475293081
4.145037003128072
4.157345947458091
4.157345947458091
4.145037003128072
4.151191475293081
4.145037003128072
4.151191475293081
4.157345947458091
4.145037003128072
4.145037003128072
4.151191475293081
4.157345947458091
4.157345947458091
4.157345947458091
4.157345947458091
4.151191475293081
4.151191475293081
4.157345947458091
4.157345947458091
4.163500419623101
4.163500419623101
4.157345947458091
4.157345947458091
4.157345947458091
4.157345947458091
4.157345947458091
4.151191475293081
4.151191475293081
4.163500419623101
4.157345947458091
4.163500419623101
4.157345947458091
4.163500419623101
4.157345947458091
4.169654891788083
4.169654891788083
4.163500419623101
4.163500419623101
4.169654891788083
4.157345947458091
4.169654891788083
4.1758093639530935
4.169654891788083
4.169654891788083
4.1758093639530935
4.169654891788083
4.181963836118102
4.169654891788083
4.169654891788083
4.169654891788083
4.1758093639530935
4.181963836118102
4.1758093639530935
4.1758093639530935
4.1758093639530935
4.181963836118102
4.1758093639530935
4.181963836118102
4.1758093639530935
4.1758093639530935
4.1758093639530935
4.181963836118102
4.1758093639530935
4.1758093639530935
4.1758093639530935
4.1758093639530935
4.181963836118102
4.181963836118102
4.169654891788083
4.181963836118102
4.1758093639530935
4.1758093639530935
4.1758093639530935
4.1758093639530935
4.181963836118102
4.1758093639530935
4.181963836118102
4.181963836118102
4.1758093639530935
4.188118308283084
4.188118308283084
4.200427252613103
4.1942727804480935
4.200427252613103
4.2065817247780855
4.200427252613103
4.200427252613103
4.2065817247780855
4.2065817247780855
4.2065817247780855
4.200427252613103
4.212736196943095
4.200427252613103
4.200427252613103
4.1942727804480935
4.188118308283084
4.188118308283084
4.169654891788083
4.114264642303079
4.1758093639530935
4.1758093639530935
4.163500419623101
4.151191475293081
4.157345947458091
4.157345947458091
4.157345947458091
4.157345947458091
4.169654891788083
4.157345947458091
4.157345947458091
4.157345947458091
4.157345947458091
4.163500419623101
4.157345947458091
4.157345947458091
4.151191475293081
4.157345947458091
4.157345947458091
4.157345947458091
4.169654891788083
4.169654891788083
4.157345947458091
4.163500419623101
4.169654891788083
4.151191475293081
4.0711833371480655
4.120419114468088
4.157345947458091
4.157345947458091
4.212736196943095
4.3173622237481215
4.440451667048122
4.5327687495231315
4.5327687495231315
4.495841916533129
4.360443528903107
4.237354085603107
4.145037003128072
4.108110170138069
4.12657358663307
4.1327280587980795
4.138882530963089
4.151191475293081
4.151191475293081
4.145037003128072
4.151191475293081
4.151191475293081
4.138882530963089
4.145037003128072
4.138882530963089
4.145037003128072
4.151191475293081
4.151191475293081
4.145037003128072
4.151191475293081
4.145037003128072
4.145037003128072
4.145037003128072
4.157345947458091
4.157345947458091
4.157345947458091
4.151191475293081
4.157345947458091
4.157345947458091
4.151191475293081
4.151191475293081
4.151191475293081
4.151191475293081
4.163500419623101
4.163500419623101
4.157345947458091
4.169654891788083
4.157345947458091
4.163500419623101
4.169654891788083
4.169654891788083
4.169654891788083
4.169654891788083
4.169654891788083
4.169654891788083
4.1758093639530935
4.1758093639530935
4.1758093639530935
4.181963836118102
4.188118308283084
4.188118308283084
4.181963836118102
4.188118308283084
4.188118308283084
4.1942727804480935
4.1942727804480935
4.1942727804480935
4.1942727804480935
4.2065817247780855
4.200427252613103
4.200427252613103
4.2065817247780855
4.2065817247780855
4.2065817247780855
4.2065817247780855
4.212736196943095
4.218890669108104
4.2065817247780855
4.2065817247780855
4.2065817247780855
4.2065817247780855
4.2065817247780855
4.212736196943095
4.212736196943095
4.212736196943095
4.2065817247780855
4.188118308283084
4.200427252613103
4.1942727804480935
4.188118308283084
4.181963836118102
4.181963836118102
4.1758093639530935
4.1758093639530935
4.157345947458091
4.101955697973087
4.169654891788083
4.1758093639530935
4.169654891788083
4.169654891788083
4.169654891788083
4.157345947458091
4.151191475293081
4.157345947458091
4.151191475293081
4.157345947458091
4.157345947458091
4.157345947458091
4.157345947458091
4.157345947458091
4.157345947458091
4.163500419623101
4.163500419623101
4.163500419623101
4.169654891788083
4.163500419623101
4.169654891788083
4.163500419623101
4.157345947458091
4.163500419623101
4.157345947458091
4.163500419623101
4.157345947458091
4.157345947458091
4.163500419623101
4.151191475293081
4.163500419623101
4.169654891788083
4.163500419623101
4.163500419623101
4.169654891788083
4.169654891788083
4.1758093639530935
4.163500419623101
4.1758093639530935
4.169654891788083
4.169654891788083
4.163500419623101
4.163500419623101
4.157345947458091
4.151191475293081
4.151191475293081
4.157345947458091
4.163500419623101
4.157345947458091
4.169654891788083
4.169654891788083
4.163500419623101
4.157345947458091
4.157345947458091
4.157345947458091
4.163500419623101
4.163500419623101
4.163500419623101
4.169654891788083
4.157345947458091
4.163500419623101
4.157345947458091
4.151191475293081
4.169654891788083
4.163500419623101
4.163500419623101
4.169654891788083
4.1758093639530935
4.163500419623101
4.169654891788083
4.181963836118102
4.1758093639530935
4.169654891788083
4.181963836118102
4.181963836118102
4.1942727804480935
4.1942727804480935
4.2065817247780855
4.200427252613103
4.200427252613103
4.200427252613103
4.212736196943095
4.212736196943095
4.2065817247780855
4.1942727804480935
4.212736196943095
4.212736196943095
4.212736196943095
4.212736196943095
4.2065817247780855
4.2065817247780855
4.212736196943095
4.212736196943095
4.2065817247780855
4.200427252613103
4.2065817247780855
4.200427252613103
4.2065817247780855
4.2065817247780855
4.200427252613103
4.200427252613103
4.2065817247780855
4.200427252613103
4.218890669108104
4.212736196943095
4.2065817247780855
4.2065817247780855
4.2065817247780855
4.212736196943095
4.212736196943095
4.212736196943095
4.2065817247780855
4.2065817247780855
4.2065817247780855
4.1942727804480935
4.200427252613103
4.2065817247780855
4.212736196943095
4.225045141273086
4.212736196943095
4.200427252613103
4.157345947458091
4.225045141273086
4.218890669108104
4.225045141273086
4.218890669108104
4.231199613438097
4.225045141273086
4.231199613438097
4.243508557768089
4.249663029933098
4.243508557768089
4.237354085603107
4.231199613438097
4.225045141273086
4.231199613438097
4.237354085603107
4.243508557768089
4.237354085603107
4.218890669108104
4.218890669108104
4.2065817247780855
4.218890669108104
4.225045141273086
4.231199613438097
4.237354085603107
4.225045141273086
4.218890669108104
4.218890669108104
4.237354085603107
4.231199613438097
4.231199613438097
4.231199613438097
4.231199613438097
4.243508557768089
4.231199613438097
4.237354085603107
4.243508557768089
4.249663029933098
4.249663029933098
4.231199613438097
4.237354085603107
4.237354085603107
4.249663029933098
4.231199613438097
4.225045141273086
4.237354085603107
4.249663029933098
4.280435390758093
4.354289056738125
4.458915083543125
4.551232166018132
4.5820045268431535
4.575850054678144
4.452760611378115
4.329671168078114
4.237354085603107
4.188118308283084
4.200427252613103
4.212736196943095
4.212736196943095
4.225045141273086
4.237354085603107
4.231199613438097
4.231199613438097
4.231199613438097
4.237354085603107
4.237354085603107
4.231199613438097
4.231199613438097
4.225045141273086
4.231199613438097
4.225045141273086
4.218890669108104
4.218890669108104
4.231199613438097
4.231199613438097
4.231199613438097
4.218890669108104
4.212736196943095
4.212736196943095
4.225045141273086
4.225045141273086
4.225045141273086
4.218890669108104
4.218890669108104
4.225045141273086
4.2065817247780855
4.212736196943095
4.212736196943095
4.218890669108104
4.225045141273086
4.218890669108104
4.212736196943095
4.212736196943095
4.218890669108104
4.2065817247780855
4.1327280587980795
4.188118308283084
4.218890669108104
4.212736196943095
4.218890669108104
4.212736196943095
4.212736196943095
4.200427252613103
4.188118308283084
4.1942727804480935
4.2065817247780855
4.212736196943095
4.212736196943095
4.212736196943095
4.2065817247780855
4.212736196943095
4.212736196943095
4.212736196943095
4.212736196943095
4.218890669108104
4.218890669108104
4.212736196943095
4.218890669108104
4.200427252613103
4.2065817247780855
4.200427252613103
4.145037003128072
4.218890669108104
4.218890669108104
4.218890669108104
4.218890669108104
4.1942727804480935
4.1942727804480935
4.1942727804480935
4.200427252613103
4.1942727804480935
4.1942727804480935
4.188118308283084
4.1758093639530935
4.1758093639530935
4.1758093639530935
4.1758093639530935
4.1758093639530935
4.181963836118102
4.1758093639530935
4.169654891788083
4.1758093639530935
4.169654891788083
4.1758093639530935
4.181963836118102
4.181963836118102
4.1758093639530935
4.188118308283084
4.181963836118102
4.181963836118102
4.169654891788083
4.1758093639530935
4.181963836118102
4.181963836118102
4.181963836118102
4.181963836118102
4.181963836118102
4.181963836118102
4.181963836118102
4.1758093639530935
4.1758093639530935
4.181963836118102
4.188118308283084
4.1942727804480935
4.188118308283084
4.181963836118102
4.1942727804480935
4.1942727804480935
4.1942727804480935
4.200427252613103
4.200427252613103
4.200427252613103
4.1942727804480935
4.200427252613103
4.2065817247780855
4.1942727804480935
4.1942727804480935
4.1942727804480935
4.188118308283084
4.188118308283084
4.1942727804480935
4.188118308283084
4.200427252613103
4.1942727804480935
4.188118308283084
4.1942727804480935
4.200427252613103
4.1942727804480935
4.188118308283084
4.188118308283084
4.1942727804480935
4.188118308283084
4.1942727804480935
4.1942727804480935
4.1942727804480935
4.200427252613103
4.200427252613103
4.188118308283084
4.1942727804480935
4.1942727804480935
4.188118308283084
4.1942727804480935
4.200427252613103
4.200427252613103
4.1942727804480935
4.1942727804480935
4.1942727804480935
4.2065817247780855
4.200427252613103
4.2065817247780855
4.2065817247780855
4.200427252613103
4.1942727804480935
4.1942727804480935
4.1942727804480935
4.200427252613103
4.200427252613103
4.1942727804480935
4.188118308283084
4.188118308283084
4.188118308283084
4.181963836118102
4.1942727804480935
4.1942727804480935
4.188118308283084
4.188118308283084
4.181963836118102
4.188118308283084
4.181963836118102
4.181963836118102
4.188118308283084
4.188118308283084
4.188118308283084
4.188118308283084
4.181963836118102
4.1758093639530935
4.1758093639530935
4.181963836118102
4.181963836118102
4.188118308283084
4.1942727804480935
4.200427252613103
4.1942727804480935
4.1327280587980795
4.181963836118102
4.2065817247780855
4.2065817247780855
4.2065817247780855
4.2065817247780855
4.212736196943095
4.2065817247780855
4.200427252613103
4.1942727804480935
4.1942727804480935
4.181963836118102
4.188118308283084
4.181963836118102
4.1758093639530935
4.169654891788083
4.169654891788083
4.163500419623101
4.169654891788083
4.163500419623101
4.157345947458091
4.163500419623101
4.157345947458091
4.157345947458091
4.151191475293081
4.151191475293081
4.145037003128072
4.151191475293081
4.163500419623101
4.163500419623101
4.157345947458091
4.151191475293081
4.145037003128072
4.157345947458091
4.157345947458091
4.151191475293081
4.157345947458091
4.157345947458091
4.163500419623101
4.157345947458091
4.157345947458091
4.151191475293081
4.151191475293081
4.145037003128072
4.151191475293081
4.1942727804480935
4.280435390758093
4.37890694539811
4.458915083543125
4.471224027873144
4.452760611378115
4.341980112408105
4.237354085603107
4.151191475293081
4.101955697973087
4.108110170138069
4.12657358663307
4.1327280587980795
4.138882530963089
4.1327280587980795
4.138882530963089
4.1327280587980795
4.12657358663307
4.12657358663307
4.138882530963089
4.145037003128072
4.1327280587980795
4.138882530963089
4.1327280587980795
4.138882530963089
4.138882530963089
4.138882530963089
4.138882530963089
4.145037003128072
4.145037003128072
4.151191475293081
4.145037003128072
4.145037003128072
4.138882530963089
4.1327280587980795
4.145037003128072
4.145037003128072
4.138882530963089
4.145037003128072
4.145037003128072
4.151191475293081
4.151191475293081
4.138882530963089
4.145037003128072
4.151191475293081
4.151191475293081
4.145037003128072
4.151191475293081
4.151191475293081
4.138882530963089
4.138882530963089
4.151191475293081
4.151191475293081
4.145037003128072
4.151191475293081
4.151191475293081
4.151191475293081
4.157345947458091
4.163500419623101
4.157345947458091
4.157345947458091
4.157345947458091
4.163500419623101
4.163500419623101
4.169654891788083
4.157345947458091
4.169654891788083
4.169654891788083
4.169654891788083
4.163500419623101
4.169654891788083
4.169654891788083
4.169654891788083
4.163500419623101
4.163500419623101
4.1758093639530935
4.163500419623101
4.101955697973087
4.169654891788083
4.181963836118102
4.163500419623101
4.145037003128072
4.138882530963089
4.138882530963089
4.145037003128072
4.145037003128072
4.138882530963089
4.1327280587980795
4.1327280587980795
4.120419114468088
4.12657358663307
4.12657358663307
4.120419114468088
4.114264642303079
4.120419114468088
4.120419114468088
4.108110170138069
4.108110170138069
4.108110170138069
4.101955697973087
4.101955697973087
4.108110170138069
4.101955697973087
4.101955697973087
4.095801225808079
4.101955697973087
4.108110170138069
4.101955697973087
4.101955697973087
4.101955697973087
4.108110170138069
4.101955697973087
4.108110170138069
4.101955697973087
4.101955697973087
4.108110170138069
4.114264642303079
4.114264642303079
4.101955697973087
4.095801225808079
4.034256504158063
4.089646753643067
4.120419114468088
4.120419114468088
4.114264642303079
4.12657358663307
4.120419114468088
4.108110170138069
4.101955697973087
4.114264642303079
4.12657358663307
4.1327280587980795
4.12657358663307
4.12657358663307
4.1327280587980795
4.1327280587980795
4.1327280587980795
4.1327280587980795
4.145037003128072
4.138882530963089
4.145037003128072
4.138882530963089
4.145037003128072
4.138882530963089
4.145037003128072
4.145037003128072
4.138882530963089
4.138882530963089
4.151191475293081
4.151191475293081
4.145037003128072
4.1327280587980795
4.145037003128072
4.145037003128072
4.138882530963089
4.145037003128072
4.138882530963089
4.1327280587980795
4.138882530963089
4.1327280587980795
4.145037003128072
4.138882530963089
4.145037003128072
4.145037003128072
4.138882530963089
4.1327280587980795
4.138882530963089
4.1327280587980795
4.138882530963089
4.12657358663307
4.138882530963089
4.138882530963089
4.1327280587980795
4.12657358663307
4.12657358663307
4.120419114468088
4.12657358663307
4.138882530963089
4.1327280587980795
4.138882530963089
4.1327280587980795
4.12657358663307
4.1327280587980795
4.1327280587980795
4.151191475293081
4.145037003128072
4.1327280587980795
4.1327280587980795
4.12657358663307
4.12657358663307
4.120419114468088
4.1327280587980795
4.138882530963089
4.12657358663307
4.12657358663307
4.1327280587980795
4.1327280587980795
4.138882530963089
4.108110170138069
4.058874392818074
4.1327280587980795
4.1327280587980795
4.1327280587980795
4.138882530963089
4.138882530963089
4.1327280587980795
4.108110170138069
4.120419114468088
4.138882530963089
4.12657358663307
4.12657358663307
4.120419114468088
4.138882530963089
4.145037003128072
4.138882530963089
4.12657358663307
4.12657358663307
4.138882530963089
4.12657358663307
4.12657358663307
4.12657358663307
4.138882530963089
4.1327280587980795
4.1327280587980795
4.138882530963089
4.145037003128072
4.145037003128072
4.138882530963089
4.145037003128072
4.145037003128072
4.145037003128072
4.157345947458091
4.163500419623101
4.157345947458091
4.151191475293081
4.151191475293081
4.151191475293081
4.145037003128072
4.145037003128072
4.145037003128072
4.138882530963089
4.12657358663307
4.12657358663307
4.120419114468088
4.114264642303079
4.114264642303079
4.114264642303079
4.108110170138069
4.114264642303079
4.114264642303079
4.114264642303079
4.108110170138069
4.108110170138069
4.101955697973087
4.120419114468088
4.114264642303079
4.114264642303079
4.108110170138069
4.114264642303079
4.114264642303079
4.114264642303079
4.108110170138069
4.101955697973087
4.120419114468088
4.120419114468088
4.108110170138069
4.101955697973087
4.089646753643067
4.077337809313075
4.089646753643067
4.138882530963089
4.212736196943095
4.3173622237481215
4.385061417563119
4.40967930622313
4.366598001068117
4.237354085603107
4.1327280587980795
4.052719920653064
4.028102031993082
4.040410976323072
4.0465654484880815
4.052719920653064
4.065028864983084
4.065028864983084
4.0711833371480655
4.0711833371480655
4.0711833371480655
4.065028864983084
4.065028864983084
4.0711833371480655
4.065028864983084
4.065028864983084
4.077337809313075
4.077337809313075
4.077337809313075
4.0711833371480655
4.065028864983084
4.077337809313075
4.0711833371480655
4.0711833371480655
4.077337809313075
4.077337809313075
4.083492281478085
4.077337809313075
4.077337809313075
4.077337809313075
4.083492281478085
4.083492281478085
4.095801225808079
4.095801225808079
4.095801225808079
4.095801225808079
4.095801225808079
4.108110170138069
4.108110170138069
4.108110170138069
4.101955697973087
4.114264642303079
4.114264642303079
4.101955697973087
4.040410976323072
4.120419114468088
4.12657358663307
4.108110170138069
4.114264642303079
4.120419114468088
4.12657358663307
4.138882530963089
4.138882530963089
4.138882530963089
4.1327280587980795
4.138882530963089
4.145037003128072
4.151191475293081
4.157345947458091
4.157345947458091
4.157345947458091
4.157345947458091
4.163500419623101
4.163500419623101
4.1758093639530935
4.169654891788083
4.163500419623101
4.169654891788083
4.163500419623101
4.163500419623101
4.169654891788083
4.169654891788083
4.163500419623101
4.1758093639530935
4.163500419623101
4.169654891788083
4.163500419623101
4.157345947458091
4.151191475293081
4.163500419623101
4.157345947458091
4.157345947458091
4.145037003128072
4.145037003128072
4.151191475293081
4.145037003128072
4.145037003128072
4.151191475293081
4.145037003128072
4.151191475293081
4.151191475293081
4.151191475293081
4.145037003128072
4.151191475293081
4.151191475293081
4.157345947458091
4.157345947458091
4.151191475293081
4.151191475293081
4.151191475293081
4.138882530963089
4.138882530963089
4.151191475293081
4.145037003128072
4.145037003128072
4.151191475293081
4.157345947458091
4.145037003128072
4.157345947458091
4.145037003128072
4.151191475293081
4.145037003128072
4.145037003128072
4.151191475293081
4.157345947458091
4.163500419623101
4.163500419623101
4.151191475293081
4.157345947458091
4.163500419623101
4.157345947458091
4.163500419623101
4.163500419623101
4.163500419623101
4.157345947458091
4.151191475293081
4.157345947458091
4.163500419623101
4.163500419623101
4.169654891788083
4.169654891788083
4.169654891788083
4.157345947458091
4.163500419623101
4.163500419623101
4.157345947458091
4.157345947458091
4.163500419623101
4.163500419623101
4.157345947458091
4.151191475293081
4.163500419623101
4.163500419623101
4.163500419623101
4.163500419623101
4.163500419623101
4.163500419623101
4.163500419623101
4.151191475293081
4.157345947458091
4.163500419623101
4.157345947458091
4.163500419623101
4.163500419623101
4.163500419623101
4.157345947458091
4.089646753643067
4.151191475293081
4.1758093639530935
4.169654891788083
4.1758093639530935
4.1758093639530935
4.169654891788083
4.169654891788083
4.145037003128072
4.138882530963089
4.089646753643067
4.157345947458091
4.169654891788083
4.169654891788083
4.169654891788083
4.157345947458091
4.138882530963089
4.151191475293081
4.151191475293081
4.163500419623101
4.157345947458091
4.163500419623101
4.163500419623101
4.157345947458091
4.157345947458091
4.151191475293081
4.157345947458091
4.157345947458091
4.157345947458091
4.163500419623101
4.163500419623101
4.157345947458091
4.157345947458091
4.163500419623101
4.157345947458091
4.157345947458091
4.157345947458091
4.163500419623101
4.163500419623101
4.145037003128072
4.145037003128072
4.157345947458091
4.151191475293081
4.157345947458091
4.163500419623101
4.163500419623101
4.157345947458091
4.157345947458091
4.157345947458091
4.163500419623101
4.163500419623101
4.163500419623101
4.157345947458091
4.163500419623101
4.163500419623101
4.157345947458091
4.163500419623101
4.1758093639530935
4.181963836118102
4.1758093639530935
4.1758093639530935
4.181963836118102
4.1758093639530935
4.181963836118102
4.188118308283084
4.188118308283084
4.188118308283084
4.1942727804480935
4.181963836118102
4.188118308283084
4.1758093639530935
4.1758093639530935
4.1758093639530935
4.181963836118102
4.1942727804480935
4.181963836118102
4.181963836118102
4.181963836118102
4.145037003128072
4.145037003128072
4.145037003128072
4.157345947458091
4.157345947458091
4.157345947458091
4.157345947458091
4.157345947458091
4.151191475293081
4.163500419623101
4.157345947458091
4.163500419623101
4.157345947458091
4.157345947458091
4.157345947458091
4.163500419623101
4.157345947458091
4.163500419623101
4.169654891788083
4.169654891788083
4.169654891788083
4.169654891788083
4.157345947458091
4.145037003128072
4.145037003128072
4.157345947458091
4.181963836118102
4.255817502098108
4.360443528903107
4.452760611378115
4.471224027873144
4.458915083543125
4.366598001068117
4.2681264464281
4.181963836118102
4.12657358663307
4.138882530963089
4.151191475293081
4.163500419623101
4.163500419623101
4.169654891788083
4.169654891788083
4.157345947458091
4.145037003128072
4.157345947458091
4.157345947458091
4.151191475293081
4.151191475293081
4.157345947458091
4.163500419623101
4.157345947458091
4.157345947458091
4.163500419623101
4.145037003128072
4.095801225808079
4.138882530963089
4.145037003128072
4.145037003128072
4.151191475293081
4.145037003128072
4.151191475293081
4.151191475293081
4.145037003128072
4.1327280587980795
4.145037003128072
4.151191475293081
4.145037003128072
4.151191475293081
4.151191475293081
4.151191475293081
4.151191475293081
4.151191475293081
4.138882530963089
4.151191475293081
4.145037003128072
4.151191475293081
4.151191475293081
4.145037003128072
4.145037003128072
4.145037003128072
4.157345947458091
4.157345947458091
4.151191475293081
4.157345947458091
4.163500419623101
4.169654891788083
4.169654891788083
4.169654891788083
4.169654891788083
4.169654891788083
4.1758093639530935
4.1758093639530935
4.181963836118102
4.188118308283084
4.181963836118102
4.188118308283084
4.188118308283084
4.188118308283084
4.1942727804480935
4.188118308283084
4.1942727804480935
4.188118308283084
4.1942727804480935
4.1942727804480935
4.188118308283084
4.188118308283084
4.1942727804480935
4.200427252613103
4.188118308283084
4.188118308283084
4.181963836118102
4.181963836118102
4.1942727804480935
4.1758093639530935
4.169654891788083
4.1758093639530935
4.163500419623101
4.157345947458091
4.157345947458091
4.157345947458091
4.157345947458091
4.157345947458091
4.163500419623101
4.163500419623101
4.151191475293081
4.138882530963089
4.151191475293081
4.151191475293081
4.151191475293081
4.151191475293081
4.151191475293081
4.157345947458091
4.151191475293081
4.145037003128072
4.145037003128072
4.151191475293081
4.151191475293081
4.151191475293081
4.145037003128072
4.145037003128072
4.151191475293081
4.145037003128072
4.151191475293081
4.163500419623101
4.163500419623101
4.157345947458091
4.157345947458091
4.163500419623101
4.169654891788083
4.163500419623101
4.163500419623101
4.157345947458091
4.163500419623101
4.169654891788083
4.169654891788083
4.169654891788083
4.1758093639530935
4.163500419623101
4.1758093639530935
4.1758093639530935
4.181963836118102
4.169654891788083
4.1758093639530935
4.169654891788083
4.169654891788083
4.188118308283084
4.200427252613103
4.200427252613103
4.200427252613103
4.200427252613103
4.1942727804480935
4.1942727804480935
4.1942727804480935
4.1942727804480935
4.200427252613103
4.188118308283084
4.138882530963089
4.200427252613103
4.218890669108104
4.212736196943095
4.181963836118102
4.181963836118102
4.1942727804480935
4.188118308283084
4.1942727804480935
4.1942727804480935
4.188118308283084
4.1942727804480935
4.188118308283084
4.200427252613103
4.1942727804480935
4.1942727804480935
4.200427252613103
4.2065817247780855
4.200427252613103
4.200427252613103
4.188118308283084
4.1942727804480935
4.188118308283084
4.200427252613103
4.200427252613103
4.1942727804480935
4.1942727804480935
4.1942727804480935
4.200427252613103
4.2065817247780855
4.1942727804480935
4.2065817247780855
4.2065817247780855
4.200427252613103
4.200427252613103
4.1942727804480935
4.200427252613103
4.200427252613103
4.2065817247780855
4.200427252613103
4.2065817247780855
4.200427252613103
4.2065817247780855
4.1942727804480935
4.2065817247780855
4.200427252613103
4.1942727804480935
4.1942727804480935
4.1942727804480935
4.2065817247780855
4.200427252613103
4.1942727804480935
4.2065817247780855
4.2065817247780855
4.200427252613103
4.2065817247780855
4.2065817247780855
4.2065817247780855
4.2065817247780855
4.12657358663307
4.181963836118102
4.225045141273086
4.225045141273086
4.218890669108104
4.212736196943095
4.218890669108104
4.212736196943095
4.188118308283084
4.2065817247780855
4.2065817247780855
4.212736196943095
4.225045141273086
4.231199613438097
4.243508557768089
4.237354085603107
4.231199613438097
4.225045141273086
4.231199613438097
4.237354085603107
4.243508557768089
4.249663029933098
4.249663029933098
4.237354085603107
4.225045141273086
4.225045141273086
4.225045141273086
4.218890669108104
4.218890669108104
4.218890669108104
4.218890669108104
4.200427252613103
4.200427252613103
4.1942727804480935
4.1942727804480935
4.1942727804480935
4.1942727804480935
4.200427252613103
4.200427252613103
4.1942727804480935
4.1942727804480935
4.200427252613103
4.1942727804480935
4.1942727804480935
4.200427252613103
4.200427252613103
4.1942727804480935
4.1942727804480935
4.188118308283084
4.188118308283084
4.188118308283084
4.1942727804480935
4.1942727804480935
4.1942727804480935
4.181963836118102
4.181963836118102
4.181963836118102
4.169654891788083
4.169654891788083
4.1758093639530935
4.1942727804480935
4.255817502098108
4.329671168078114
4.366598001068117
4.477378500038126
4.471224027873144
4.385061417563119
4.2681264464281
4.181963836118102
4.120419114468088
4.108110170138069
4.114264642303079
4.12657358663307
4.145037003128072
4.157345947458091
4.151191475293081
4.157345947458091
4.163500419623101
4.157345947458091
4.157345947458091
4.169654891788083
4.163500419623101
4.157345947458091
4.169654891788083
4.169654891788083
4.169654891788083
4.163500419623101
4.163500419623101
4.1758093639530935
4.1758093639530935
4.1758093639530935
4.181963836118102
4.1758093639530935
4.181963836118102
4.181963836118102
4.188118308283084
4.181963836118102
4.181963836118102
4.181963836118102
4.188118308283084
4.188118308283084
4.188118308283084
4.181963836118102
4.1942727804480935
4.188118308283084
4.1942727804480935
4.1942727804480935
4.200427252613103
4.200427252613103
4.212736196943095
4.243508557768089
4.200427252613103
4.138882530963089
4.200427252613103
4.237354085603107
4.212736196943095
4.200427252613103
4.1942727804480935
4.2065817247780855
4.2065817247780855
4.2065817247780855
4.212736196943095
4.200427252613103
4.200427252613103
4.2065817247780855
4.2065817247780855
4.212736196943095
4.218890669108104
4.2065817247780855
4.2065817247780855
4.212736196943095
4.2065817247780855
4.212736196943095
4.2065817247780855
4.2065817247780855
4.212736196943095
4.218890669108104
4.218890669108104
4.218890669108104
4.218890669108104
4.2065817247780855
4.200427252613103
4.212736196943095
4.2065817247780855
4.2065817247780855
4.2065817247780855
4.2065817247780855
4.2065817247780855
4.200427252613103
4.188118308283084
4.188118308283084
4.188118308283084
4.188118308283084
4.181963836118102
4.188118308283084
4.188118308283084
4.181963836118102
4.181963836118102
4.188118308283084
4.2065817247780855
4.249663029933098
4.163500419623101
4.145037003128072
4.200427252613103
4.200427252613103
4.188118308283084
4.188118308283084
4.1942727804480935
4.200427252613103
4.200427252613103
4.200427252613103
4.1942727804480935
4.188118308283084
4.1942727804480935
4.181963836118102
4.169654891788083
4.1758093639530935
4.1942727804480935
4.200427252613103
4.200427252613103
4.200427252613103
4.1942727804480935
4.200427252613103
4.200427252613103
4.212736196943095
4.188118308283084
4.163500419623101
4.163500419623101
4.1942727804480935
4.200427252613103
4.181963836118102
4.1942727804480935
4.2065817247780855
4.2065817247780855
4.1942727804480935
4.188118308283084
4.1942727804480935
4.1942727804480935
4.200427252613103
4.1942727804480935
4.1942727804480935
4.188118308283084
4.1942727804480935
4.188118308283084
4.188118308283084
4.188118308283084
4.188118308283084
4.1942727804480935
4.1942727804480935
4.1942727804480935
4.200427252613103
4.1942727804480935
4.1942727804480935
4.1942727804480935
4.2065817247780855
4.255817502098108
4.212736196943095
4.157345947458091
4.212736196943095
4.212736196943095
4.212736196943095
4.2065817247780855
4.2065817247780855
4.212736196943095
4.212736196943095
4.212736196943095
4.200427252613103
4.169654891788083
4.151191475293081
4.169654891788083
4.200427252613103
4.2065817247780855
4.27428091859311
4.231199613438097
4.157345947458091
4.200427252613103
4.212736196943095
4.1942727804480935
4.1942727804480935
4.188118308283084
4.169654891788083
4.163500419623101
4.181963836118102
4.200427252613103
4.218890669108104
4.212736196943095
4.2065817247780855
4.200427252613103
4.188118308283084
4.1942727804480935
4.188118308283084
4.212736196943095
4.237354085603107
4.151191475293081
4.157345947458091
4.2065817247780855
4.188118308283084
4.1758093639530935
4.169654891788083
4.1758093639530935
4.169654891788083
4.157345947458091
4.151191475293081
4.157345947458091
4.1758093639530935
4.181963836118102
4.188118308283084
4.188118308283084
4.181963836118102
4.181963836118102
4.188118308283084
4.1758093639530935
4.169654891788083
4.181963836118102
4.225045141273086
4.1942727804480935
4.1327280587980795
4.1758093639530935
4.1942727804480935
4.1758093639530935
4.169654891788083
4.163500419623101
4.169654891788083
4.181963836118102
4.181963836118102
4.163500419623101
4.163500419623101
4.1758093639530935
4.188118308283084
4.188118308283084
4.200427252613103
4.200427252613103
4.200427252613103
4.2065817247780855
4.225045141273086
4.280435390758093
4.212736196943095
4.2065817247780855
4.261971974263091
4.261971974263091
4.249663029933098
4.243508557768089
4.237354085603107
4.243508557768089
4.243508557768089
4.231199613438097
4.212736196943095
4.163500419623101
4.218890669108104
4.231199613438097
4.212736196943095
4.200427252613103
4.200427252613103
4.1327280587980795
4.2065817247780855
4.261971974263091
4.188118308283084
4.212736196943095
4.231199613438097
4.225045141273086
4.212736196943095
4.1942727804480935
4.200427252613103
4.200427252613103
4.2065817247780855
4.2065817247780855
4.1942727804480935
4.1758093639530935
4.1758093639530935
4.188118308283084
4.200427252613103
4.231199613438097
4.305053279418103
4.434297194883113
4.538923221688139
4.489687444368147
4.489687444368147
4.428142722718132
4.305053279418103
4.212736196943095
4.151191475293081
4.163500419623101
4.1758093639530935
4.181963836118102
4.181963836118102
4.188118308283084
4.1942727804480935
4.188118308283084
4.181963836118102
4.181963836118102
4.188118308283084
4.188118308283084
4.1758093639530935
4.181963836118102
4.188118308283084
4.181963836118102
4.181963836118102
4.188118308283084
4.188118308283084
4.188118308283084
4.188118308283084
4.188118308283084
4.188118308283084
4.200427252613103
4.237354085603107
4.1758093639530935
4.151191475293081
4.188118308283084
4.181963836118102
4.169654891788083
4.188118308283084
4.1942727804480935
4.188118308283084
4.181963836118102
4.163500419623101
4.169654891788083
4.181963836118102
4.212736196943095
4.212736196943095
4.200427252613103
4.1942727804480935
4.181963836118102
4.2065817247780855
4.212736196943095
4.1327280587980795
4.169654891788083
4.200427252613103
4.1758093639530935
4.163500419623101
4.169654891788083
4.169654891788083
4.1758093639530935
4.188118308283084
4.2065817247780855
4.1942727804480935
4.188118308283084
4.188118308283084
4.188118308283084
4.188118308283084
4.1942727804480935
4.188118308283084
4.188118308283084
4.200427252613103
4.231199613438097
4.231199613438097
4.151191475293081
4.181963836118102
4.2065817247780855
4.200427252613103
4.188118308283084
4.1942727804480935
4.200427252613103
4.188118308283084
4.188118308283084
4.1758093639530935
4.169654891788083
4.169654891788083
4.163500419623101
4.157345947458091
4.157345947458091
4.157345947458091
4.157345947458091
4.157345947458091
4.157345947458091
4.157345947458091
4.163500419623101
4.200427252613103
4.163500419623101
4.089646753643067
4.083492281478085
4.138882530963089
4.114264642303079
4.108110170138069
4.114264642303079
4.12657358663307
4.145037003128072
4.145037003128072
4.145037003128072
4.1327280587980795
4.138882530963089
4.1327280587980795
4.1327280587980795
4.1327280587980795
4.1327280587980795
4.1327280587980795
4.052719920653064
4.083492281478085
4.145037003128072
4.145037003128072
4.138882530963089
4.145037003128072
4.151191475293081
4.151191475293081
4.138882530963089
4.12657358663307
4.114264642303079
4.12657358663307
4.145037003128072
4.163500419623101
4.200427252613103
4.138882530963089
4.089646753643067
4.138882530963089
4.138882530963089
4.108110170138069
4.108110170138069
4.114264642303079
4.120419114468088
4.108110170138069
4.108110170138069
4.138882530963089
4.151191475293081
4.145037003128072
4.145037003128072
4.145037003128072
4.138882530963089
4.169654891788083
4.1758093639530935
4.095801225808079
4.12657358663307
4.151191475293081
4.145037003128072
4.138882530963089
4.138882530963089
4.1327280587980795
4.12657358663307
4.138882530963089
4.138882530963089
4.138882530963089
4.151191475293081
4.151191475293081
4.1327280587980795
4.12657358663307
4.138882530963089
4.145037003128072
4.145037003128072
4.138882530963089
4.138882530963089
4.151191475293081
4.145037003128072
4.145037003128072
4.138882530963089
4.1942727804480935
4.157345947458091
4.108110170138069
4.157345947458091
4.169654891788083
4.151191475293081
4.163500419623101
4.157345947458091
4.157345947458091
4.157345947458091
4.157345947458091
4.157345947458091
4.157345947458091
4.157345947458091
4.157345947458091
4.169654891788083
4.169654891788083
4.169654891788083
4.169654891788083
4.169654891788083
4.163500419623101
4.157345947458091
4.163500419623101
4.169654891788083
4.163500419623101
4.163500419623101
4.169654891788083
4.163500419623101
4.169654891788083
4.163500419623101
4.157345947458091
4.163500419623101
4.169654891788083
4.1758093639530935
4.181963836118102
4.1758093639530935
4.1758093639530935
4.1758093639530935
4.1758093639530935
4.1942727804480935
4.1942727804480935
4.1942727804480935
4.1942727804480935
4.200427252613103
4.200427252613103
4.200427252613103
4.200427252613103
4.200427252613103
4.200427252613103
4.145037003128072
4.2065817247780855
4.225045141273086
4.218890669108104
4.2065817247780855
4.188118308283084
4.1942727804480935
4.212736196943095
4.2065817247780855
4.212736196943095
4.2065817247780855
4.212736196943095
4.212736196943095
4.218890669108104
4.225045141273086
4.218890669108104
4.225045141273086
4.225045141273086
4.225045141273086
4.237354085603107
4.231199613438097
4.231199613438097
4.231199613438097
4.231199613438097
4.225045141273086
4.218890669108104
4.212736196943095
4.212736196943095
4.200427252613103
4.212736196943095
4.2065817247780855
4.200427252613103
4.188118308283084
4.1942727804480935
4.188118308283084
4.181963836118102
4.1758093639530935
4.188118308283084
4.188118308283084
4.1942727804480935
4.188118308283084
4.1942727804480935
4.188118308283084
4.188118308283084
4.181963836118102
4.1942727804480935
4.181963836118102
4.188118308283084
4.181963836118102
4.181963836118102
4.188118308283084
4.181963836118102
4.181963836118102
4.188118308283084
4.188118308283084
4.181963836118102
4.169654891788083
4.169654891788083
4.169654891788083
4.169654891788083
4.212736196943095
4.305053279418103
4.421988250553122
4.508150860863147
4.557386638183142
4.52661427735815
4.391215889728128
4.261971974263091
4.1758093639530935
4.138882530963089
4.157345947458091
4.163500419623101
4.169654891788083
4.1758093639530935
4.181963836118102
4.114264642303079
4.157345947458091
4.1942727804480935
4.181963836118102
4.188118308283084
4.188118308283084
4.181963836118102
4.1758093639530935
4.163500419623101
4.163500419623101
4.1758093639530935
4.181963836118102
4.181963836118102
4.169654891788083
4.1758093639530935
4.181963836118102
4.169654891788083
4.1758093639530935
4.188118308283084
4.181963836118102
4.188118308283084
4.181963836118102
4.188118308283084
4.181963836118102
4.181963836118102
4.188118308283084
4.188118308283084
4.188118308283084
4.1942727804480935
4.188118308283084
4.188118308283084
4.1942727804480935
4.188118308283084
4.1942727804480935
4.188118308283084
4.188118308283084
4.1942727804480935
4.200427252613103
4.1942727804480935
4.188118308283084
4.1942727804480935
4.1942727804480935
4.200427252613103
4.200427252613103
4.200427252613103
4.2065817247780855
4.188118308283084
4.120419114468088
4.2065817247780855
4.218890669108104
4.218890669108104
4.218890669108104
4.225045141273086
4.225045141273086
4.212736196943095
4.200427252613103
4.212736196943095
4.212736196943095
4.2065817247780855
4.2065817247780855
4.212736196943095
4.212736196943095
4.212736196943095
4.2065817247780855
4.2065817247780855
4.212736196943095
4.212736196943095
4.2065817247780855
4.200427252613103
4.200427252613103
4.188118308283084
4.188118308283084
4.1942727804480935
4.181963836118102
4.181963836118102
4.169654891788083
4.1758093639530935
4.1758093639530935
4.169654891788083
4.169654891788083
4.169654891788083
4.163500419623101
4.163500419623101
4.169654891788083
4.163500419623101
4.163500419623101
4.163500419623101
4.169654891788083
4.163500419623101
4.163500419623101
4.157345947458091
4.157345947458091
4.163500419623101
4.163500419623101
4.157345947458091
4.157345947458091
4.157345947458091
4.151191475293081
4.157345947458091
4.157345947458091
4.163500419623101
4.151191475293081
4.157345947458091
4.157345947458091
4.163500419623101
4.151191475293081
4.163500419623101
4.157345947458091
4.157345947458091
4.151191475293081
4.145037003128072
4.157345947458091
4.157345947458091
4.169654891788083
4.163500419623101
4.169654891788083
4.163500419623101
4.157345947458091
4.163500419623101
4.169654891788083
4.1758093639530935
4.181963836118102
4.188118308283084
4.1942727804480935
4.1942727804480935
4.1942727804480935
4.188118308283084
4.188118308283084
4.181963836118102
4.181963836118102
4.1758093639530935
4.181963836118102
4.188118308283084
4.181963836118102
4.188118308283084
4.188118308283084
4.188118308283084
4.181963836118102
4.181963836118102
4.181963836118102
4.1758093639530935
4.169654891788083
4.1758093639530935
4.181963836118102
4.181963836118102
4.188118308283084
4.181963836118102
4.1758093639530935
4.181963836118102
4.1758093639530935
4.1758093639530935
4.181963836118102
4.181963836118102
4.181963836118102
4.181963836118102
4.1758093639530935
4.1758093639530935
4.1758093639530935
4.181963836118102
4.188118308283084
4.188118308283084
4.181963836118102
4.188118308283084
4.188118308283084
4.1758093639530935
4.1758093639530935
4.188118308283084
4.1942727804480935
4.1758093639530935
4.114264642303079
4.188118308283084
4.1942727804480935
4.1758093639530935
4.1758093639530935
4.188118308283084
4.1758093639530935
4.188118308283084
4.1942727804480935
4.1942727804480935
4.188118308283084
4.181963836118102
4.188118308283084
4.181963836118102
4.188118308283084
4.1758093639530935
4.181963836118102
4.181963836118102
4.181963836118102
4.188118308283084
4.1942727804480935
4.188118308283084
4.188118308283084
4.1942727804480935
4.188118308283084
4.188118308283084
4.1942727804480935
4.1758093639530935
4.169654891788083
4.181963836118102
4.1758093639530935
4.1758093639530935
4.181963836118102
4.169654891788083
4.169654891788083
4.169654891788083
4.163500419623101
4.157345947458091
4.169654891788083
4.169654891788083
4.169654891788083
4.1758093639530935
4.181963836118102
4.1758093639530935
4.1758093639530935
4.181963836118102
4.1758093639530935
4.1758093639530935
4.181963836118102
4.188118308283084
4.1758093639530935
4.188118308283084
4.181963836118102
4.181963836118102
4.1758093639530935
4.169654891788083
4.169654891788083
4.163500419623101
4.157345947458091
4.163500419623101
4.151191475293081
4.151191475293081
4.138882530963089
4.145037003128072
4.157345947458091
4.151191475293081
4.145037003128072
4.145037003128072
4.151191475293081
4.151191475293081
4.151191475293081
4.145037003128072
4.151191475293081
4.138882530963089
4.138882530963089
4.145037003128072
4.145037003128072
4.138882530963089
4.1327280587980795
4.145037003128072
4.138882530963089
4.138882530963089
4.1327280587980795
4.145037003128072
4.138882530963089
4.12657358663307
4.120419114468088
4.12657358663307
4.138882530963089
4.1758093639530935
4.280435390758093
4.391215889728128
4.465069555708134
4.483532972203136
4.421988250553122
4.2865898629231
4.1758093639530935
4.083492281478085
4.0711833371480655
4.089646753643067
4.089646753643067
4.108110170138069
4.120419114468088
4.120419114468088
4.114264642303079
4.108110170138069
4.108110170138069
4.120419114468088
4.120419114468088
4.114264642303079
4.12657358663307
4.12657358663307
4.120419114468088
4.114264642303079
4.12657358663307
4.114264642303079
4.114264642303079
4.1327280587980795
4.1327280587980795
4.1327280587980795
4.120419114468088
4.114264642303079
4.065028864983084
4.12657358663307
4.145037003128072
4.138882530963089
4.151191475293081
4.138882530963089
4.12657358663307
4.114264642303079
4.138882530963089
4.145037003128072
4.138882530963089
4.1327280587980795
4.138882530963089
4.145037003128072
4.151191475293081
4.157345947458091
4.157345947458091
4.157345947458091
4.163500419623101
4.157345947458091
4.163500419623101
4.163500419623101
4.089646753643067
4.138882530963089
4.200427252613103
4.188118308283084
4.181963836118102
4.181963836118102
4.188118308283084
4.181963836118102
4.157345947458091
4.169654891788083
4.1758093639530935
4.181963836118102
4.1942727804480935
4.188118308283084
4.1942727804480935
4.181963836118102
4.181963836118102
4.181963836118102
4.1942727804480935
4.200427252613103
4.200427252613103
4.1942727804480935
4.1942727804480935
4.1942727804480935
4.188118308283084
4.181963836118102
4.188118308283084
4.1758093639530935
4.1758093639530935
4.181963836118102
4.181963836118102
4.163500419623101
4.163500419623101
4.163500419623101
4.163500419623101
4.163500419623101
4.151191475293081
4.157345947458091
4.157345947458091
4.151191475293081
4.157345947458091
4.151191475293081
4.157345947458091
4.1758093639530935
4.169654891788083
4.163500419623101
4.163500419623101
4.157345947458091
4.157345947458091
4.157345947458091
4.151191475293081
4.157345947458091
4.163500419623101
4.163500419623101
4.157345947458091
4.151191475293081
4.157345947458091
4.163500419623101
4.163500419623101
4.163500419623101
4.163500419623101
4.163500419623101
4.169654891788083
4.151191475293081
4.157345947458091
4.157345947458091
4.157345947458091
4.157345947458091
4.163500419623101
4.157345947458091
4.151191475293081
4.151191475293081
4.151191475293081
4.163500419623101
4.151191475293081
4.157345947458091
4.157345947458091
4.151191475293081
4.145037003128072
4.151191475293081
4.138882530963089
4.145037003128072
4.138882530963089
4.145037003128072
4.1327280587980795
4.1327280587980795
4.120419114468088
4.12657358663307
4.120419114468088
4.120419114468088
4.114264642303079
4.114264642303079
4.120419114468088
4.114264642303079
4.101955697973087
4.108110170138069
4.108110170138069
4.120419114468088
4.120419114468088
4.095801225808079
4.0465654484880815
4.108110170138069
4.095801225808079
4.108110170138069
4.108110170138069
4.114264642303079
4.108110170138069
4.114264642303079
4.114264642303079
4.114264642303079
4.108110170138069
4.108110170138069
4.114264642303079
4.114264642303079
4.108110170138069
4.120419114468088
4.114264642303079
4.108110170138069
4.120419114468088
4.12657358663307
4.12657358663307
4.1327280587980795
4.12657358663307
4.12657358663307
4.1327280587980795
4.12657358663307
4.1327280587980795
4.138882530963089
4.138882530963089
4.1327280587980795
4.138882530963089
4.138882530963089
4.145037003128072
4.138882530963089
4.145037003128072
4.151191475293081
4.138882530963089
4.138882530963089
4.138882530963089
4.145037003128072
4.157345947458091
4.151191475293081
4.163500419623101
4.157345947458091
4.157345947458091
4.163500419623101
4.169654891788083
4.1758093639530935
4.1758093639530935
4.1758093639530935
4.1758093639530935
4.1758093639530935
4.169654891788083
4.1758093639530935
4.169654891788083
4.163500419623101
4.157345947458091
4.151191475293081
4.151191475293081
4.145037003128072
4.145037003128072
4.151191475293081
4.138882530963089
4.138882530963089
4.151191475293081
4.151191475293081
4.151191475293081
4.163500419623101
4.157345947458091
4.157345947458091
4.157345947458091
4.145037003128072
4.151191475293081
4.157345947458091
4.151191475293081
4.157345947458091
4.151191475293081
4.157345947458091
4.163500419623101
4.145037003128072
4.151191475293081
4.145037003128072
4.151191475293081
4.145037003128072
4.138882530963089
4.145037003128072
4.151191475293081
4.2065817247780855
4.2865898629231
4.37890694539811
4.434297194883113
4.440451667048122
4.397370361893111
4.280435390758093
4.188118308283084
4.108110170138069
4.095801225808079
4.114264642303079
4.12657358663307
4.12657358663307
4.145037003128072
4.145037003128072
4.157345947458091
4.151191475293081
4.151191475293081
4.151191475293081
4.145037003128072
4.145037003128072
4.151191475293081
4.151191475293081
4.145037003128072
4.145037003128072
4.151191475293081
4.151191475293081
4.145037003128072
4.151191475293081
4.157345947458091
4.157345947458091
4.157345947458091
4.157345947458091
4.163500419623101
4.145037003128072
4.095801225808079
4.151191475293081
4.163500419623101
4.163500419623101
4.1758093639530935
4.151191475293081
4.151191475293081
4.157345947458091
4.169654891788083
4.163500419623101
4.157345947458091
4.1758093639530935
4.1758093639530935
4.163500419623101
4.169654891788083
4.169654891788083
4.181963836118102
4.181963836118102
4.169654891788083
4.169654891788083
4.1758093639530935
4.1758093639530935
4.1758093639530935
4.1758093639530935
4.181963836118102
4.188118308283084
4.181963836118102
4.1758093639530935
4.169654891788083
4.188118308283084
4.1942727804480935
4.1942727804480935
4.1942727804480935
4.188118308283084
4.1942727804480935
4.1942727804480935
4.188118308283084
4.1942727804480935
4.1942727804480935
4.188118308283084
4.188118308283084
4.181963836118102
4.1758093639530935
4.181963836118102
4.1758093639530935
4.1758093639530935
4.181963836118102
4.181963836118102
4.163500419623101
4.163500419623101
4.163500419623101
4.151191475293081
4.145037003128072
4.157345947458091
4.157345947458091
4.145037003128072
4.145037003128072
4.1327280587980795
4.138882530963089
4.138882530963089
4.1327280587980795
4.1327280587980795
4.1327280587980795
4.138882530963089
4.1327280587980795
4.138882530963089
4.1327280587980795
4.1327280587980795
4.12657358663307
4.138882530963089
4.12657358663307
4.1327280587980795
4.1327280587980795
4.120419114468088
4.138882530963089
4.138882530963089
4.138882530963089
4.151191475293081
4.145037003128072
4.151191475293081
4.163500419623101
4.157345947458091
4.157345947458091
4.157345947458091
4.163500419623101
4.151191475293081
4.145037003128072
4.151191475293081
4.151191475293081
4.151191475293081
4.163500419623101
4.095801225808079
4.151191475293081
4.188118308283084
4.181963836118102
4.1758093639530935
4.188118308283084
4.1942727804480935
4.181963836118102
4.163500419623101
4.163500419623101
4.169654891788083
4.1758093639530935
4.169654891788083
4.169654891788083
4.1758093639530935
4.181963836118102
4.181963836118102
4.1758093639530935
4.169654891788083
4.1758093639530935
4.181963836118102
4.1758093639530935
4.1758093639530935
4.169654891788083
4.1758093639530935
4.181963836118102
4.181963836118102
4.169654891788083
4.1758093639530935
4.1758093639530935
4.151191475293081
4.101955697973087
4.169654891788083
4.169654891788083
4.163500419623101
4.1758093639530935
4.188118308283084
4.1758093639530935
4.169654891788083
4.157345947458091
4.157345947458091
4.169654891788083
4.169654891788083
4.1758093639530935
4.163500419623101
4.163500419623101
4.169654891788083
4.163500419623101
4.169654891788083
4.157345947458091
4.157345947458091
4.163500419623101
4.169654891788083
4.163500419623101
4.169654891788083
4.169654891788083
4.1758093639530935
4.181963836118102
4.1758093639530935
4.1758093639530935
4.1758093639530935
4.188118308283084
4.1758093639530935
4.157345947458091
4.157345947458091
4.169654891788083
4.157345947458091
4.1758093639530935
4.181963836118102
4.169654891788083
4.169654891788083
4.1758093639530935
4.181963836118102
4.1758093639530935
4.1758093639530935
4.181963836118102
4.181963836118102
4.1758093639530935
4.1758093639530935
4.169654891788083
4.169654891788083
4.1758093639530935
4.169654891788083
4.188118308283084
4.237354085603107
4.323516695913104
4.397370361893111
4.458915083543125
4.471224027873144
4.415833778388112
4.298898807253093
4.200427252613103
4.1327280587980795
4.108110170138069
4.12657358663307
4.1327280587980795
4.1327280587980795
4.145037003128072
4.145037003128072
4.151191475293081
4.157345947458091
4.145037003128072
4.1327280587980795
4.145037003128072
4.151191475293081
4.151191475293081
4.145037003128072
4.138882530963089
4.138882530963089
4.1327280587980795
4.138882530963089
4.145037003128072
4.138882530963089
4.1327280587980795
4.12657358663307
4.138882530963089
4.12657358663307
4.1327280587980795
4.1327280587980795
4.052719920653064
4.021947559828071
4.101955697973087
4.145037003128072
4.12657358663307
4.114264642303079
4.101955697973087
4.089646753643067
4.095801225808079
4.101955697973087
4.095801225808079
4.101955697973087
4.101955697973087
4.095801225808079
4.095801225808079
4.089646753643067
4.089646753643067
4.089646753643067
4.095801225808079
4.095801225808079
4.095801225808079
4.089646753643067
4.083492281478085
4.095801225808079
4.095801225808079
4.101955697973087
4.108110170138069
4.101955697973087
4.114264642303079
4.114264642303079
4.108110170138069
4.114264642303079
4.120419114468088
4.108110170138069
4.058874392818074
4.120419114468088
4.138882530963089
4.120419114468088
4.108110170138069
4.114264642303079
4.12657358663307
4.120419114468088
4.12657358663307
4.12657358663307
4.12657358663307
4.120419114468088
4.120419114468088
4.108110170138069
4.101955697973087
4.108110170138069
4.114264642303079
4.114264642303079
4.095801225808079
4.095801225808079
4.101955697973087
4.101955697973087
4.089646753643067
4.089646753643067
4.101955697973087
4.095801225808079
4.101955697973087
4.101955697973087
4.101955697973087
4.101955697973087
4.095801225808079
4.095801225808079
4.101955697973087
4.101955697973087
4.095801225808079
4.095801225808079
4.101955697973087
4.101955697973087
4.101955697973087
4.108110170138069
4.108110170138069
4.089646753643067
4.095801225808079
4.101955697973087
4.108110170138069
4.108110170138069
4.108110170138069
4.101955697973087
4.108110170138069
4.101955697973087
4.101955697973087
4.101955697973087
4.108110170138069
4.114264642303079
4.108110170138069
4.108110170138069
4.108110170138069
4.108110170138069
4.101955697973087
4.101955697973087
4.101955697973087
4.101955697973087
4.095801225808079
4.095801225808079
4.114264642303079
4.114264642303079
4.101955697973087
4.108110170138069
4.101955697973087
4.101955697973087
4.101955697973087
4.101955697973087
4.108110170138069
4.108110170138069
4.101955697973087
4.108110170138069
4.108110170138069
4.108110170138069
4.101955697973087
4.108110170138069
4.108110170138069
4.108110170138069
4.108110170138069
4.108110170138069
4.108110170138069
4.108110170138069
4.114264642303079
4.108110170138069
4.108110170138069
4.114264642303079
4.114264642303079
4.101955697973087
4.108110170138069
4.101955697973087
4.114264642303079
4.114264642303079
4.101955697973087
4.101955697973087
4.108110170138069
4.114264642303079
4.108110170138069
4.114264642303079
4.108110170138069
4.108110170138069
4.114264642303079
4.114264642303079
4.114264642303079
4.12657358663307
4.120419114468088
4.120419114468088
4.120419114468088
4.114264642303079
4.114264642303079
4.101955697973087
4.120419114468088
4.120419114468088
4.114264642303079
4.120419114468088
4.120419114468088
4.114264642303079
4.120419114468088
4.101955697973087
4.0465654484880815
4.120419114468088
4.12657358663307
4.1327280587980795
4.12657358663307
4.1327280587980795
4.12657358663307
4.108110170138069
4.114264642303079
4.120419114468088
4.120419114468088
4.12657358663307
4.12657358663307
4.12657358663307
4.12657358663307
4.12657358663307
4.1327280587980795
4.138882530963089
4.1327280587980795
4.138882530963089
4.138882530963089
4.138882530963089
4.138882530963089
4.1327280587980795
4.1327280587980795
4.12657358663307
4.12657358663307
4.12657358663307
4.120419114468088
4.12657358663307
4.1327280587980795
4.1327280587980795
4.138882530963089
4.138882530963089
4.1327280587980795
4.138882530963089
4.1327280587980795
4.138882530963089
4.065028864983084
4.108110170138069
4.151191475293081
4.151191475293081
4.157345947458091
4.151191475293081
4.145037003128072
4.145037003128072
4.12657358663307
4.12657358663307
4.1327280587980795
4.138882530963089
4.138882530963089
4.138882530963089
4.145037003128072
4.138882530963089
4.1327280587980795
4.138882530963089
4.138882530963089
4.138882530963089
4.1327280587980795
4.1327280587980795
4.145037003128072
4.145037003128072
4.151191475293081
4.163500419623101
4.163500419623101
4.163500419623101
4.163500419623101
4.169654891788083
4.1758093639530935
4.163500419623101
4.163500419623101
4.169654891788083
4.169654891788083
4.169654891788083
4.169654891788083
4.163500419623101
4.163500419623101
4.157345947458091
4.157345947458091
4.157345947458091
4.157345947458091
4.145037003128072
4.145037003128072
4.138882530963089
4.145037003128072
4.138882530963089
4.138882530963089
4.138882530963089
4.138882530963089
4.145037003128072
4.145037003128072
4.138882530963089
4.138882530963089
4.1327280587980795
4.1327280587980795
4.145037003128072
4.145037003128072
4.138882530963089
4.138882530963089
4.145037003128072
4.1327280587980795
4.12657358663307
4.138882530963089
4.145037003128072
4.12657358663307
4.12657358663307
4.12657358663307
4.145037003128072
4.188118308283084
4.2865898629231
4.40352483405812
4.471224027873144
4.489687444368147
4.452760611378115
4.3112077515831135
4.200427252613103
4.108110170138069
4.083492281478085
4.101955697973087
4.114264642303079
4.120419114468088
4.108110170138069
4.052719920653064
4.1327280587980795
4.120419114468088
4.120419114468088
4.120419114468088
4.120419114468088
4.12657358663307
4.1327280587980795
4.1327280587980795
4.1327280587980795
4.1327280587980795
4.12657358663307
4.12657358663307
4.12657358663307
4.1327280587980795
4.1327280587980795
4.1327280587980795
4.12657358663307
4.12657358663307
4.1327280587980795
4.1327280587980795
4.1327280587980795
4.1327280587980795
4.138882530963089
4.1327280587980795
4.145037003128072
4.1327280587980795
4.138882530963089
4.1327280587980795
4.1327280587980795
4.138882530963089
4.145037003128072
4.145037003128072
4.138882530963089
4.1327280587980795
4.1327280587980795
4.1327280587980795
4.1327280587980795
4.138882530963089
4.1327280587980795
4.138882530963089
4.1327280587980795
4.138882530963089
4.138882530963089
4.145037003128072
4.151191475293081
4.151191475293081
4.145037003128072
4.151191475293081
4.151191475293081
4.151191475293081
4.151191475293081
4.157345947458091
4.157345947458091
4.157345947458091
4.163500419623101
4.151191475293081
4.151191475293081
4.151191475293081
4.163500419623101
4.163500419623101
4.157345947458091
4.157345947458091
4.145037003128072
4.157345947458091
4.151191475293081
4.151191475293081
4.145037003128072
4.145037003128072
4.145037003128072
4.157345947458091
4.145037003128072
4.138882530963089
4.1327280587980795
4.138882530963089
4.12657358663307
4.12657358663307
4.120419114468088
4.114264642303079
4.114264642303079
4.108110170138069
4.108110170138069
4.114264642303079
4.108110170138069
4.108110170138069
4.108110170138069
4.108110170138069
4.114264642303079
4.101955697973087
4.108110170138069
4.101955697973087
4.108110170138069
4.101955697973087
4.095801225808079
4.108110170138069
4.108110170138069
4.108110170138069
4.114264642303079
4.108110170138069
4.114264642303079
4.114264642303079
4.114264642303079
4.114264642303079
4.114264642303079
4.101955697973087
4.114264642303079
4.114264642303079
4.108110170138069
4.108110170138069
4.108110170138069
4.114264642303079
4.114264642303079
4.101955697973087
4.114264642303079
4.108110170138069
4.114264642303079
4.108110170138069
4.108110170138069
4.101955697973087
4.101955697973087
4.101955697973087
4.095801225808079
4.040410976323072
4.108110170138069
4.114264642303079
4.120419114468088
4.114264642303079
4.095801225808079
4.095801225808079
4.101955697973087
4.101955697973087
4.101955697973087
4.101955697973087
4.101955697973087
4.101955697973087
4.101955697973087
4.095801225808079
4.101955697973087
4.101955697973087
4.101955697973087
4.101955697973087
4.108110170138069
4.101955697973087
4.101955697973087
4.108110170138069
4.108110170138069
4.108110170138069
4.108110170138069
4.108110170138069
4.101955697973087
4.108110170138069
4.101955697973087
4.095801225808079
4.101955697973087
4.108110170138069
4.101955697973087
4.095801225808079
4.101955697973087
4.101955697973087
4.101955697973087
4.101955697973087
4.101955697973087
4.101955697973087
4.108110170138069
4.108110170138069
4.101955697973087
4.095801225808079
4.095801225808079
4.108110170138069
4.108110170138069
4.101955697973087
4.101955697973087
4.108110170138069
4.114264642303079
4.108110170138069
4.101955697973087
4.108110170138069
4.114264642303079
4.114264642303079
4.114264642303079
4.114264642303079
4.114264642303079
4.114264642303079
4.120419114468088
4.108110170138069
4.108110170138069
4.120419114468088
4.114264642303079
4.120419114468088
4.114264642303079
4.108110170138069
4.114264642303079
4.120419114468088
4.114264642303079
4.114264642303079
4.120419114468088
4.120419114468088
4.120419114468088
4.120419114468088
4.120419114468088
4.120419114468088
4.120419114468088
4.12657358663307
4.120419114468088
4.12657358663307
4.120419114468088
4.12657358663307
4.138882530963089
4.1327280587980795
4.138882530963089
4.138882530963089
4.145037003128072
4.138882530963089
4.145037003128072
4.138882530963089
4.145037003128072
4.145037003128072
4.145037003128072
4.145037003128072
4.145037003128072
4.145037003128072
4.1327280587980795
4.138882530963089
4.1327280587980795
4.138882530963089
4.1327280587980795
4.1327280587980795
4.1327280587980795
4.12657358663307
4.052719920653064
4.089646753643067
4.138882530963089
4.12657358663307
4.12657358663307
4.1327280587980795
4.12657358663307
4.120419114468088
4.108110170138069
4.114264642303079
4.114264642303079
4.120419114468088
4.12657358663307
4.12657358663307
4.114264642303079
4.0465654484880815
4.095801225808079
4.120419114468088
4.120419114468088
4.1327280587980795
4.12657358663307
4.120419114468088
4.114264642303079
4.114264642303079
4.108110170138069
4.1327280587980795
4.2065817247780855
4.323516695913104
4.446606139213133
4.520459805193139
4.52661427735815
4.446606139213133
4.292744335088111
4.188118308283084
4.101955697973087
4.095801225808079
4.108110170138069
4.120419114468088
4.12657358663307
4.12657358663307
4.1327280587980795
4.12657358663307
4.12657358663307
4.12657358663307
4.1327280587980795
4.12657358663307
4.1327280587980795
4.12657358663307
4.120419114468088
4.1327280587980795
4.1327280587980795
4.1327280587980795
4.138882530963089
4.1327280587980795
4.138882530963089
4.12657358663307
4.1327280587980795
4.138882530963089
4.1327280587980795
4.145037003128072
4.151191475293081
4.138882530963089
4.145037003128072
4.145037003128072
4.145037003128072
4.145037003128072
4.145037003128072
4.145037003128072
4.151191475293081
4.157345947458091
4.151191475293081
4.157345947458091
4.163500419623101
4.163500419623101
4.151191475293081
4.157345947458091
4.1758093639530935
4.163500419623101
4.157345947458091
4.169654891788083
4.169654891788083
4.163500419623101
4.1758093639530935
4.1758093639530935
4.1758093639530935
4.1758093639530935
4.163500419623101
4.181963836118102
4.1942727804480935
4.188118308283084
4.1942727804480935
4.200427252613103
4.1942727804480935
4.1942727804480935
4.1942727804480935
4.200427252613103
4.200427252613103
4.200427252613103
4.200427252613103
4.200427252613103
4.1942727804480935
4.200427252613103
4.200427252613103
4.2065817247780855
4.200427252613103
4.1942727804480935
4.1942727804480935
4.200427252613103
4.188118308283084
4.181963836118102
4.1758093639530935
4.1758093639530935
4.181963836118102
4.169654891788083
4.163500419623101
4.157345947458091
4.157345947458091
4.157345947458091
4.151191475293081
4.157345947458091
4.163500419623101
4.163500419623101
4.157345947458091
4.151191475293081
4.157345947458091
4.138882530963089
4.145037003128072
4.157345947458091
4.145037003128072
4.151191475293081
4.151191475293081
4.145037003128072
4.145037003128072
4.1327280587980795
4.138882530963089
4.138882530963089
4.12657358663307
4.065028864983084
4.138882530963089
4.145037003128072
4.138882530963089
4.12657358663307
4.114264642303079
4.12657358663307
4.138882530963089
4.138882530963089
4.145037003128072
4.145037003128072
4.138882530963089
4.1327280587980795
4.145037003128072
4.138882530963089
4.138882530963089
4.138882530963089
4.1327280587980795
4.1327280587980795
4.12657358663307
4.12657358663307
4.12657358663307
4.12657358663307
4.12657358663307
4.138882530963089
4.1327280587980795
4.138882530963089
4.12657358663307
4.120419114468088
4.120419114468088
4.1327280587980795
4.1327280587980795
4.1327280587980795
4.1327280587980795
4.12657358663307
4.120419114468088
4.120419114468088
4.12657358663307
4.114264642303079
4.120419114468088
4.114264642303079
4.120419114468088
4.108110170138069
4.120419114468088
4.120419114468088
4.114264642303079
4.114264642303079
4.114264642303079
4.12657358663307
4.114264642303079
4.114264642303079
4.114264642303079
4.108110170138069
4.108110170138069
4.114264642303079
4.114264642303079
4.120419114468088
4.114264642303079
4.120419114468088
4.120419114468088
4.120419114468088
4.120419114468088
4.114264642303079
4.120419114468088
4.1327280587980795
4.1327280587980795
4.12657358663307
4.120419114468088
4.1327280587980795
4.12657358663307
4.138882530963089
4.1327280587980795
4.1327280587980795
4.1327280587980795
4.12657358663307
4.12657358663307
4.138882530963089
4.138882530963089
4.138882530963089
4.145037003128072
4.145037003128072
4.145037003128072
4.1327280587980795
4.138882530963089
4.145037003128072
4.145037003128072
4.138882530963089
4.138882530963089
4.1327280587980795
4.1327280587980795
4.1327280587980795
4.145037003128072
4.151191475293081
4.157345947458091
4.157345947458091
4.151191475293081
4.157345947458091
4.157345947458091
4.163500419623101
4.169654891788083
4.1758093639530935
4.169654891788083
4.163500419623101
4.157345947458091
4.151191475293081
4.151191475293081
4.157345947458091
4.151191475293081
4.151191475293081
4.138882530963089
4.145037003128072
4.138882530963089
4.1327280587980795
4.12657358663307
4.1327280587980795
4.138882530963089
4.138882530963089
4.1327280587980795
4.1327280587980795
4.138882530963089
4.138882530963089
4.12657358663307
4.0711833371480655
4.145037003128072
4.157345947458091
4.145037003128072
4.145037003128072
4.157345947458091
4.145037003128072
4.1327280587980795
4.12657358663307
4.1327280587980795
4.145037003128072
4.138882530963089
4.138882530963089
4.138882530963089
4.1327280587980795
4.1327280587980795
4.138882530963089
4.188118308283084
4.292744335088111
4.391215889728128
4.465069555708134
4.465069555708134
4.421988250553122
4.292744335088111
4.1942727804480935
4.114264642303079
4.095801225808079
4.114264642303079
4.120419114468088
4.12657358663307
4.12657358663307
4.138882530963089
4.138882530963089
4.145037003128072
4.138882530963089
4.138882530963089
4.145037003128072
4.151191475293081
4.145037003128072
4.145037003128072
4.151191475293081
4.151191475293081
4.145037003128072
4.145037003128072
4.151191475293081
4.151191475293081
4.151191475293081
4.145037003128072
4.151191475293081
4.151191475293081
4.157345947458091
4.151191475293081
4.151191475293081
4.151191475293081
4.083492281478085
4.114264642303079
4.163500419623101
4.169654891788083
4.169654891788083
4.163500419623101
4.163500419623101
4.157345947458091
4.138882530963089
4.138882530963089
4.151191475293081
4.163500419623101
4.157345947458091
4.151191475293081
4.157345947458091
4.151191475293081
4.157345947458091
4.163500419623101
4.163500419623101
4.169654891788083
4.163500419623101
4.163500419623101
4.169654891788083
4.163500419623101
4.157345947458091
4.163500419623101
4.1758093639530935
4.169654891788083
4.169654891788083
4.1758093639530935
4.181963836118102
4.169654891788083
4.181963836118102
4.188118308283084
4.188118308283084
4.188118308283084
4.188118308283084
4.188118308283084
4.188118308283084
4.181963836118102
4.188118308283084
4.181963836118102
4.181963836118102
4.181963836118102
4.1758093639530935
4.163500419623101
4.157345947458091
4.145037003128072
4.145037003128072
4.145037003128072
4.151191475293081
4.151191475293081
4.138882530963089
4.145037003128072
4.1327280587980795
4.12657358663307
4.138882530963089
4.138882530963089
4.1327280587980795
4.145037003128072
4.145037003128072
4.1327280587980795
4.138882530963089
4.12657358663307
4.138882530963089
4.138882530963089
4.138882530963089
4.120419114468088
4.065028864983084
4.1327280587980795
4.1327280587980795
4.120419114468088
4.1327280587980795
4.138882530963089
4.145037003128072
4.138882530963089
4.1327280587980795
4.138882530963089
4.138882530963089
4.138882530963089
4.138882530963089
4.138882530963089
4.138882530963089
4.145037003128072
4.145037003128072
4.1327280587980795
4.145037003128072
4.145037003128072
4.138882530963089
4.145037003128072
4.151191475293081
4.151191475293081
4.151191475293081
4.151191475293081
4.145037003128072
4.145037003128072
4.151191475293081
4.157345947458091
4.157345947458091
4.151191475293081
4.163500419623101
4.163500419623101
4.151191475293081
4.157345947458091
4.163500419623101
4.163500419623101
4.163500419623101
4.163500419623101
4.163500419623101
4.163500419623101
4.163500419623101
4.169654891788083
4.157345947458091
4.157345947458091
4.145037003128072
4.151191475293081
4.151191475293081
4.145037003128072
4.145037003128072
4.151191475293081
4.163500419623101
4.163500419623101
4.163500419623101
4.163500419623101
4.157345947458091
4.151191475293081
4.157345947458091
4.163500419623101
4.163500419623101
4.163500419623101
4.169654891788083
4.169654891788083
4.1758093639530935
4.169654891788083
4.169654891788083
4.163500419623101
4.157345947458091
4.169654891788083
4.169654891788083
4.169654891788083
4.163500419623101
4.163500419623101
4.181963836118102
4.188118308283084
4.181963836118102
4.169654891788083
4.1758093639530935
4.181963836118102
4.181963836118102
4.1758093639530935
4.188118308283084
4.1942727804480935
4.188118308283084
4.1758093639530935
4.188118308283084
4.188118308283084
4.181963836118102
4.181963836118102
4.1942727804480935
4.2065817247780855
4.2065817247780855
4.1942727804480935
4.1942727804480935
4.1942727804480935
4.200427252613103
4.2065817247780855
4.200427252613103
4.212736196943095
4.2065817247780855
4.200427252613103
4.2065817247780855
4.218890669108104
4.218890669108104
4.218890669108104
4.218890669108104
4.231199613438097
4.225045141273086
4.212736196943095
4.212736196943095
4.212736196943095
4.218890669108104
4.231199613438097
4.225045141273086
4.218890669108104
4.225045141273086
4.212736196943095
4.218890669108104
4.212736196943095
4.218890669108104
4.200427252613103
4.138882530963089
4.218890669108104
4.225045141273086
4.225045141273086
4.225045141273086
4.225045141273086
4.2065817247780855
4.218890669108104
4.225045141273086
4.218890669108104
4.212736196943095
4.212736196943095
4.218890669108104
4.212736196943095
4.212736196943095
