4.280435390758093
4.2865898629231
4.2865898629231
4.2865898629231
4.292744335088111
4.298898807253093
4.305053279418103
4.2865898629231
4.2865898629231
4.2865898629231
4.298898807253093
4.298898807253093
4.298898807253093
4.298898807253093
4.305053279418103
4.298898807253093
4.298898807253093
4.3112077515831135
4.305053279418103
4.298898807253093
4.3112077515831135
4.305053279418103
4.298898807253093
4.231199613438097
4.298898807253093
4.3112077515831135
4.305053279418103
4.305053279418103
4.305053279418103
4.298898807253093
4.292744335088111
4.261971974263091
4.2681264464281
4.2681264464281
4.2681264464281
4.2681264464281
4.261971974263091
4.261971974263091
4.255817502098108
4.261971974263091
4.27428091859311
4.27428091859311
4.2681264464281
4.2681264464281
4.261971974263091
4.2681264464281
4.261971974263091
4.255817502098108
4.255817502098108
4.255817502098108
4.261971974263091
4.2681264464281
4.2681264464281
4.2681264464281
4.261971974263091
4.261971974263091
4.2681264464281
4.261971974263091
4.255817502098108
4.225045141273086
4.163500419623101
4.243508557768089
4.249663029933098
4.341980112408105
4.452760611378115
4.557386638183142
4.5943134711731455
4.588158999008135
4.489687444368147
4.3727524732331275
4.2865898629231
4.231199613438097
4.237354085603107
4.249663029933098
4.249663029933098
4.255817502098108
4.261971974263091
4.249663029933098
4.243508557768089
4.261971974263091
4.2681264464281
4.255817502098108
4.255817502098108
4.255817502098108
4.249663029933098
4.255817502098108
4.255817502098108
4.2681264464281
4.2681264464281
4.255817502098108
4.2681264464281
4.261971974263091
4.255817502098108
4.255817502098108
4.261971974263091
4.261971974263091
4.2681264464281
4.249663029933098
4.255817502098108
4.255817502098108
4.255817502098108
4.249663029933098
4.255817502098108
4.255817502098108
4.249663029933098
4.261971974263091
4.261971974263091
4.261971974263091
4.2681264464281
4.255817502098108
4.261971974263091
4.261971974263091
4.27428091859311
4.280435390758093
4.2865898629231
4.2865898629231
4.27428091859311
4.2681264464281
4.280435390758093
4.280435390758093
4.280435390758093
4.280435390758093
4.280435390758093
4.27428091859311
4.280435390758093
4.2865898629231
4.292744335088111
4.280435390758093
4.292744335088111
4.292744335088111
4.292744335088111
4.292744335088111
4.292744335088111
4.305053279418103
4.305053279418103
4.305053279418103
4.305053279418103
4.305053279418103
4.305053279418103
4.305053279418103
4.3112077515831135
4.3173622237481215
4.323516695913104
4.329671168078114
4.323516695913104
4.3173622237481215
4.3173622237481215
4.329671168078114
4.3112077515831135
4.3173622237481215
4.3173622237481215
4.305053279418103
4.305053279418103
4.292744335088111
4.2865898629231
4.2681264464281
4.2681264464281
4.27428091859311
4.280435390758093
4.2681264464281
4.261971974263091
4.261971974263091
4.261971974263091
4.261971974263091
4.249663029933098
4.249663029933098
4.255817502098108
4.255817502098108
4.255817502098108
4.261971974263091
4.261971974263091
4.2681264464281
4.255817502098108
4.261971974263091
4.255817502098108
4.261971974263091
4.255817502098108
4.255817502098108
4.261971974263091
4.249663029933098
4.261971974263091
4.249663029933098
4.188118308283084
4.255817502098108
4.243508557768089
4.249663029933098
4.261971974263091
4.249663029933098
4.249663029933098
4.243508557768089
4.249663029933098
4.255817502098108
4.255817502098108
4.261971974263091
4.255817502098108
4.255817502098108
4.255817502098108
4.255817502098108
4.261971974263091
4.2681264464281
4.2681264464281
4.255817502098108
4.255817502098108
4.255817502098108
4.2681264464281
4.2681264464281
4.2681264464281
4.2681264464281
4.261971974263091
4.2681264464281
4.2681264464281
4.261971974263091
4.2681264464281
4.280435390758093
4.261971974263091
4.261971974263091
4.27428091859311
4.280435390758093
4.27428091859311
4.2681264464281
4.280435390758093
4.280435390758093
4.27428091859311
4.280435390758093
4.2681264464281
4.280435390758093
4.27428091859311
4.2681264464281
4.280435390758093
4.27428091859311
4.261971974263091
4.2681264464281
4.2681264464281
4.280435390758093
4.280435390758093
4.280435390758093
4.2865898629231
4.2865898629231
4.280435390758093
4.280435390758093
4.2865898629231
4.2865898629231
4.280435390758093
4.27428091859311
4.2865898629231
4.2865898629231
4.2865898629231
4.280435390758093
4.2865898629231
4.2865898629231
4.27428091859311
4.2865898629231
4.280435390758093
4.280435390758093
4.280435390758093
4.280435390758093
4.280435390758093
4.27428091859311
4.2681264464281
4.27428091859311
4.2865898629231
4.2865898629231
4.280435390758093
4.280435390758093
4.280435390758093
4.27428091859311
4.27428091859311
4.280435390758093
4.27428091859311
4.280435390758093
4.280435390758093
4.2865898629231
4.2865898629231
4.27428091859311
4.27428091859311
4.2865898629231
4.27428091859311
4.280435390758093
4.2681264464281
4.27428091859311
4.280435390758093
4.2681264464281
4.27428091859311
4.2865898629231
4.280435390758093
4.27428091859311
4.280435390758093
4.280435390758093
4.2681264464281
4.255817502098108
4.2681264464281
4.280435390758093
4.2681264464281
4.280435390758093
4.27428091859311
4.27428091859311
4.280435390758093
4.280435390758093
4.280435390758093
4.2865898629231
4.2865898629231
4.280435390758093
4.2865898629231
4.27428091859311
4.2065817247780855
4.255817502098108
4.261971974263091
4.261971974263091
4.261971974263091
4.27428091859311
4.2681264464281
4.292744335088111
4.2865898629231
4.2865898629231
4.2865898629231
4.280435390758093
4.280435390758093
4.298898807253093
4.292744335088111
4.2865898629231
4.27428091859311
4.27428091859311
4.27428091859311
4.27428091859311
4.280435390758093
4.280435390758093
4.280435390758093
4.292744335088111
4.2865898629231
4.280435390758093
4.27428091859311
4.2681264464281
4.27428091859311
4.280435390758093
4.27428091859311
4.27428091859311
4.2065817247780855
4.225045141273086
4.292744335088111
4.2865898629231
4.292744335088111
4.298898807253093
4.292744335088111
4.2865898629231
4.2681264464281
4.27428091859311
4.280435390758093
4.2865898629231
4.292744335088111
4.2865898629231
4.298898807253093
4.292744335088111
4.2865898629231
4.280435390758093
4.280435390758093
4.280435390758093
4.27428091859311
4.27428091859311
4.2681264464281
4.292744335088111
4.2681264464281
4.261971974263091
4.261971974263091
4.255817502098108
4.261971974263091
4.261971974263091
4.261971974263091
4.249663029933098
4.243508557768089
4.255817502098108
4.261971974263091
4.261971974263091
4.261971974263091
4.255817502098108
4.255817502098108
4.261971974263091
4.255817502098108
4.261971974263091
4.27428091859311
4.280435390758093
4.280435390758093
4.27428091859311
4.27428091859311
4.249663029933098
4.249663029933098
4.261971974263091
4.261971974263091
4.280435390758093
4.366598001068117
4.489687444368147
4.575850054678144
4.618931359833156
4.618931359833156
4.538923221688139
4.428142722718132
4.348134584573115
4.2865898629231
4.2865898629231
4.298898807253093
4.2865898629231
4.3173622237481215
4.3173622237481215
4.3112077515831135
4.305053279418103
4.3112077515831135
4.3173622237481215
4.3173622237481215
4.298898807253093
4.3173622237481215
4.3112077515831135
4.298898807253093
4.292744335088111
4.3112077515831135
4.3112077515831135
4.298898807253093
4.298898807253093
4.298898807253093
4.298898807253093
4.305053279418103
4.2865898629231
4.292744335088111
4.280435390758093
4.27428091859311
4.2865898629231
4.280435390758093
4.255817502098108
4.212736196943095
4.280435390758093
4.292744335088111
4.2865898629231
4.261971974263091
4.261971974263091
4.280435390758093
4.27428091859311
4.292744335088111
4.2865898629231
4.27428091859311
4.2865898629231
4.280435390758093
4.2681264464281
4.2865898629231
4.2865898629231
4.292744335088111
4.292744335088111
4.292744335088111
4.27428091859311
4.27428091859311
4.280435390758093
4.2681264464281
4.2681264464281
4.243508557768089
4.243508557768089
4.2681264464281
4.27428091859311
4.2865898629231
4.298898807253093
4.305053279418103
4.305053279418103
4.305053279418103
4.292744335088111
4.27428091859311
4.243508557768089
4.249663029933098
4.243508557768089
4.225045141273086
4.237354085603107
4.249663029933098
4.2681264464281
4.27428091859311
4.2681264464281
4.261971974263091
4.255817502098108
4.255817502098108
4.255817502098108
4.255817502098108
4.243508557768089
4.231199613438097
4.2065817247780855
4.212736196943095
4.2065817247780855
4.1942727804480935
4.188118308283084
4.1758093639530935
4.1758093639530935
4.1942727804480935
4.1942727804480935
4.181963836118102
4.1758093639530935
4.1758093639530935
4.181963836118102
4.1942727804480935
4.1942727804480935
4.200427252613103
4.188118308283084
4.1942727804480935
4.188118308283084
4.200427252613103
4.200427252613103
4.200427252613103
4.188118308283084
4.1758093639530935
4.181963836118102
4.2065817247780855
4.2065817247780855
4.200427252613103
4.200427252613103
4.212736196943095
4.2065817247780855
4.212736196943095
4.212736196943095
4.2065817247780855
4.200427252613103
4.1942727804480935
4.200427252613103
4.200427252613103
4.2065817247780855
4.200427252613103
4.200427252613103
4.212736196943095
4.1942727804480935
4.188118308283084
4.2065817247780855
4.200427252613103
4.1942727804480935
4.188118308283084
4.188118308283084
4.181963836118102
4.188118308283084
4.1942727804480935
4.2065817247780855
4.212736196943095
4.225045141273086
4.225045141273086
4.231199613438097
4.231199613438097
4.2065817247780855
4.2065817247780855
4.200427252613103
4.218890669108104
4.225045141273086
4.225045141273086
4.212736196943095
4.212736196943095
4.200427252613103
4.1942727804480935
4.212736196943095
4.231199613438097
4.218890669108104
4.163500419623101
4.243508557768089
4.27428091859311
4.2681264464281
4.255817502098108
4.237354085603107
4.237354085603107
4.225045141273086
4.218890669108104
4.231199613438097
4.231199613438097
4.231199613438097
4.225045141273086
4.231199613438097
4.237354085603107
4.218890669108104
4.225045141273086
4.218890669108104
4.225045141273086
4.231199613438097
4.237354085603107
4.231199613438097
4.231199613438097
4.231199613438097
4.225045141273086
4.218890669108104
4.237354085603107
4.237354085603107
4.237354085603107
4.243508557768089
4.243508557768089
4.231199613438097
4.243508557768089
4.218890669108104
4.225045141273086
4.249663029933098
4.2681264464281
4.2865898629231
4.27428091859311
4.255817502098108
4.2681264464281
4.2865898629231
4.280435390758093
4.27428091859311
4.2681264464281
4.249663029933098
4.261971974263091
4.261971974263091
4.27428091859311
4.280435390758093
4.261971974263091
4.280435390758093
4.2865898629231
4.2865898629231
4.27428091859311
4.2681264464281
4.2681264464281
4.2681264464281
4.255817502098108
4.249663029933098
4.255817502098108
4.27428091859311
4.2681264464281
4.27428091859311
4.2865898629231
4.261971974263091
4.255817502098108
4.243508557768089
4.249663029933098
4.255817502098108
4.2681264464281
4.27428091859311
4.27428091859311
4.27428091859311
4.280435390758093
4.2681264464281
4.255817502098108
4.255817502098108
4.2681264464281
4.261971974263091
4.249663029933098
4.255817502098108
4.261971974263091
4.261971974263091
4.261971974263091
4.255817502098108
4.2681264464281
4.280435390758093
4.280435390758093
4.2681264464281
4.261971974263091
4.255817502098108
4.255817502098108
4.261971974263091
4.261971974263091
4.2865898629231
4.292744335088111
4.2865898629231
4.2865898629231
4.280435390758093
4.2865898629231
4.249663029933098
4.218890669108104
4.305053279418103
4.292744335088111
4.280435390758093
4.27428091859311
4.2681264464281
4.2681264464281
4.249663029933098
4.255817502098108
4.2681264464281
4.243508557768089
4.231199613438097
4.237354085603107
4.237354085603107
4.249663029933098
4.27428091859311
4.2681264464281
4.255817502098108
4.237354085603107
4.231199613438097
4.181963836118102
4.255817502098108
4.255817502098108
4.237354085603107
4.243508557768089
4.249663029933098
4.249663029933098
4.255817502098108
4.261971974263091
4.2681264464281
4.261971974263091
4.255817502098108
4.261971974263091
4.255817502098108
4.237354085603107
4.231199613438097
4.225045141273086
4.237354085603107
4.237354085603107
4.261971974263091
4.354289056738125
4.452760611378115
4.5327687495231315
4.551232166018132
4.5327687495231315
4.415833778388112
4.323516695913104
4.255817502098108
4.218890669108104
4.231199613438097
4.243508557768089
4.243508557768089
4.237354085603107
4.249663029933098
4.249663029933098
4.237354085603107
4.237354085603107
4.243508557768089
4.243508557768089
4.249663029933098
4.249663029933098
4.243508557768089
4.231199613438097
4.237354085603107
4.243508557768089
4.243508557768089
4.237354085603107
4.237354085603107
4.231199613438097
4.237354085603107
4.225045141273086
4.237354085603107
4.231199613438097
4.237354085603107
4.231199613438097
4.225045141273086
4.231199613438097
4.231199613438097
4.231199613438097
4.231199613438097
4.231199613438097
4.231199613438097
4.243508557768089
4.243508557768089
4.249663029933098
4.237354085603107
4.231199613438097
4.212736196943095
4.212736196943095
4.237354085603107
4.243508557768089
4.243508557768089
4.249663029933098
4.237354085603107
4.231199613438097
4.249663029933098
4.243508557768089
4.261971974263091
4.255817502098108
4.255817502098108
4.255817502098108
4.249663029933098
4.249663029933098
4.255817502098108
4.27428091859311
4.27428091859311
4.2681264464281
4.27428091859311
4.261971974263091
4.2681264464281
4.261971974263091
4.2681264464281
4.2681264464281
4.261971974263091
4.27428091859311
4.261971974263091
4.255817502098108
4.255817502098108
4.2681264464281
4.27428091859311
4.27428091859311
4.280435390758093
4.280435390758093
4.2681264464281
4.27428091859311
4.261971974263091
4.2681264464281
4.261971974263091
4.249663029933098
4.237354085603107
4.225045141273086
4.218890669108104
4.212736196943095
4.231199613438097
4.237354085603107
4.200427252613103
4.200427252613103
4.212736196943095
4.2065817247780855
4.225045141273086
4.212736196943095
4.1942727804480935
4.138882530963089
4.212736196943095
4.225045141273086
4.231199613438097
4.218890669108104
4.200427252613103
4.188118308283084
4.1942727804480935
4.218890669108104
4.212736196943095
4.212736196943095
4.212736196943095
4.212736196943095
4.212736196943095
4.200427252613103
4.2065817247780855
4.200427252613103
4.200427252613103
4.1942727804480935
4.188118308283084
4.200427252613103
4.200427252613103
4.200427252613103
4.200427252613103
4.200427252613103
4.200427252613103
4.200427252613103
4.212736196943095
4.2065817247780855
4.1942727804480935
4.2065817247780855
4.200427252613103
4.200427252613103
4.2065817247780855
4.225045141273086
4.218890669108104
4.225045141273086
4.218890669108104
4.218890669108104
4.218890669108104
4.218890669108104
4.218890669108104
4.218890669108104
4.231199613438097
4.225045141273086
4.212736196943095
4.225045141273086
4.231199613438097
4.237354085603107
4.237354085603107
4.237354085603107
4.237354085603107
4.249663029933098
4.231199613438097
4.237354085603107
4.243508557768089
4.243508557768089
4.231199613438097
4.225045141273086
4.231199613438097
4.243508557768089
4.231199613438097
4.225045141273086
4.218890669108104
4.225045141273086
4.225045141273086
4.212736196943095
4.218890669108104
4.212736196943095
4.218890669108104
4.231199613438097
4.212736196943095
4.212736196943095
4.212736196943095
4.225045141273086
4.218890669108104
4.212736196943095
4.212736196943095
4.218890669108104
4.212736196943095
4.218890669108104
4.225045141273086
4.212736196943095
4.218890669108104
4.218890669108104
4.225045141273086
4.243508557768089
4.225045141273086
4.218890669108104
4.212736196943095
4.218890669108104
4.212736196943095
4.200427252613103
4.200427252613103
4.200427252613103
4.1942727804480935
4.1942727804480935
4.188118308283084
4.200427252613103
4.1942727804480935
4.188118308283084
4.1942727804480935
4.200427252613103
4.1942727804480935
4.1942727804480935
4.1942727804480935
4.181963836118102
4.181963836118102
4.188118308283084
4.1942727804480935
4.2065817247780855
4.212736196943095
4.212736196943095
4.2065817247780855
4.212736196943095
4.218890669108104
4.2065817247780855
4.225045141273086
4.225045141273086
4.218890669108104
4.225045141273086
4.2065817247780855
4.145037003128072
4.225045141273086
4.218890669108104
4.218890669108104
4.231199613438097
4.237354085603107
4.261971974263091
4.2681264464281
4.2681264464281
4.255817502098108
4.249663029933098
4.249663029933098
4.243508557768089
4.243508557768089
4.237354085603107
4.249663029933098
4.249663029933098
4.237354085603107
4.237354085603107
4.225045141273086
4.212736196943095
4.2065817247780855
4.212736196943095
4.218890669108104
4.237354085603107
4.231199613438097
4.243508557768089
4.237354085603107
4.237354085603107
4.243508557768089
4.237354085603107
4.237354085603107
4.243508557768089
4.243508557768089
4.249663029933098
4.243508557768089
4.249663029933098
4.261971974263091
4.2681264464281
4.261971974263091
4.2681264464281
4.261971974263091
4.261971974263091
4.2681264464281
4.255817502098108
4.243508557768089
4.249663029933098
4.255817502098108
4.218890669108104
4.151191475293081
4.243508557768089
4.249663029933098
4.249663029933098
4.243508557768089
4.237354085603107
4.237354085603107
4.225045141273086
4.212736196943095
4.218890669108104
4.225045141273086
4.225045141273086
4.212736196943095
4.225045141273086
4.218890669108104
4.225045141273086
4.218890669108104
4.212736196943095
4.212736196943095
4.212736196943095
4.218890669108104
4.225045141273086
4.225045141273086
4.218890669108104
4.225045141273086
4.225045141273086
4.231199613438097
4.212736196943095
4.200427252613103
4.188118308283084
4.181963836118102
4.200427252613103
4.2681264464281
4.366598001068117
4.477378500038126
4.538923221688139
4.538923221688139
4.477378500038126
4.360443528903107
4.280435390758093
4.2065817247780855
4.181963836118102
4.200427252613103
4.212736196943095
4.212736196943095
4.225045141273086
4.212736196943095
4.212736196943095
4.2065817247780855
4.212736196943095
4.212736196943095
4.218890669108104
4.212736196943095
4.2065817247780855
4.1942727804480935
4.1942727804480935
4.200427252613103
4.200427252613103
4.200427252613103
4.1942727804480935
4.188118308283084
4.188118308283084
4.181963836118102
4.188118308283084
4.2065817247780855
4.200427252613103
4.2065817247780855
4.212736196943095
4.218890669108104
4.212736196943095
4.188118308283084
4.2065817247780855
4.188118308283084
4.1327280587980795
4.1942727804480935
4.212736196943095
4.218890669108104
4.200427252613103
4.169654891788083
4.188118308283084
4.218890669108104
4.225045141273086
4.218890669108104
4.218890669108104
4.212736196943095
4.212736196943095
4.212736196943095
4.2065817247780855
4.212736196943095
4.212736196943095
4.212736196943095
4.2065817247780855
4.218890669108104
4.225045141273086
4.225045141273086
4.218890669108104
4.218890669108104
4.231199613438097
4.237354085603107
4.249663029933098
4.255817502098108
4.243508557768089
4.255817502098108
4.249663029933098
4.255817502098108
4.249663029933098
4.255817502098108
4.261971974263091
4.237354085603107
4.231199613438097
4.243508557768089
4.255817502098108
4.249663029933098
4.261971974263091
4.261971974263091
4.261971974263091
4.243508557768089
4.249663029933098
4.255817502098108
4.243508557768089
4.225045141273086
4.225045141273086
4.237354085603107
4.231199613438097
4.237354085603107
4.212736196943095
4.212736196943095
4.200427252613103
4.2065817247780855
4.218890669108104
4.2065817247780855
4.212736196943095
4.2065817247780855
4.1942727804480935
4.2065817247780855
4.2065817247780855
4.1942727804480935
4.2065817247780855
4.1942727804480935
4.188118308283084
4.1758093639530935
4.1758093639530935
4.2065817247780855
4.200427252613103
4.200427252613103
4.2065817247780855
4.212736196943095
4.212736196943095
4.200427252613103
4.1942727804480935
4.2065817247780855
4.2065817247780855
4.2065817247780855
4.2065817247780855
4.218890669108104
4.212736196943095
4.1942727804480935
4.200427252613103
4.200427252613103
4.2065817247780855
4.200427252613103
4.188118308283084
4.1942727804480935
4.1942727804480935
4.200427252613103
4.2065817247780855
4.212736196943095
4.2065817247780855
4.218890669108104
4.212736196943095
4.212736196943095
4.212736196943095
4.212736196943095
4.218890669108104
4.212736196943095
4.218890669108104
4.231199613438097
4.218890669108104
4.200427252613103
4.1942727804480935
4.200427252613103
4.225045141273086
4.225045141273086
4.231199613438097
4.225045141273086
4.225045141273086
4.218890669108104
4.212736196943095
4.2065817247780855
4.218890669108104
4.218890669108104
4.225045141273086
4.225045141273086
4.218890669108104
4.2065817247780855
4.145037003128072
4.225045141273086
4.237354085603107
4.225045141273086
4.225045141273086
4.218890669108104
4.225045141273086
4.231199613438097
4.1942727804480935
4.188118308283084
4.212736196943095
4.212736196943095
4.231199613438097
4.225045141273086
4.231199613438097
4.225045141273086
4.231199613438097
4.225045141273086
4.225045141273086
4.231199613438097
4.200427252613103
4.188118308283084
4.218890669108104
4.237354085603107
4.249663029933098
4.255817502098108
4.243508557768089
4.243508557768089
4.249663029933098
4.231199613438097
4.231199613438097
4.237354085603107
4.225045141273086
4.231199613438097
4.225045141273086
4.237354085603107
4.243508557768089
4.231199613438097
4.231199613438097
4.243508557768089
4.243508557768089
4.243508557768089
4.237354085603107
4.237354085603107
4.231199613438097
4.243508557768089
4.237354085603107
4.231199613438097
4.243508557768089
4.249663029933098
4.255817502098108
4.255817502098108
4.255817502098108
4.243508557768089
4.249663029933098
4.249663029933098
4.249663029933098
4.261971974263091
4.255817502098108
4.243508557768089
4.249663029933098
4.261971974263091
4.2681264464281
4.2681264464281
4.280435390758093
4.27428091859311
4.2681264464281
4.2681264464281
4.261971974263091
4.2681264464281
4.261971974263091
4.249663029933098
4.255817502098108
4.237354085603107
4.243508557768089
4.249663029933098
4.249663029933098
4.249663029933098
4.255817502098108
4.255817502098108
4.249663029933098
4.2681264464281
4.2681264464281
4.2681264464281
4.255817502098108
4.2681264464281
4.280435390758093
4.2681264464281
4.27428091859311
4.27428091859311
4.2865898629231
4.280435390758093
4.2681264464281
4.2681264464281
4.255817502098108
4.261971974263091
4.2681264464281
4.27428091859311
4.27428091859311
4.2681264464281
4.27428091859311
4.2681264464281
4.261971974263091
4.27428091859311
4.2681264464281
4.2681264464281
4.261971974263091
4.255817502098108
4.255817502098108
4.261971974263091
4.2681264464281
4.261971974263091
4.261971974263091
4.2681264464281
4.27428091859311
4.2681264464281
4.255817502098108
4.255817502098108
4.181963836118102
4.249663029933098
4.2681264464281
4.249663029933098
4.163500419623101
4.243508557768089
4.261971974263091
4.249663029933098
4.225045141273086
4.231199613438097
4.237354085603107
4.243508557768089
4.255817502098108
4.255817502098108
4.2681264464281
4.261971974263091
4.2681264464281
4.261971974263091
4.261971974263091
4.261971974263091
4.261971974263091
4.261971974263091
4.2681264464281
4.255817502098108
4.255817502098108
4.249663029933098
4.255817502098108
4.243508557768089
4.243508557768089
4.249663029933098
4.231199613438097
4.231199613438097
4.237354085603107
4.243508557768089
4.298898807253093
4.391215889728128
4.495841916533129
4.575850054678144
4.5820045268431535
4.52661427735815
4.40967930622313
4.3173622237481215
4.243508557768089
4.225045141273086
4.243508557768089
4.243508557768089
4.249663029933098
4.243508557768089
4.255817502098108
4.2681264464281
4.261971974263091
4.249663029933098
4.255817502098108
4.249663029933098
4.261971974263091
4.261971974263091
4.261971974263091
4.243508557768089
4.243508557768089
4.255817502098108
4.261971974263091
4.261971974263091
4.255817502098108
4.255817502098108
4.255817502098108
4.261971974263091
4.261971974263091
4.249663029933098
4.249663029933098
4.255817502098108
4.255817502098108
4.2681264464281
4.2681264464281
4.261971974263091
4.261971974263091
4.2681264464281
4.27428091859311
4.2681264464281
4.255817502098108
4.2681264464281
4.27428091859311
4.2865898629231
4.27428091859311
4.280435390758093
4.27428091859311
4.27428091859311
4.280435390758093
4.27428091859311
4.2681264464281
4.27428091859311
4.2865898629231
4.2865898629231
4.298898807253093
4.292744335088111
4.2865898629231
4.298898807253093
4.292744335088111
4.298898807253093
4.298898807253093
4.298898807253093
4.292744335088111
4.2865898629231
4.305053279418103
4.298898807253093
4.292744335088111
4.298898807253093
4.3112077515831135
4.3173622237481215
4.3173622237481215
4.3173622237481215
4.3112077515831135
4.305053279418103
4.298898807253093
4.3112077515831135
4.323516695913104
4.3173622237481215
4.323516695913104
4.323516695913104
4.323516695913104
4.3173622237481215
4.3173622237481215
4.305053279418103
4.305053279418103
4.298898807253093
4.2865898629231
4.255817502098108
4.2065817247780855
4.27428091859311
4.280435390758093
4.249663029933098
4.237354085603107
4.249663029933098
4.243508557768089
4.2065817247780855
4.225045141273086
4.237354085603107
4.243508557768089
4.255817502098108
4.243508557768089
4.249663029933098
4.237354085603107
4.231199613438097
4.243508557768089
4.243508557768089
4.243508557768089
4.237354085603107
4.231199613438097
4.225045141273086
4.225045141273086
4.225045141273086
4.231199613438097
4.225045141273086
4.218890669108104
4.212736196943095
4.225045141273086
4.237354085603107
4.218890669108104
4.225045141273086
4.231199613438097
4.225045141273086
4.218890669108104
4.231199613438097
4.218890669108104
4.218890669108104
4.218890669108104
4.237354085603107
4.243508557768089
4.237354085603107
4.231199613438097
4.243508557768089
4.237354085603107
4.237354085603107
4.218890669108104
4.218890669108104
4.225045141273086
4.218890669108104
4.218890669108104
4.218890669108104
4.218890669108104
4.237354085603107
4.237354085603107
4.237354085603107
4.237354085603107
4.237354085603107
4.231199613438097
4.237354085603107
4.237354085603107
4.225045141273086
4.218890669108104
4.231199613438097
4.243508557768089
4.243508557768089
4.237354085603107
4.237354085603107
4.231199613438097
4.225045141273086
4.212736196943095
4.212736196943095
4.225045141273086
4.231199613438097
4.237354085603107
4.237354085603107
4.243508557768089
4.237354085603107
4.243508557768089
4.249663029933098
4.243508557768089
4.243508557768089
4.249663029933098
4.243508557768089
4.243508557768089
4.237354085603107
4.243508557768089
4.237354085603107
4.237354085603107
4.231199613438097
4.237354085603107
4.243508557768089
4.249663029933098
4.249663029933098
4.249663029933098
4.249663029933098
4.237354085603107
4.249663029933098
4.237354085603107
4.231199613438097
4.225045141273086
4.231199613438097
4.231199613438097
4.225045141273086
4.231199613438097
4.243508557768089
4.237354085603107
4.237354085603107
4.231199613438097
4.225045141273086
4.231199613438097
4.231199613438097
4.237354085603107
4.237354085603107
4.237354085603107
4.231199613438097
4.225045141273086
4.231199613438097
4.237354085603107
4.243508557768089
4.249663029933098
4.231199613438097
4.169654891788083
4.243508557768089
4.231199613438097
4.225045141273086
4.237354085603107
4.231199613438097
4.231199613438097
4.225045141273086
4.218890669108104
4.225045141273086
4.231199613438097
4.231199613438097
4.225045141273086
4.231199613438097
4.237354085603107
4.225045141273086
4.212736196943095
4.218890669108104
4.218890669108104
4.225045141273086
4.225045141273086
4.237354085603107
4.237354085603107
4.249663029933098
4.255817502098108
4.249663029933098
4.243508557768089
4.243508557768089
4.231199613438097
4.225045141273086
4.231199613438097
4.243508557768089
4.231199613438097
4.231199613438097
4.231199613438097
4.237354085603107
4.243508557768089
4.237354085603107
4.218890669108104
4.225045141273086
4.231199613438097
4.225045141273086
4.231199613438097
4.255817502098108
4.261971974263091
4.2681264464281
4.261971974263091
4.261971974263091
4.255817502098108
4.237354085603107
4.237354085603107
4.237354085603107
4.231199613438097
4.237354085603107
4.249663029933098
4.255817502098108
4.255817502098108
4.261971974263091
4.255817502098108
4.261971974263091
4.261971974263091
4.255817502098108
4.2681264464281
4.261971974263091
4.261971974263091
4.181963836118102
4.237354085603107
4.27428091859311
4.280435390758093
4.2865898629231
4.27428091859311
4.2681264464281
4.249663029933098
4.212736196943095
4.231199613438097
4.218890669108104
4.237354085603107
4.237354085603107
4.243508557768089
4.237354085603107
4.243508557768089
4.231199613438097
4.225045141273086
4.225045141273086
4.225045141273086
4.225045141273086
4.237354085603107
4.225045141273086
4.212736196943095
4.212736196943095
4.231199613438097
4.231199613438097
4.237354085603107
4.231199613438097
4.225045141273086
4.231199613438097
4.231199613438097
4.218890669108104
4.225045141273086
4.231199613438097
4.212736196943095
4.212736196943095
4.2065817247780855
4.2065817247780855
4.1942727804480935
4.200427252613103
4.200427252613103
4.225045141273086
4.2865898629231
4.391215889728128
4.501996388698137
4.569695582513134
4.575850054678144
4.520459805193139
4.3727524732331275
4.27428091859311
4.212736196943095
4.200427252613103
4.225045141273086
4.225045141273086
4.225045141273086
4.212736196943095
4.151191475293081
4.225045141273086
4.231199613438097
4.2065817247780855
4.2065817247780855
4.200427252613103
4.181963836118102
4.2065817247780855
4.212736196943095
4.225045141273086
4.218890669108104
4.212736196943095
4.1942727804480935
4.188118308283084
4.181963836118102
4.1758093639530935
4.200427252613103
4.231199613438097
4.237354085603107
4.231199613438097
4.237354085603107
4.231199613438097
4.225045141273086
4.225045141273086
4.231199613438097
4.231199613438097
4.225045141273086
4.2065817247780855
4.200427252613103
4.2065817247780855
4.231199613438097
4.231199613438097
4.218890669108104
4.212736196943095
4.212736196943095
4.225045141273086
4.237354085603107
4.249663029933098
4.249663029933098
4.249663029933098
4.249663029933098
4.243508557768089
4.249663029933098
4.243508557768089
4.243508557768089
4.249663029933098
4.249663029933098
4.249663029933098
4.243508557768089
4.243508557768089
4.237354085603107
4.225045141273086
4.231199613438097
4.249663029933098
4.280435390758093
4.292744335088111
4.2865898629231
4.292744335088111
4.2865898629231
4.2865898629231
4.280435390758093
4.27428091859311
4.2865898629231
4.2865898629231
4.2865898629231
4.280435390758093
4.280435390758093
4.292744335088111
4.298898807253093
4.298898807253093
4.305053279418103
4.292744335088111
4.292744335088111
4.2865898629231
4.280435390758093
4.261971974263091
4.237354085603107
4.231199613438097
4.243508557768089
4.231199613438097
4.231199613438097
4.231199613438097
4.231199613438097
4.225045141273086
4.218890669108104
4.218890669108104
4.225045141273086
4.225045141273086
4.231199613438097
4.218890669108104
4.218890669108104
4.225045141273086
4.225045141273086
4.237354085603107
4.231199613438097
4.212736196943095
4.212736196943095
4.1942727804480935
4.200427252613103
4.200427252613103
4.212736196943095
4.231199613438097
4.225045141273086
4.218890669108104
4.212736196943095
4.200427252613103
4.200427252613103
4.200427252613103
4.2065817247780855
4.212736196943095
4.218890669108104
4.225045141273086
4.237354085603107
4.231199613438097
4.212736196943095
4.2065817247780855
4.218890669108104
4.218890669108104
4.225045141273086
4.225045141273086
4.237354085603107
4.225045141273086
4.157345947458091
4.2065817247780855
4.218890669108104
4.225045141273086
4.218890669108104
4.231199613438097
4.231199613438097
4.237354085603107
4.237354085603107
4.218890669108104
4.2065817247780855
4.2065817247780855
4.2065817247780855
4.2065817247780855
4.218890669108104
4.225045141273086
4.243508557768089
4.249663029933098
4.255817502098108
4.255817502098108
4.249663029933098
4.237354085603107
4.237354085603107
4.237354085603107
4.231199613438097
4.231199613438097
4.237354085603107
4.249663029933098
4.237354085603107
4.231199613438097
4.231199613438097
4.212736196943095
4.2065817247780855
4.218890669108104
4.249663029933098
4.261971974263091
4.255817502098108
4.249663029933098
4.249663029933098
4.237354085603107
4.225045141273086
4.218890669108104
4.212736196943095
4.225045141273086
4.237354085603107
4.231199613438097
4.237354085603107
4.237354085603107
4.243508557768089
4.243508557768089
4.249663029933098
4.255817502098108
4.261971974263091
4.255817502098108
4.255817502098108
4.2681264464281
4.2681264464281
4.27428091859311
4.261971974263091
4.255817502098108
4.255817502098108
4.261971974263091
4.255817502098108
4.249663029933098
4.255817502098108
4.255817502098108
4.249663029933098
4.255817502098108
4.255817502098108
4.243508557768089
4.237354085603107
4.225045141273086
4.231199613438097
4.255817502098108
4.261971974263091
4.2681264464281
4.2681264464281
4.255817502098108
4.261971974263091
4.255817502098108
4.249663029933098
4.243508557768089
4.261971974263091
4.261971974263091
4.255817502098108
4.2681264464281
4.2681264464281
4.261971974263091
4.261971974263091
4.255817502098108
4.255817502098108
4.249663029933098
4.243508557768089
4.249663029933098
4.249663029933098
4.249663029933098
4.261971974263091
4.243508557768089
4.237354085603107
4.255817502098108
4.243508557768089
4.249663029933098
4.243508557768089
4.243508557768089
4.261971974263091
4.27428091859311
4.27428091859311
4.2681264464281
4.261971974263091
4.261971974263091
4.249663029933098
4.249663029933098
4.237354085603107
4.237354085603107
4.249663029933098
4.255817502098108
4.255817502098108
4.255817502098108
4.249663029933098
4.249663029933098
4.255817502098108
4.243508557768089
4.181963836118102
4.237354085603107
4.255817502098108
4.243508557768089
4.231199613438097
4.218890669108104
4.243508557768089
4.243508557768089
4.237354085603107
4.231199613438097
4.231199613438097
4.218890669108104
4.163500419623101
4.200427252613103
4.255817502098108
4.2681264464281
4.27428091859311
4.280435390758093
4.2865898629231
4.280435390758093
4.255817502098108
4.261971974263091
4.261971974263091
4.261971974263091
4.261971974263091
4.261971974263091
4.2681264464281
4.255817502098108
4.243508557768089
4.249663029933098
4.2681264464281
4.2681264464281
4.27428091859311
4.261971974263091
4.249663029933098
4.243508557768089
4.237354085603107
4.243508557768089
4.249663029933098
4.243508557768089
4.243508557768089
4.237354085603107
4.218890669108104
4.218890669108104
4.237354085603107
4.255817502098108
4.243508557768089
4.243508557768089
4.243508557768089
4.243508557768089
4.237354085603107
4.218890669108104
4.1942727804480935
4.200427252613103
4.225045141273086
4.255817502098108
4.2681264464281
4.249663029933098
4.243508557768089
4.243508557768089
4.237354085603107
4.225045141273086
4.218890669108104
4.212736196943095
4.212736196943095
4.2065817247780855
4.231199613438097
4.298898807253093
4.421988250553122
4.514305333028129
4.551232166018132
4.54507769385315
4.458915083543125
4.348134584573115
4.261971974263091
4.200427252613103
4.218890669108104
4.218890669108104
4.231199613438097
4.231199613438097
4.231199613438097
4.231199613438097
4.225045141273086
4.1942727804480935
4.200427252613103
4.2065817247780855
4.225045141273086
4.218890669108104
4.218890669108104
4.225045141273086
4.2065817247780855
4.2065817247780855
4.212736196943095
4.212736196943095
4.218890669108104
4.231199613438097
4.237354085603107
4.237354085603107
4.225045141273086
4.212736196943095
4.225045141273086
4.231199613438097
4.237354085603107
4.212736196943095
4.2065817247780855
4.212736196943095
4.2065817247780855
4.212736196943095
4.225045141273086
4.231199613438097
4.231199613438097
4.225045141273086
4.231199613438097
4.231199613438097
4.218890669108104
4.212736196943095
4.225045141273086
4.237354085603107
4.243508557768089
4.237354085603107
4.243508557768089
4.218890669108104
4.138882530963089
4.231199613438097
4.249663029933098
4.243508557768089
4.237354085603107
4.237354085603107
4.231199613438097
4.2065817247780855
4.188118308283084
4.218890669108104
4.225045141273086
4.237354085603107
4.261971974263091
4.2681264464281
4.2681264464281
4.261971974263091
4.261971974263091
4.261971974263091
4.2681264464281
4.255817502098108
4.261971974263091
4.27428091859311
4.2865898629231
4.2865898629231
4.280435390758093
4.2865898629231
4.280435390758093
4.27428091859311
4.27428091859311
4.261971974263091
4.243508557768089
4.237354085603107
4.243508557768089
4.249663029933098
4.249663029933098
4.249663029933098
4.249663029933098
4.249663029933098
4.231199613438097
4.212736196943095
4.200427252613103
4.200427252613103
4.212736196943095
4.2065817247780855
4.200427252613103
4.200427252613103
4.200427252613103
4.188118308283084
4.188118308283084
4.1942727804480935
4.212736196943095
4.2065817247780855
4.1942727804480935
4.1758093639530935
4.181963836118102
4.1942727804480935
4.200427252613103
4.2065817247780855
4.212736196943095
4.2065817247780855
4.200427252613103
4.1942727804480935
4.188118308283084
4.188118308283084
4.2065817247780855
4.200427252613103
4.188118308283084
4.200427252613103
4.1942727804480935
4.200427252613103
4.1942727804480935
4.188118308283084
4.1758093639530935
4.1758093639530935
4.1758093639530935
4.181963836118102
4.200427252613103
4.188118308283084
4.1758093639530935
4.200427252613103
4.212736196943095
4.218890669108104
4.218890669108104
4.218890669108104
4.212736196943095
4.2065817247780855
4.200427252613103
4.2065817247780855
4.218890669108104
4.212736196943095
4.2065817247780855
4.188118308283084
4.1758093639530935
4.181963836118102
4.200427252613103
4.225045141273086
4.225045141273086
4.218890669108104
4.225045141273086
4.212736196943095
4.212736196943095
4.212736196943095
4.218890669108104
4.212736196943095
4.212736196943095
4.2065817247780855
4.2065817247780855
4.2065817247780855
4.200427252613103
4.200427252613103
4.2065817247780855
4.225045141273086
4.225045141273086
4.237354085603107
4.225045141273086
4.212736196943095
4.2065817247780855
4.200427252613103
4.2065817247780855
4.225045141273086
4.231199613438097
4.212736196943095
4.145037003128072
4.2065817247780855
4.218890669108104
4.1942727804480935
4.212736196943095
4.225045141273086
4.237354085603107
4.231199613438097
4.225045141273086
4.212736196943095
4.2065817247780855
4.212736196943095
4.237354085603107
4.237354085603107
4.237354085603107
4.231199613438097
4.231199613438097
4.237354085603107
4.243508557768089
4.231199613438097
4.237354085603107
4.237354085603107
4.237354085603107
4.243508557768089
4.243508557768089
4.249663029933098
4.237354085603107
4.231199613438097
4.237354085603107
4.231199613438097
4.212736196943095
4.212736196943095
4.218890669108104
4.231199613438097
4.243508557768089
4.243508557768089
4.255817502098108
4.255817502098108
4.249663029933098
4.249663029933098
4.237354085603107
4.231199613438097
4.231199613438097
4.237354085603107
4.249663029933098
4.231199613438097
4.231199613438097
4.237354085603107
4.255817502098108
4.255817502098108
4.255817502098108
4.249663029933098
4.249663029933098
4.249663029933098
4.249663029933098
4.255817502098108
4.249663029933098
4.231199613438097
4.231199613438097
4.237354085603107
4.249663029933098
4.249663029933098
4.243508557768089
4.237354085603107
4.249663029933098
4.243508557768089
4.243508557768089
4.249663029933098
4.249663029933098
4.243508557768089
4.231199613438097
4.218890669108104
4.212736196943095
4.212736196943095
4.237354085603107
4.255817502098108
4.261971974263091
4.261971974263091
4.255817502098108
4.243508557768089
4.255817502098108
4.212736196943095
4.181963836118102
4.249663029933098
4.261971974263091
4.261971974263091
4.261971974263091
4.249663029933098
4.249663029933098
4.231199613438097
4.218890669108104
4.225045141273086
4.243508557768089
4.243508557768089
4.231199613438097
4.249663029933098
4.249663029933098
4.261971974263091
4.2681264464281
4.261971974263091
4.2681264464281
4.249663029933098
4.261971974263091
4.261971974263091
4.2681264464281
4.2681264464281
4.2681264464281
4.2681264464281
4.261971974263091
4.2681264464281
4.261971974263091
4.261971974263091
4.249663029933098
4.237354085603107
4.249663029933098
4.255817502098108
4.2681264464281
4.2681264464281
4.2681264464281
4.261971974263091
4.249663029933098
4.225045141273086
4.163500419623101
4.249663029933098
4.261971974263091
4.255817502098108
4.243508557768089
4.237354085603107
4.231199613438097
4.212736196943095
4.225045141273086
4.237354085603107
4.231199613438097
4.212736196943095
4.212736196943095
4.212736196943095
4.225045141273086
4.249663029933098
4.2681264464281
4.261971974263091
4.255817502098108
4.249663029933098
4.249663029933098
4.237354085603107
4.218890669108104
4.212736196943095
4.218890669108104
4.237354085603107
4.3112077515831135
4.421988250553122
4.52661427735815
4.5820045268431535
4.569695582513134
4.471224027873144
4.360443528903107
4.27428091859311
4.231199613438097
4.218890669108104
4.231199613438097
4.231199613438097
4.243508557768089
4.255817502098108
4.243508557768089
4.237354085603107
4.237354085603107
4.243508557768089
4.261971974263091
4.249663029933098
4.237354085603107
4.237354085603107
4.225045141273086
4.231199613438097
4.237354085603107
4.243508557768089
4.225045141273086
4.212736196943095
4.212736196943095
4.225045141273086
4.243508557768089
4.249663029933098
4.255817502098108
4.249663029933098
4.255817502098108
4.255817502098108
4.255817502098108
4.255817502098108
4.2681264464281
4.2681264464281
4.261971974263091
4.255817502098108
4.249663029933098
4.237354085603107
4.243508557768089
4.249663029933098
4.261971974263091
4.261971974263091
4.255817502098108
4.249663029933098
4.237354085603107
4.243508557768089
4.2681264464281
4.2865898629231
4.280435390758093
4.2865898629231
4.280435390758093
4.292744335088111
4.292744335088111
4.280435390758093
4.280435390758093
4.280435390758093
4.292744335088111
4.292744335088111
4.298898807253093
4.2865898629231
4.27428091859311
4.2681264464281
4.280435390758093
4.27428091859311
4.280435390758093
4.298898807253093
4.3112077515831135
4.3173622237481215
4.3112077515831135
4.3112077515831135
4.3112077515831135
4.298898807253093
4.305053279418103
4.3173622237481215
4.3173622237481215
4.3112077515831135
4.292744335088111
4.298898807253093
4.305053279418103
4.3112077515831135
4.305053279418103
4.298898807253093
4.292744335088111
4.2681264464281
4.255817502098108
4.261971974263091
4.261971974263091
4.27428091859311
4.261971974263091
4.225045141273086
4.169654891788083
4.237354085603107
4.231199613438097
4.243508557768089
4.243508557768089
4.243508557768089
4.237354085603107
4.231199613438097
4.237354085603107
4.225045141273086
4.231199613438097
4.231199613438097
4.225045141273086
4.218890669108104
4.212736196943095
4.231199613438097
4.243508557768089
4.261971974263091
4.2681264464281
4.249663029933098
4.249663029933098
4.243508557768089
4.255817502098108
4.249663029933098
4.249663029933098
4.237354085603107
4.237354085603107
4.243508557768089
4.243508557768089
4.237354085603107
4.237354085603107
4.243508557768089
4.261971974263091
4.249663029933098
4.255817502098108
4.231199613438097
4.231199613438097
4.243508557768089
4.261971974263091
4.261971974263091
4.261971974263091
4.249663029933098
4.249663029933098
4.255817502098108
4.261971974263091
4.261971974263091
4.2681264464281
4.2681264464281
4.2681264464281
4.261971974263091
4.2681264464281
4.2681264464281
4.261971974263091
4.261971974263091
4.255817502098108
4.255817502098108
4.231199613438097
4.237354085603107
4.243508557768089
4.243508557768089
4.243508557768089
4.261971974263091
4.261971974263091
4.255817502098108
4.255817502098108
4.255817502098108
4.261971974263091
4.255817502098108
4.255817502098108
4.243508557768089
4.243508557768089
4.255817502098108
4.249663029933098
4.243508557768089
4.249663029933098
4.261971974263091
4.2681264464281
4.255817502098108
4.255817502098108
4.249663029933098
4.237354085603107
4.249663029933098
4.261971974263091
4.261971974263091
4.249663029933098
4.249663029933098
4.249663029933098
4.261971974263091
4.255817502098108
4.261971974263091
4.261971974263091
4.255817502098108
4.237354085603107
4.255817502098108
4.261971974263091
4.255817502098108
4.261971974263091
4.2681264464281
4.27428091859311
4.2681264464281
4.27428091859311
4.261971974263091
4.255817502098108
4.255817502098108
4.255817502098108
4.255817502098108
4.237354085603107
4.231199613438097
4.249663029933098
4.255817502098108
4.261971974263091
4.243508557768089
4.243508557768089
4.249663029933098
4.261971974263091
4.261971974263091
4.255817502098108
4.261971974263091
4.261971974263091
4.255817502098108
4.255817502098108
4.231199613438097
4.169654891788083
4.243508557768089
4.2681264464281
4.255817502098108
4.249663029933098
4.225045141273086
4.225045141273086
4.231199613438097
4.231199613438097
4.231199613438097
4.243508557768089
4.249663029933098
4.255817502098108
4.255817502098108
4.249663029933098
4.249663029933098
4.249663029933098
4.255817502098108
4.255817502098108
4.255817502098108
4.249663029933098
4.243508557768089
4.243508557768089
4.237354085603107
4.237354085603107
4.237354085603107
4.237354085603107
4.237354085603107
4.218890669108104
4.157345947458091
4.237354085603107
4.237354085603107
4.249663029933098
4.255817502098108
4.2681264464281
4.2681264464281
4.237354085603107
4.231199613438097
4.231199613438097
4.237354085603107
4.243508557768089
4.243508557768089
4.243508557768089
4.237354085603107
4.225045141273086
4.231199613438097
4.225045141273086
4.218890669108104
4.231199613438097
4.243508557768089
4.255817502098108
4.243508557768089
4.225045141273086
4.225045141273086
4.237354085603107
4.249663029933098
4.255817502098108
4.255817502098108
4.255817502098108
4.249663029933098
4.243508557768089
4.243508557768089
4.237354085603107
4.237354085603107
4.237354085603107
4.231199613438097
4.218890669108104
4.218890669108104
4.212736196943095
4.212736196943095
4.212736196943095
4.188118308283084
4.200427252613103
4.2065817247780855
4.2065817247780855
4.212736196943095
4.218890669108104
4.218890669108104
4.218890669108104
4.212736196943095
4.218890669108104
4.212736196943095
4.212736196943095
4.200427252613103
4.2065817247780855
4.2065817247780855
4.200427252613103
4.200427252613103
4.1942727804480935
4.188118308283084
4.200427252613103
4.200427252613103
4.188118308283084
4.1758093639530935
4.1758093639530935
4.181963836118102
4.188118308283084
4.243508557768089
4.329671168078114
4.440451667048122
4.52661427735815
4.557386638183142
4.52661427735815
4.40967930622313
4.2865898629231
4.1942727804480935
4.163500419623101
4.1942727804480935
4.212736196943095
4.225045141273086
4.237354085603107
4.225045141273086
4.2065817247780855
4.218890669108104
4.2065817247780855
4.212736196943095
4.212736196943095
4.212736196943095
4.200427252613103
4.2065817247780855
4.212736196943095
4.1942727804480935
4.108110170138069
4.169654891788083
4.1942727804480935
4.1942727804480935
4.200427252613103
4.188118308283084
4.200427252613103
4.200427252613103
4.2065817247780855
4.2065817247780855
4.200427252613103
4.212736196943095
4.218890669108104
4.218890669108104
4.218890669108104
4.200427252613103
4.200427252613103
4.2065817247780855
4.1942727804480935
4.181963836118102
4.200427252613103
4.2065817247780855
4.218890669108104
4.225045141273086
4.218890669108104
4.212736196943095
4.218890669108104
4.225045141273086
4.2065817247780855
4.200427252613103
4.218890669108104
4.225045141273086
4.225045141273086
4.231199613438097
4.231199613438097
4.237354085603107
4.237354085603107
4.225045141273086
4.2065817247780855
4.218890669108104
4.212736196943095
4.231199613438097
4.249663029933098
4.255817502098108
4.261971974263091
4.261971974263091
4.261971974263091
4.249663029933098
4.255817502098108
4.261971974263091
4.261971974263091
4.27428091859311
4.27428091859311
4.280435390758093
4.2681264464281
4.261971974263091
4.249663029933098
4.243508557768089
4.255817502098108
4.2865898629231
4.298898807253093
4.280435390758093
4.2681264464281
4.249663029933098
4.261971974263091
4.243508557768089
4.231199613438097
4.225045141273086
4.218890669108104
4.218890669108104
4.212736196943095
4.212736196943095
4.218890669108104
4.218890669108104
4.2065817247780855
4.200427252613103
4.212736196943095
4.218890669108104
4.231199613438097
4.218890669108104
4.2065817247780855
4.212736196943095
4.212736196943095
4.212736196943095
4.225045141273086
4.225045141273086
4.218890669108104
4.200427252613103
4.200427252613103
4.2065817247780855
4.212736196943095
4.2065817247780855
4.2065817247780855
4.212736196943095
4.212736196943095
4.212736196943095
4.212736196943095
4.200427252613103
4.188118308283084
4.200427252613103
4.212736196943095
4.225045141273086
4.231199613438097
4.237354085603107
4.231199613438097
4.231199613438097
4.231199613438097
4.231199613438097
4.231199613438097
4.218890669108104
4.200427252613103
4.2065817247780855
4.218890669108104
4.225045141273086
4.243508557768089
4.243508557768089
4.218890669108104
4.2065817247780855
4.2065817247780855
4.212736196943095
4.225045141273086
4.212736196943095
4.157345947458091
4.218890669108104
4.225045141273086
4.212736196943095
4.188118308283084
4.200427252613103
4.2065817247780855
4.218890669108104
4.218890669108104
4.212736196943095
4.200427252613103
4.212736196943095
4.231199613438097
4.249663029933098
4.237354085603107
4.231199613438097
4.212736196943095
4.2065817247780855
4.218890669108104
4.218890669108104
4.212736196943095
4.225045141273086
4.2065817247780855
4.212736196943095
4.2065817247780855
4.212736196943095
4.200427252613103
4.200427252613103
4.212736196943095
4.200427252613103
4.2065817247780855
4.225045141273086
4.243508557768089
4.249663029933098
4.231199613438097
4.218890669108104
4.2065817247780855
4.225045141273086
4.237354085603107
4.237354085603107
4.225045141273086
4.218890669108104
4.218890669108104
4.2065817247780855
4.212736196943095
4.218890669108104
4.2065817247780855
4.188118308283084
4.188118308283084
4.200427252613103
4.218890669108104
4.225045141273086
4.231199613438097
4.231199613438097
4.231199613438097
4.231199613438097
4.237354085603107
4.218890669108104
4.218890669108104
4.231199613438097
4.243508557768089
4.231199613438097
4.237354085603107
4.231199613438097
4.218890669108104
4.2065817247780855
4.225045141273086
4.225045141273086
4.231199613438097
4.243508557768089
4.249663029933098
4.249663029933098
4.237354085603107
4.231199613438097
4.231199613438097
4.237354085603107
4.231199613438097
4.231199613438097
4.225045141273086
4.231199613438097
4.225045141273086
4.218890669108104
4.212736196943095
4.237354085603107
4.249663029933098
4.261971974263091
4.2681264464281
4.249663029933098
4.237354085603107
4.237354085603107
4.249663029933098
4.249663029933098
4.261971974263091
4.261971974263091
4.255817502098108
4.261971974263091
4.255817502098108
4.243508557768089
4.169654891788083
4.243508557768089
4.261971974263091
4.261971974263091
4.243508557768089
4.231199613438097
4.243508557768089
4.243508557768089
4.231199613438097
4.231199613438097
4.249663029933098
4.255817502098108
4.249663029933098
4.261971974263091
4.27428091859311
4.2681264464281
4.27428091859311
4.261971974263091
4.261971974263091
4.2681264464281
4.2681264464281
4.255817502098108
4.261971974263091
4.243508557768089
4.188118308283084
4.280435390758093
4.298898807253093
4.2865898629231
4.280435390758093
4.280435390758093
4.27428091859311
4.249663029933098
4.255817502098108
4.255817502098108
4.2681264464281
4.261971974263091
4.261971974263091
4.255817502098108
4.255817502098108
4.243508557768089
4.237354085603107
4.243508557768089
4.261971974263091
4.2681264464281
4.255817502098108
4.261971974263091
4.249663029933098
4.243508557768089
4.237354085603107
4.255817502098108
4.255817502098108
4.261971974263091
4.243508557768089
4.243508557768089
4.243508557768089
4.249663029933098
4.237354085603107
4.249663029933098
4.249663029933098
4.261971974263091
4.27428091859311
4.2681264464281
4.261971974263091
4.261971974263091
4.255817502098108
4.249663029933098
4.243508557768089
4.237354085603107
4.231199613438097
4.218890669108104
4.237354085603107
4.323516695913104
4.446606139213133
4.54507769385315
4.575850054678144
4.557386638183142
4.446606139213133
4.341980112408105
4.2681264464281
4.237354085603107
4.255817502098108
4.261971974263091
4.255817502098108
4.243508557768089
4.255817502098108
4.261971974263091
4.255817502098108
4.255817502098108
4.249663029933098
4.231199613438097
4.249663029933098
4.2681264464281
4.27428091859311
4.255817502098108
4.243508557768089
4.249663029933098
4.255817502098108
4.243508557768089
4.255817502098108
4.261971974263091
4.261971974263091
4.255817502098108
4.261971974263091
4.261971974263091
4.2681264464281
4.255817502098108
4.249663029933098
4.218890669108104
4.231199613438097
4.243508557768089
4.243508557768089
4.261971974263091
4.261971974263091
4.261971974263091
4.261971974263091
4.261971974263091
4.280435390758093
4.255817502098108
4.27428091859311
4.261971974263091
4.27428091859311
4.27428091859311
4.261971974263091
4.255817502098108
4.249663029933098
4.255817502098108
4.261971974263091
4.255817502098108
4.237354085603107
4.2681264464281
4.292744335088111
4.305053279418103
4.298898807253093
4.298898807253093
4.292744335088111
4.335825640243124
4.335825640243124
4.305053279418103
4.27428091859311
4.255817502098108
4.27428091859311
4.2865898629231
4.305053279418103
4.329671168078114
4.323516695913104
4.280435390758093
4.212736196943095
4.298898807253093
4.329671168078114
4.37890694539811
4.421988250553122
4.391215889728128
4.366598001068117
4.3173622237481215
4.305053279418103
4.3112077515831135
4.305053279418103
4.305053279418103
4.3112077515831135
4.3112077515831135
4.323516695913104
4.305053279418103
4.298898807253093
4.305053279418103
4.3112077515831135
4.329671168078114
4.305053279418103
4.298898807253093
4.298898807253093
4.354289056738125
4.341980112408105
4.3112077515831135
4.298898807253093
4.2681264464281
4.2865898629231
4.305053279418103
4.305053279418103
4.298898807253093
4.2865898629231
4.27428091859311
4.2681264464281
4.255817502098108
4.243508557768089
4.249663029933098
4.280435390758093
4.280435390758093
4.3173622237481215
4.348134584573115
4.37890694539811
4.354289056738125
4.298898807253093
4.255817502098108
4.255817502098108
4.280435390758093
4.2865898629231
4.280435390758093
4.280435390758093
4.2865898629231
4.292744335088111
4.298898807253093
4.3173622237481215
4.3112077515831135
4.292744335088111
4.305053279418103
4.335825640243124
4.329671168078114
4.323516695913104
4.354289056738125
4.40967930622313
4.40352483405812
4.360443528903107
4.280435390758093
4.243508557768089
4.255817502098108
4.27428091859311
4.280435390758093
4.280435390758093
4.2681264464281
4.292744335088111
4.323516695913104
4.348134584573115
4.341980112408105
4.3173622237481215
4.292744335088111
4.27428091859311
4.280435390758093
4.2865898629231
4.305053279418103
4.354289056738125
4.40352483405812
4.440451667048122
4.434297194883113
4.37890694539811
4.323516695913104
4.27428091859311
4.280435390758093
4.305053279418103
4.329671168078114
4.323516695913104
4.323516695913104
4.2865898629231
4.2865898629231
4.2865898629231
4.298898807253093
4.3112077515831135
4.335825640243124
4.341980112408105
4.341980112408105
4.335825640243124
4.37890694539811
4.385061417563119
4.354289056738125
4.2865898629231
4.237354085603107
4.243508557768089
4.280435390758093
4.305053279418103
4.323516695913104
4.329671168078114
4.323516695913104
4.3173622237481215
4.3112077515831135
4.3112077515831135
4.3173622237481215
4.3112077515831135
4.3173622237481215
4.3112077515831135
4.292744335088111
4.225045141273086
4.27428091859311
4.305053279418103
4.37890694539811
4.391215889728128
4.354289056738125
4.280435390758093
4.261971974263091
4.2681264464281
4.292744335088111
4.280435390758093
4.298898807253093
4.323516695913104
4.3112077515831135
4.3112077515831135
4.323516695913104
4.348134584573115
4.366598001068117
4.354289056738125
4.329671168078114
4.305053279418103
4.305053279418103
4.341980112408105
4.397370361893111
4.385061417563119
4.329671168078114
4.280435390758093
4.255817502098108
4.2681264464281
4.280435390758093
4.298898807253093
4.305053279418103
4.323516695913104
4.341980112408105
4.3727524732331275
4.341980112408105
4.3112077515831135
4.27428091859311
4.255817502098108
4.2681264464281
4.280435390758093
4.305053279418103
4.3112077515831135
4.3173622237481215
4.3173622237481215
4.2865898629231
4.385061417563119
4.397370361893111
4.360443528903107
4.292744335088111
4.292744335088111
4.305053279418103
4.280435390758093
4.280435390758093
4.298898807253093
4.3112077515831135
4.3173622237481215
4.3112077515831135
4.2865898629231
4.27428091859311
4.27428091859311
4.27428091859311
4.2865898629231
4.2865898629231
4.323516695913104
4.385061417563119
4.397370361893111
4.354289056738125
4.298898807253093
4.2865898629231
4.298898807253093
4.305053279418103
4.3112077515831135
4.305053279418103
4.27428091859311
4.255817502098108
4.280435390758093
4.354289056738125
4.37890694539811
4.329671168078114
4.280435390758093
4.255817502098108
4.2865898629231
4.298898807253093
4.305053279418103
4.305053279418103
4.298898807253093
4.280435390758093
4.261971974263091
4.280435390758093
4.2865898629231
4.2865898629231
4.280435390758093
4.3173622237481215
4.354289056738125
4.3112077515831135
4.2681264464281
4.225045141273086
4.212736196943095
4.237354085603107
4.261971974263091
4.2865898629231
4.2681264464281
4.27428091859311
4.2865898629231
4.298898807253093
4.292744335088111
4.354289056738125
4.348134584573115
4.323516695913104
4.255817502098108
4.1942727804480935
4.212736196943095
4.231199613438097
4.231199613438097
4.237354085603107
4.3173622237481215
4.440451667048122
4.557386638183142
4.5943134711731455
4.6435492484931675
4.569695582513134
4.360443528903107
4.255817502098108
4.1758093639530935
4.188118308283084
4.218890669108104
4.231199613438097
4.255817502098108
4.255817502098108
4.243508557768089
4.243508557768089
4.2681264464281
4.2865898629231
4.280435390758093
4.3112077515831135
4.2865898629231
4.237354085603107
4.200427252613103
4.200427252613103
4.237354085603107
4.231199613438097
4.255817502098108
4.2681264464281
4.255817502098108
4.249663029933098
4.255817502098108
4.243508557768089
4.249663029933098
4.249663029933098
4.323516695913104
4.329671168078114
4.298898807253093
4.255817502098108
4.225045141273086
4.231199613438097
4.249663029933098
4.237354085603107
4.237354085603107
4.237354085603107
4.225045141273086
4.225045141273086
4.3173622237481215
4.3173622237481215
4.2865898629231
4.225045141273086
4.212736196943095
4.237354085603107
4.237354085603107
4.237354085603107
4.231199613438097
4.237354085603107
4.27428091859311
4.305053279418103
4.3112077515831135
4.298898807253093
4.305053279418103
4.292744335088111
4.280435390758093
4.2865898629231
4.298898807253093
4.292744335088111
4.292744335088111
4.292744335088111
4.2865898629231
4.292744335088111
4.360443528903107
4.360443528903107
4.3112077515831135
4.237354085603107
4.218890669108104
4.261971974263091
4.280435390758093
4.305053279418103
4.3112077515831135
4.341980112408105
4.341980112408105
4.348134584573115
4.397370361893111
4.40352483405812
4.366598001068117
4.3173622237481215
4.280435390758093
4.2865898629231
4.305053279418103
4.305053279418103
4.3112077515831135
4.2865898629231
4.27428091859311
4.255817502098108
4.243508557768089
4.225045141273086
4.243508557768089
4.261971974263091
4.255817502098108
4.255817502098108
4.261971974263091
4.255817502098108
4.3173622237481215
4.3727524732331275
4.323516695913104
4.243508557768089
4.1758093639530935
4.169654891788083
4.1942727804480935
4.212736196943095
4.237354085603107
4.261971974263091
4.280435390758093
4.335825640243124
4.3727524732331275
4.348134584573115
4.280435390758093
4.243508557768089
4.243508557768089
4.249663029933098
4.261971974263091
4.255817502098108
4.255817502098108
4.255817502098108
4.237354085603107
4.237354085603107
4.261971974263091
4.27428091859311
4.225045141273086
4.27428091859311
4.280435390758093
4.298898807253093
4.298898807253093
4.237354085603107
4.1942727804480935
4.1942727804480935
4.243508557768089
4.27428091859311
4.27428091859311
4.255817502098108
4.231199613438097
4.27428091859311
4.354289056738125
4.37890694539811
4.335825640243124
4.2681264464281
4.218890669108104
4.231199613438097
4.255817502098108
4.261971974263091
4.2681264464281
4.2681264464281
4.255817502098108
4.280435390758093
4.3112077515831135
4.298898807253093
4.2681264464281
4.2681264464281
4.2865898629231
4.323516695913104
4.40352483405812
4.40967930622313
4.348134584573115
4.27428091859311
4.218890669108104
4.249663029933098
4.2681264464281
4.2681264464281
4.2865898629231
4.2865898629231
4.292744335088111
4.2865898629231
4.261971974263091
4.27428091859311
4.37890694539811
4.434297194883113
4.397370361893111
4.3112077515831135
4.261971974263091
4.249663029933098
4.261971974263091
4.27428091859311
4.305053279418103
4.305053279418103
4.298898807253093
4.292744335088111
4.2865898629231
4.27428091859311
4.335825640243124
4.366598001068117
4.329671168078114
4.2865898629231
4.280435390758093
4.280435390758093
4.292744335088111
4.298898807253093
4.298898807253093
4.323516695913104
4.323516695913104
4.3112077515831135
4.298898807253093
4.305053279418103
4.298898807253093
4.280435390758093
4.280435390758093
4.2681264464281
4.292744335088111
4.329671168078114
4.360443528903107
4.40967930622313
4.37890694539811
4.292744335088111
4.225045141273086
4.218890669108104
4.255817502098108
4.3112077515831135
4.329671168078114
4.323516695913104
4.3173622237481215
4.305053279418103
4.2865898629231
4.298898807253093
4.3173622237481215
4.323516695913104
4.3112077515831135
4.335825640243124
4.341980112408105
4.280435390758093
4.237354085603107
4.212736196943095
4.2681264464281
4.323516695913104
4.335825640243124
4.329671168078114
4.3173622237481215
4.3112077515831135
4.298898807253093
4.335825640243124
4.360443528903107
4.3112077515831135
4.2681264464281
4.237354085603107
4.169654891788083
4.231199613438097
4.2865898629231
4.280435390758093
4.261971974263091
4.261971974263091
4.2681264464281
4.261971974263091
4.1942727804480935
4.280435390758093
4.348134584573115
4.366598001068117
4.3112077515831135
4.261971974263091
4.231199613438097
4.27428091859311
4.2681264464281
4.27428091859311
4.249663029933098
4.261971974263091
4.280435390758093
4.2865898629231
4.323516695913104
4.3173622237481215
4.305053279418103
4.3173622237481215
4.3173622237481215
4.3112077515831135
4.3112077515831135
4.298898807253093
4.298898807253093
4.354289056738125
4.391215889728128
4.341980112408105
4.27428091859311
4.237354085603107
4.237354085603107
4.231199613438097
4.249663029933098
4.261971974263091
4.2865898629231
4.305053279418103
4.298898807253093
4.305053279418103
4.298898807253093
4.323516695913104
4.329671168078114
4.27428091859311
4.255817502098108
4.225045141273086
4.255817502098108
4.292744335088111
4.292744335088111
4.27428091859311
4.27428091859311
4.261971974263091
4.261971974263091
4.2681264464281
4.2681264464281
4.27428091859311
4.2865898629231
4.348134584573115
4.341980112408105
4.3112077515831135
4.341980112408105
4.415833778388112
4.495841916533129
4.54507769385315
4.569695582513134
4.501996388698137
4.465069555708134
4.397370361893111
4.280435390758093
4.231199613438097
4.200427252613103
4.2065817247780855
4.261971974263091
4.305053279418103
4.3112077515831135
4.305053279418103
4.280435390758093
4.255817502098108
4.2681264464281
4.27428091859311
4.27428091859311
4.280435390758093
4.27428091859311
4.27428091859311
4.305053279418103
4.354289056738125
4.323516695913104
4.27428091859311
4.218890669108104
4.212736196943095
4.243508557768089
4.249663029933098
4.249663029933098
4.255817502098108
4.255817502098108
4.243508557768089
4.249663029933098
4.249663029933098
4.243508557768089
4.237354085603107
4.2681264464281
4.329671168078114
4.2865898629231
4.249663029933098
4.218890669108104
4.218890669108104
4.231199613438097
4.243508557768089
4.237354085603107
4.255817502098108
4.261971974263091
4.2681264464281
4.261971974263091
4.280435390758093
4.335825640243124
4.3112077515831135
4.261971974263091
4.212736196943095
4.2065817247780855
4.249663029933098
4.27428091859311
4.27428091859311
4.27428091859311
4.261971974263091
4.249663029933098
4.243508557768089
4.237354085603107
4.3173622237481215
4.335825640243124
4.3173622237481215
4.305053279418103
4.298898807253093
4.3173622237481215
4.37890694539811
4.360443528903107
4.305053279418103
4.261971974263091
4.243508557768089
4.280435390758093
4.305053279418103
4.298898807253093
4.305053279418103
4.305053279418103
4.3112077515831135
4.3173622237481215
4.329671168078114
4.323516695913104
4.298898807253093
4.2865898629231
4.27428091859311
4.335825640243124
4.348134584573115
4.27428091859311
4.218890669108104
4.169654891788083
4.169654891788083
4.231199613438097
4.2865898629231
4.298898807253093
4.298898807253093
4.280435390758093
4.2865898629231
4.2865898629231
4.280435390758093
4.2865898629231
4.27428091859311
4.2681264464281
4.305053279418103
4.329671168078114
4.27428091859311
4.237354085603107
4.200427252613103
4.1942727804480935
4.200427252613103
4.212736196943095
4.231199613438097
4.243508557768089
4.249663029933098
4.261971974263091
4.27428091859311
4.292744335088111
4.2865898629231
4.2865898629231
4.292744335088111
4.3173622237481215
4.366598001068117
4.3112077515831135
4.200427252613103
4.145037003128072
4.138882530963089
4.212736196943095
4.261971974263091
4.261971974263091
4.2681264464281
4.348134584573115
4.335825640243124
4.2681264464281
4.243508557768089
4.255817502098108
4.2681264464281
4.243508557768089
4.243508557768089
4.255817502098108
4.249663029933098
4.2681264464281
4.2681264464281
4.3173622237481215
4.348134584573115
4.298898807253093
4.249663029933098
4.237354085603107
4.218890669108104
4.225045141273086
4.261971974263091
4.27428091859311
4.261971974263091
4.255817502098108
4.231199613438097
4.298898807253093
4.366598001068117
4.3112077515831135
4.261971974263091
4.212736196943095
4.212736196943095
4.249663029933098
4.292744335088111
4.323516695913104
4.3112077515831135
4.3112077515831135
4.3727524732331275
4.348134584573115
4.255817502098108
4.188118308283084
4.181963836118102
4.2065817247780855
4.255817502098108
4.2865898629231
4.305053279418103
4.298898807253093
4.292744335088111
4.298898807253093
4.305053279418103
4.348134584573115
4.397370361893111
4.335825640243124
4.249663029933098
4.200427252613103
4.188118308283084
4.138882530963089
4.212736196943095
4.243508557768089
4.280435390758093
4.323516695913104
4.323516695913104
4.305053279418103
4.2865898629231
4.366598001068117
4.391215889728128
4.335825640243124
4.243508557768089
4.181963836118102
4.200427252613103
4.231199613438097
4.249663029933098
4.249663029933098
4.243508557768089
4.27428091859311
4.298898807253093
4.323516695913104
4.397370361893111
4.385061417563119
4.323516695913104
4.237354085603107
4.169654891788083
4.181963836118102
4.218890669108104
4.249663029933098
4.27428091859311
4.329671168078114
4.348134584573115
4.2681264464281
4.231199613438097
4.237354085603107
4.280435390758093
4.3112077515831135
4.2865898629231
4.237354085603107
4.231199613438097
4.255817502098108
4.305053279418103
4.348134584573115
4.385061417563119
4.323516695913104
4.231199613438097
4.188118308283084
4.200427252613103
4.218890669108104
4.231199613438097
4.237354085603107
4.2681264464281
4.354289056738125
4.3173622237481215
4.261971974263091
4.225045141273086
4.200427252613103
4.212736196943095
4.225045141273086
4.249663029933098
4.292744335088111
4.225045141273086
4.1942727804480935
4.237354085603107
4.2065817247780855
4.1942727804480935
4.261971974263091
4.335825640243124
4.298898807253093
4.218890669108104
4.188118308283084
4.2065817247780855
4.255817502098108
4.2681264464281
4.249663029933098
4.255817502098108
4.249663029933098
4.323516695913104
4.323516695913104
4.249663029933098
4.200427252613103
4.212736196943095
4.243508557768089
4.2681264464281
4.2865898629231
4.305053279418103
4.298898807253093
4.249663029933098
4.2065817247780855
4.212736196943095
4.298898807253093
4.391215889728128
4.323516695913104
4.231199613438097
4.1942727804480935
4.212736196943095
4.280435390758093
4.298898807253093
4.280435390758093
4.249663029933098
4.225045141273086
4.231199613438097
4.292744335088111
4.2865898629231
4.249663029933098
4.243508557768089
4.237354085603107
4.292744335088111
4.292744335088111
4.292744335088111
4.298898807253093
4.2865898629231
4.231199613438097
4.200427252613103
4.255817502098108
4.243508557768089
4.237354085603107
4.231199613438097
4.255817502098108
4.323516695913104
4.40967930622313
4.471224027873144
4.501996388698137
4.569695582513134
4.5327687495231315
4.434297194883113
4.323516695913104
4.243508557768089
4.218890669108104
4.243508557768089
4.3112077515831135
4.3727524732331275
4.348134584573115
4.292744335088111
4.237354085603107
4.237354085603107
4.261971974263091
4.305053279418103
4.348134584573115
4.341980112408105
4.335825640243124
4.348134584573115
4.366598001068117
4.385061417563119
4.385061417563119
4.391215889728128
4.477378500038126
4.483532972203136
4.421988250553122
4.391215889728128
4.3727524732331275
4.385061417563119
4.440451667048122
4.465069555708134
4.440451667048122
4.452760611378115
4.446606139213133
4.428142722718132
4.434297194883113
4.446606139213133
4.458915083543125
4.471224027873144
4.471224027873144
4.446606139213133
4.452760611378115
4.446606139213133
4.446606139213133
4.495841916533129
4.514305333028129
4.471224027873144
4.397370361893111
4.348134584573115
4.385061417563119
4.415833778388112
4.446606139213133
4.446606139213133
4.440451667048122
4.440451667048122
4.440451667048122
4.421988250553122
4.421988250553122
4.40352483405812
4.391215889728128
4.385061417563119
4.385061417563119
4.37890694539811
4.3727524732331275
4.415833778388112
4.428142722718132
4.471224027873144
4.495841916533129
4.446606139213133
4.37890694539811
4.329671168078114
4.341980112408105
4.37890694539811
4.40352483405812
4.391215889728128
4.391215889728128
4.397370361893111
4.40352483405812
4.397370361893111
4.397370361893111
4.37890694539811
4.348134584573115
4.335825640243124
4.360443528903107
4.434297194883113
4.391215889728128
4.292744335088111
4.218890669108104
4.1942727804480935
4.218890669108104
4.2681264464281
4.2865898629231
4.2865898629231
4.2681264464281
4.261971974263091
4.27428091859311
4.3112077515831135
4.385061417563119
4.360443528903107
4.292744335088111
4.212736196943095
4.169654891788083
4.181963836118102
4.181963836118102
4.2065817247780855
4.212736196943095
4.225045141273086
4.298898807253093
4.298898807253093
4.212736196943095
4.138882530963089
4.114264642303079
4.188118308283084
4.231199613438097
4.237354085603107
4.243508557768089
4.218890669108104
4.218890669108104
4.2865898629231
4.27428091859311
4.1758093639530935
4.0465654484880815
4.077337809313075
4.1327280587980795
4.188118308283084
4.218890669108104
4.225045141273086
4.237354085603107
4.1758093639530935
4.089646753643067
4.058874392818074
4.1327280587980795
4.169654891788083
4.181963836118102
4.1758093639530935
4.1942727804480935
4.188118308283084
4.163500419623101
4.188118308283084
4.261971974263091
4.212736196943095
4.1327280587980795
4.0711833371480655
4.089646753643067
4.114264642303079
4.1327280587980795
4.157345947458091
4.2065817247780855
4.225045141273086
4.181963836118102
4.108110170138069
4.114264642303079
4.169654891788083
4.181963836118102
4.188118308283084
4.1758093639530935
4.1758093639530935
4.181963836118102
4.212736196943095
4.280435390758093
4.261971974263091
4.169654891788083
4.089646753643067
4.0711833371480655
4.114264642303079
4.1327280587980795
4.163500419623101
4.218890669108104
4.225045141273086
4.218890669108104
4.212736196943095
4.231199613438097
4.249663029933098
4.243508557768089
4.305053279418103
4.27428091859311
4.200427252613103
4.1327280587980795
4.095801225808079
4.12657358663307
4.169654891788083
4.200427252613103
4.237354085603107
4.255817502098108
4.2681264464281
4.2681264464281
4.261971974263091
4.3112077515831135
4.335825640243124
4.255817502098108
4.200427252613103
4.151191475293081
4.151191475293081
4.169654891788083
4.181963836118102
4.200427252613103
4.225045141273086
4.243508557768089
4.249663029933098
4.292744335088111
4.335825640243124
4.3112077515831135
4.237354085603107
4.1758093639530935
4.1942727804480935
4.225045141273086
4.237354085603107
4.231199613438097
4.225045141273086
4.243508557768089
4.280435390758093
4.2865898629231
4.298898807253093
4.348134584573115
4.298898807253093
4.249663029933098
4.218890669108104
4.212736196943095
4.231199613438097
4.218890669108104
4.225045141273086
4.243508557768089
4.27428091859311
4.2865898629231
4.280435390758093
4.27428091859311
4.2681264464281
4.243508557768089
4.212736196943095
4.292744335088111
4.329671168078114
4.298898807253093
4.243508557768089
4.2065817247780855
4.218890669108104
4.231199613438097
4.231199613438097
4.261971974263091
4.261971974263091
4.261971974263091
4.27428091859311
4.280435390758093
4.3173622237481215
4.298898807253093
4.280435390758093
4.243508557768089
4.200427252613103
4.218890669108104
4.231199613438097
4.218890669108104
4.231199613438097
4.225045141273086
4.1758093639530935
4.249663029933098
4.249663029933098
4.261971974263091
4.2681264464281
4.2865898629231
4.280435390758093
4.261971974263091
4.329671168078114
