-3.535744258793022
-4.194272780448122
-3.258793011367972
-2.9633783474479203
-2.8402889041478923
-2.96953281961293
-2.9510694031179288
-2.932605986622927
-2.8895246814679143
-2.871061264972913
-2.871061264972913
-2.8525978484779113
-2.8895246814679143
-2.877215737137895
-2.901833625797906
-2.9141425701278982
-2.883370209302905
-2.907988097962916
-2.994150708272913
-3.1480125123979352
-3.1233946237379517
-3.1480125123979352
-3.258793011367972
-3.424963759823013
-3.449581648482997
-3.2034027618829675
-3.154166984562973
-3.178784873222984
-3.0003051804379233
-2.821825487652891
-2.747971821672884
-2.711044988682881
-2.711044988682881
-2.8095165433228986
-2.815671015487909
-2.8033620711578893
-2.8279799598179
-2.8525978484779113
-2.877215737137895
-2.883370209302905
-2.883370209302905
-2.9141425701278982
-2.9387604587879093
-2.9510694031179288
-2.944914930952919
-2.9141425701278982
-2.895679153632896
-3.037232013427927
-2.9879962361079313
-2.901833625797906
-2.932605986622927
-2.9510694031179288
-2.9387604587879093
-2.9387604587879093
-2.9633783474479203
-2.944914930952919
-2.9387604587879093
-2.8895246814679143
-2.4279392690928487
-2.9633783474479203
-3.24648406703798
-3.037232013427927
-3.049540957757918
-3.006459652602933
-3.0126141247679152
-2.994150708272913
-2.9633783474479203
-2.944914930952919
-2.932605986622927
-2.9510694031179288
-2.9879962361079313
-2.981841763942921
-2.981841763942921
-2.975687291777912
-2.9510694031179288
-2.975687291777912
-3.043386485592936
-3.0003051804379233
-3.037232013427927
-3.018768596932925
-2.994150708272913
-3.049540957757918
-3.0864677907479487
-3.0680043742529195
-3.074158846417929
-3.080313318582939
-3.055695429922928
-3.043386485592936
-2.994150708272913
-2.483329518577854
-2.6064189618778553
-2.901833625797906
-3.0126141247679152
-3.018768596932925
-3.0310775412629165
-3.055695429922928
-3.0680043742529195
-3.049540957757918
-3.043386485592936
-3.0618499020879373
-3.049540957757918
-3.049540957757918
-3.117240151572942
-3.400345871163002
-3.363419038172999
-3.1295490959029335
-3.1295490959029335
-3.117240151572942
-3.1233946237379517
-3.117240151572942
-2.7418173495078744
-1.9417359680577726
-2.587955545382853
-2.932605986622927
-3.0618499020879373
-3.037232013427927
-2.8525978484779113
-2.8464433763129016
-3.511126370133011
-4.188118308283112
-3.369573510338009
-3.172630401057975
-3.092622262912931
-3.1110856794079322
-3.1357035680679433
-3.1110856794079322
-3.049540957757918
-3.0864677907479487
-3.0987767350779407
-3.074158846417929
-3.018768596932925
-3.2218661783779687
-3.344955621677997
-3.0987767350779407
-3.0249230690979347
-3.006459652602933
-2.994150708272913
-2.9572238752829105
-2.96953281961293
-2.96953281961293
-2.9572238752829105
-2.96953281961293
-2.96953281961293
-2.901833625797906
-2.883370209302905
-3.0680043742529195
-3.301874316522985
-3.049540957757918
-2.9879962361079313
-3.0310775412629165
-2.944914930952919
-2.901833625797906
-2.944914930952919
-2.975687291777912
-2.9572238752829105
-2.944914930952919
-2.9633783474479203
-2.96953281961293
-2.9202970422929075
-2.815671015487909
-2.723353933012873
-2.895679153632896
-2.8895246814679143
-2.895679153632896
-2.907988097962916
-2.9141425701278982
-2.8649067928079033
-2.883370209302905
-2.883370209302905
-2.8649067928079033
-2.858752320642893
-2.883370209302905
-2.858752320642893
-2.871061264972913
-3.074158846417929
-2.994150708272913
-2.9141425701278982
-2.907988097962916
-2.901833625797906
-2.871061264972913
-2.4156303247628297
-2.9202970422929075
-3.2341751227079882
-2.9141425701278982
-2.877215737137895
-2.871061264972913
-2.883370209302905
-2.772589710332896
-2.372549019607845
-2.68642710002287
-2.901833625797906
-2.907988097962916
-2.907988097962916
-2.9510694031179288
-2.9202970422929075
-2.9572238752829105
-2.994150708272913
-3.018768596932925
-3.043386485592936
-3.055695429922928
-3.1110856794079322
-3.154166984562973
-3.6034434526080172
-3.4434271763180146
-3.1664759288929645
-3.055695429922928
-2.9879962361079313
-2.9633783474479203
-2.9879962361079313
-2.975687291777912
-2.975687291777912
-3.0003051804379233
-3.0310775412629165
-3.092622262912931
-3.0680043742529195
-3.043386485592936
-3.0249230690979347
-3.1357035680679433
-3.117240151572942
-3.080313318582939
-2.6433457948678853
-3.1049312072429505
-3.381882454668
-3.1295490959029335
-3.1049312072429505
-3.1110856794079322
-3.0987767350779407
-3.0618499020879373
-3.0310775412629165
-2.981841763942921
-2.975687291777912
-3.117240151572942
-3.049540957757918
-3.049540957757918
-3.0249230690979347
-3.006459652602933
-3.037232013427927
-3.018768596932925
-2.667963683527869
-1.510922916507701
-2.858752320642893
-2.96953281961293
-2.994150708272913
-3.0310775412629165
-3.9850207268380964
-4.200427252613103
-3.363419038172999
-3.172630401057975
-3.1233946237379517
-3.117240151572942
-3.1233946237379517
-3.0864677907479487
-3.0864677907479487
-3.0680043742529195
-3.0618499020879373
-3.1233946237379517
-3.117240151572942
-3.037232013427927
-2.975687291777912
-3.1295490959029335
-3.1233946237379517
-3.092622262912931
-3.080313318582939
-3.055695429922928
-3.0864677907479487
-3.0680043742529195
-3.0618499020879373
-3.0987767350779407
-3.092622262912931
-3.080313318582939
-3.1233946237379517
-3.055695429922928
-3.0249230690979347
-3.117240151572942
-3.074158846417929
-3.141858040232953
-3.0249230690979347
-3.0003051804379233
-3.0126141247679152
-3.037232013427927
-3.0310775412629165
-3.0003051804379233
-3.0126141247679152
-3.018768596932925
-3.018768596932925
-2.981841763942921
-2.9264515144579173
-3.0987767350779407
-3.092622262912931
-2.944914930952919
-2.932605986622927
-2.944914930952919
-2.9264515144579173
-2.9202970422929075
-2.9572238752829105
-2.96953281961293
-2.981841763942921
-2.994150708272913
-3.0003051804379233
-2.96953281961293
-2.944914930952919
-2.8895246814679143
-2.5141018794028467
-3.0126141247679152
-3.381882454668
-3.0680043742529195
-3.0249230690979347
-2.9879962361079313
-3.0310775412629165
-3.037232013427927
-3.0618499020879373
-3.049540957757918
-3.037232013427927
-3.0126141247679152
-2.9633783474479203
-2.907988097962916
-3.037232013427927
-3.043386485592936
-3.0618499020879373
-3.0680043742529195
-3.074158846417929
-3.0680043742529195
-3.0680043742529195
-3.037232013427927
-3.055695429922928
-3.049540957757918
-3.043386485592936
-3.0680043742529195
-3.037232013427927
-3.184939345387966
-3.2034027618829675
-3.037232013427927
-3.037232013427927
-3.043386485592936
-3.049540957757918
-3.080313318582939
-3.0618499020879373
-3.0310775412629165
-3.0126141247679152
-3.049540957757918
-3.043386485592936
-3.0680043742529195
-3.0249230690979347
-3.0618499020879373
-3.0680043742529195
-3.0003051804379233
-3.018768596932925
-3.0249230690979347
-3.018768596932925
-3.055695429922928
-3.0864677907479487
-3.080313318582939
-3.055695429922928
-3.055695429922928
-3.074158846417929
-3.0310775412629165
-2.9633783474479203
-2.9572238752829105
-3.092622262912931
-3.006459652602933
-2.6987360443528896
-1.8432644134177558
-3.578825563948035
-3.800386561888053
-3.184939345387966
-3.049540957757918
-3.0249230690979347
-2.9879962361079313
-3.006459652602933
-3.043386485592936
-3.018768596932925
-2.907988097962916
-3.1110856794079322
-3.074158846417929
-3.043386485592936
-3.018768596932925
-2.975687291777912
-2.981841763942921
-3.0126141247679152
-3.006459652602933
-3.018768596932925
-3.037232013427927
-3.018768596932925
-3.055695429922928
-3.006459652602933
-2.9202970422929075
-2.9387604587879093
-3.0126141247679152
-2.975687291777912
-2.9572238752829105
-2.975687291777912
-2.9572238752829105
-2.96953281961293
-2.96953281961293
-2.944914930952919
-2.96953281961293
-2.9633783474479203
-2.9387604587879093
-2.9264515144579173
-2.871061264972913
-2.8279799598179
-2.944914930952919
-3.006459652602933
-2.9879962361079313
-3.018768596932925
-3.1049312072429505
-2.944914930952919
-3.0249230690979347
-3.043386485592936
-3.0310775412629165
-3.0310775412629165
-3.0003051804379233
-2.9572238752829105
-3.043386485592936
-3.2711019556979917
-3.1110856794079322
-3.0003051804379233
-2.975687291777912
-2.981841763942921
-2.9633783474479203
-2.96953281961293
-2.975687291777912
-2.9572238752829105
-2.9510694031179288
-2.4525571577528327
-1.6647847206327224
-2.6618092113628857
-2.907988097962916
-2.883370209302905
-2.975687291777912
-2.932605986622927
-2.932605986622927
-3.1110856794079322
-4.188118308283112
-3.5849800361130173
-3.074158846417929
-3.0003051804379233
-2.944914930952919
-2.9202970422929075
-2.9387604587879093
-2.944914930952919
-2.8649067928079033
-2.723353933012873
-2.8649067928079033
-2.9264515144579173
-2.9633783474479203
-2.944914930952919
-2.944914930952919
-1.818646524757745
-3.037232013427927
-3.806541034053064
-3.1110856794079322
-3.0126141247679152
-3.0003051804379233
-2.9879962361079313
-3.006459652602933
-3.2034027618829675
-3.184939345387966
-3.043386485592936
-3.006459652602933
-3.0126141247679152
-2.981841763942921
-2.981841763942921
-2.975687291777912
-2.975687291777912
-2.9633783474479203
-2.9387604587879093
-2.9510694031179288
-2.9510694031179288
-2.901833625797906
-2.8464433763129016
-2.932605986622927
-2.9572238752829105
-2.994150708272913
-2.981841763942921
-2.932605986622927
-2.944914930952919
-2.9264515144579173
-2.9141425701278982
-2.944914930952919
-2.9510694031179288
-2.9633783474479203
-2.6618092113628857
-1.7940286360977609
-2.4402482134228407
-2.871061264972913
-2.9387604587879093
-3.074158846417929
-4.200427252613103
-3.6957605350830534
-3.1233946237379517
-3.0310775412629165
-3.037232013427927
-3.0310775412629165
-3.0249230690979347
-3.0249230690979347
-3.037232013427927
-3.0003051804379233
-2.8895246814679143
-2.994150708272913
-3.006459652602933
-2.9879962361079313
-3.0126141247679152
-3.074158846417929
-3.0126141247679152
-2.9633783474479203
-3.0310775412629165
-2.994150708272913
-2.9510694031179288
-2.981841763942921
-2.9879962361079313
-2.9879962361079313
-2.8402889041478923
-2.766435238167886
-2.9264515144579173
-2.975687291777912
-3.043386485592936
-3.049540957757918
-3.055695429922928
-3.092622262912931
-3.0864677907479487
-3.1110856794079322
-3.080313318582939
-3.043386485592936
-3.0680043742529195
-3.043386485592936
-3.1357035680679433
-3.406500343328012
-3.2034027618829675
-3.0864677907479487
-3.0249230690979347
-3.0680043742529195
-3.074158846417929
-3.074158846417929
-3.092622262912931
-3.0987767350779407
-3.0864677907479487
-3.092622262912931
-3.1049312072429505
-3.0864677907479487
-3.049540957757918
-3.037232013427927
-3.1110856794079322
-3.0864677907479487
-3.074158846417929
-3.043386485592936
-2.5941100175478624
-3.0987767350779407
-3.437272704153005
-3.1110856794079322
-3.1110856794079322
-3.0618499020879373
-3.0618499020879373
-3.080313318582939
-3.0987767350779407
-3.2034027618829675
-3.215711706212987
-3.141858040232953
-3.1664759288929645
-3.154166984562973
-3.0680043742529195
-3.1049312072429505
-3.141858040232953
-3.141858040232953
-3.1480125123979352
-3.1233946237379517
-3.074158846417929
-3.092622262912931
-3.037232013427927
-3.0249230690979347
-3.191093817552976
-3.154166984562973
-3.1110856794079322
-3.080313318582939
-3.1110856794079322
-3.0987767350779407
-3.092622262912931
-3.1049312072429505
-3.1357035680679433
-3.1049312072429505
-3.117240151572942
-3.178784873222984
-3.172630401057975
-3.2034027618829675
-3.289565372192993
-3.184939345387966
-3.191093817552976
-3.160321456727955
-3.117240151572942
-3.1480125123979352
-3.1480125123979352
-3.1295490959029335
-3.1357035680679433
-3.1357035680679433
-3.141858040232953
-3.0987767350779407
-3.0680043742529195
-2.9141425701278982
-3.049540957757918
-3.141858040232953
-3.154166984562973
-3.1480125123979352
-3.141858040232953
-3.141858040232953
-2.815671015487909
-2.1571424938328088
-3.898858116528071
-3.597288980443037
-3.172630401057975
-3.1233946237379517
-3.1357035680679433
-3.3203377330179857
-3.474199537143008
-3.2711019556979917
-3.2280206505429785
-3.2095572340479768
-3.2095572340479768
-3.2034027618829675
-3.1295490959029335
-3.117240151572942
-3.1480125123979352
-3.1357035680679433
-3.1233946237379517
-3.1233946237379517
-3.1110856794079322
-3.018768596932925
-3.191093817552976
-3.191093817552976
-3.184939345387966
-3.184939345387966
-3.1664759288929645
-3.172630401057975
-3.2034027618829675
-3.178784873222984
-3.172630401057975
-3.1480125123979352
-3.1480125123979352
-3.1110856794079322
-3.0618499020879373
-3.1233946237379517
-3.1295490959029335
-3.1233946237379517
-3.1295490959029335
-3.160321456727955
-3.1972482897179852
-3.184939345387966
-3.1972482897179852
-3.178784873222984
-3.1664759288929645
-3.191093817552976
-3.1664759288929645
-3.1295490959029335
-3.1049312072429505
-3.049540957757918
-3.424963759823013
-3.2711019556979917
-3.1049312072429505
-3.092622262912931
-3.092622262912931
-3.092622262912931
-3.1295490959029335
-3.172630401057975
-3.160321456727955
-3.0987767350779407
-3.1480125123979352
-3.1357035680679433
-3.092622262912931
-2.9264515144579173
-2.249459576307816
-3.0310775412629165
-3.4434271763180146
-3.1480125123979352
-3.0987767350779407
-3.074158846417929
-3.018768596932925
-3.055695429922928
-3.191093817552976
-3.092622262912931
-3.0680043742529195
-3.0987767350779407
-3.049540957757918
-3.0310775412629165
-3.043386485592936
-3.141858040232953
-3.117240151572942
-3.1233946237379517
-3.1110856794079322
-3.0680043742529195
-3.0310775412629165
-3.080313318582939
-3.0618499020879373
-3.037232013427927
-3.080313318582939
-3.074158846417929
-3.0680043742529195
-3.0618499020879373
-3.117240151572942
-3.2218661783779687
-3.1480125123979352
-3.1664759288929645
-3.160321456727955
-3.160321456727955
-3.141858040232953
-3.117240151572942
-3.154166984562973
-3.117240151572942
-3.080313318582939
-3.080313318582939
-3.080313318582939
-3.055695429922928
-3.0680043742529195
-3.184939345387966
-3.0987767350779407
-3.1049312072429505
-3.1110856794079322
-3.1233946237379517
-3.1357035680679433
-3.1357035680679433
-3.160321456727955
-3.178784873222984
-3.1972482897179852
-3.1664759288929645
-3.1480125123979352
-3.074158846417929
-3.092622262912931
-3.2034027618829675
-2.723353933012873
-1.504768444342719
-2.9387604587879093
-3.055695429922928
-3.0864677907479487
-3.511126370133011
-4.501996388698165
-3.658833702093051
-3.2957198443579747
-3.2341751227079882
-3.2095572340479768
-3.117240151572942
-3.0003051804379233
-2.723353933012873
-1.7201749701177547
-2.175605910327811
-3.3203377330179857
-3.184939345387966
-3.0618499020879373
-3.043386485592936
-3.037232013427927
-3.781923145393051
-4.323516695913132
-3.449581648482997
-3.24648406703798
-3.141858040232953
-3.1357035680679433
-3.326492205182996
-3.2280206505429785
-3.1972482897179852
-3.24648406703798
-3.25263853920299
-3.2280206505429785
-3.326492205182996
-3.4188092876580036
-3.400345871163002
-3.4803540093080176
-3.75730525673304
-3.9296304773530633
-3.9604028381780845
-3.7942320897230712
-3.6834515907530343
-3.9665573103430942
-3.8188499783830547
-3.634215813433039
-3.326492205182996
-3.1972482897179852
-3.2280206505429785
-3.24648406703798
-3.2711019556979917
-3.289565372192993
-3.2957198443579747
-3.326492205182996
-3.2834109000279827
-3.394191398997992
-3.8434678670430653
-3.492662953638009
-3.3203377330179857
-3.2834109000279827
-3.289565372192993
-3.326492205182996
-3.2834109000279827
-3.3141832608529764
-3.3203377330179857
-3.3326466773480057
-3.326492205182996
-3.3203377330179857
-3.308028788687994
-3.2403295948729705
-3.258793011367972
-3.2280206505429785
-3.184939345387966
-3.1357035680679433
-3.1295490959029335
-3.092622262912931
-3.006459652602933
-2.932605986622927
-2.4525571577528327
-3.0618499020879373
-3.301874316522985
-3.0618499020879373
-3.018768596932925
-2.9264515144579173
-2.8649067928079033
-3.0249230690979347
-2.9879962361079313
-2.9387604587879093
-2.9141425701278982
-2.8895246814679143
-2.815671015487909
-2.797207598992907
-2.8649067928079033
-2.9510694031179288
-3.0126141247679152
-2.944914930952919
-2.8649067928079033
-2.8033620711578893
-2.858752320642893
-2.994150708272913
-2.9572238752829105
-2.9572238752829105
-2.944914930952919
-2.932605986622927
-2.9264515144579173
-2.895679153632896
-2.8649067928079033
-2.8279799598179
-2.8341344319829105
-2.8525978484779113
-2.8279799598179
-2.7848986546628876
-2.821825487652891
-2.8279799598179
-2.778744182497905
-2.8095165433228986
-2.8341344319829105
-2.8341344319829105
-2.821825487652891
-2.8464433763129016
-2.901833625797906
-2.9633783474479203
-2.9879962361079313
-2.674118155692878
-1.892500190737778
-3.8865491721980785
-3.5665166196180156
-3.1664759288929645
-3.037232013427927
-2.932605986622927
-2.901833625797906
-2.8525978484779113
-2.8341344319829105
-2.815671015487909
-2.766435238167886
-2.747971821672884
-2.735662877342893
-2.766435238167886
-2.778744182497905
-2.754126293837894
-2.68642710002287
-2.8095165433228986
-2.8402889041478923
-2.883370209302905
-2.9141425701278982
-2.9264515144579173
-2.9202970422929075
-2.901833625797906
-2.907988097962916
-2.907988097962916
-2.9202970422929075
-2.9510694031179288
-3.0003051804379233
-2.9572238752829105
-2.858752320642893
-2.9202970422929075
-2.8895246814679143
-2.8402889041478923
-2.815671015487909
-2.766435238167886
-2.6925815721878803
-2.674118155692878
-2.680272627857888
-2.649500267032867
-2.575646601052861
-2.5941100175478624
-2.600264489712873
-2.575646601052861
-2.544874240227868
-2.5694921288878514
-2.7418173495078744
-2.747971821672884
-2.772589710332896
-2.7910531268278973
-2.8402889041478923
-2.883370209302905
-2.9510694031179288
-2.9879962361079313
-2.994150708272913
-3.080313318582939
-3.0310775412629165
-2.932605986622927
-2.9879962361079313
-3.191093817552976
-3.092622262912931
-3.0310775412629165
-2.944914930952919
-2.495638462907845
-3.037232013427927
-3.400345871163002
-3.1110856794079322
-3.043386485592936
-3.074158846417929
-3.080313318582939
-3.154166984562973
-3.0310775412629165
-3.043386485592936
-3.1295490959029335
-3.178784873222984
-3.1480125123979352
-3.184939345387966
-3.191093817552976
-3.2095572340479768
-3.258793011367972
-3.289565372192993
-3.277256427862973
-3.2095572340479768
-3.1664759288929645
-3.172630401057975
-3.1295490959029335
-3.0680043742529195
-3.0618499020879373
-3.1664759288929645
-3.117240151572942
-3.080313318582939
-3.074158846417929
-3.0618499020879373
-3.049540957757918
-3.092622262912931
-3.092622262912931
-3.0864677907479487
-3.1049312072429505
-3.117240151572942
-3.141858040232953
-3.117240151572942
-3.117240151572942
-3.24648406703798
-3.160321456727955
-3.141858040232953
-3.184939345387966
-3.178784873222984
-3.184939345387966
-3.2095572340479768
-3.2280206505429785
-3.2834109000279827
-3.215711706212987
-3.1295490959029335
-3.160321456727955
-3.1233946237379517
-3.264947483532982
-3.406500343328012
-3.178784873222984
-3.1233946237379517
-3.141858040232953
-3.1295490959029335
-2.747971821672884
-1.5170773886727107
-2.883370209302905
-2.994150708272913
-3.006459652602933
-3.7080694794130453
-4.237354085603107
-3.2957198443579747
-2.8525978484779113
-3.006459652602933
-3.092622262912931
-3.1110856794079322
-3.117240151572942
-3.1049312072429505
-3.1049312072429505
-3.141858040232953
-3.1480125123979352
-3.1233946237379517
-3.092622262912931
-3.117240151572942
-3.1480125123979352
-3.1049312072429505
-2.975687291777912
-3.160321456727955
-3.1664759288929645
-3.1664759288929645
-3.1295490959029335
-3.1049312072429505
-3.1480125123979352
-3.1357035680679433
-3.117240151572942
-3.141858040232953
-3.1480125123979352
-3.141858040232953
-3.1480125123979352
-3.117240151572942
-3.080313318582939
-3.191093817552976
-3.178784873222984
-3.172630401057975
-3.160321456727955
-3.1295490959029335
-3.154166984562973
-3.154166984562973
-3.178784873222984
-3.2280206505429785
-3.2095572340479768
-3.215711706212987
-3.2034027618829675
-3.2095572340479768
-3.074158846417929
-2.8895246814679143
-3.1357035680679433
-3.184939345387966
-3.2034027618829675
-3.1480125123979352
-3.172630401057975
-3.178784873222984
-3.172630401057975
-3.172630401057975
-3.1972482897179852
-3.172630401057975
-3.172630401057975
-3.154166984562973
-2.778744182497905
-3.5726710917830253
-3.726532895908047
-3.289565372192993
-3.191093817552976
-3.1972482897179852
-3.178784873222984
-3.172630401057975
-3.178784873222984
-3.215711706212987
-3.191093817552976
-3.184939345387966
-3.215711706212987
-3.2280206505429785
-3.1972482897179852
-3.215711706212987
-3.264947483532982
-3.2095572340479768
-3.2095572340479768
-3.160321456727955
-1.8248009969227534
-2.495638462907845
-3.0987767350779407
-3.092622262912931
-3.0864677907479487
-3.1357035680679433
-3.160321456727955
-3.2957198443579747
-4.329671168078142
-3.7142239515780546
-3.3203377330179857
-3.2034027618829675
-3.141858040232953
-3.1049312072429505
-3.037232013427927
-3.0249230690979347
-2.9572238752829105
-2.907988097962916
-2.871061264972913
-2.8525978484779113
-2.8341344319829105
-2.8279799598179
-2.754126293837894
-2.329467714452832
-2.4156303247628297
-2.655654739197877
-2.772589710332896
-2.821825487652891
-2.8895246814679143
-2.9572238752829105
-3.0003051804379233
-3.043386485592936
-3.037232013427927
-3.0310775412629165
-3.0249230690979347
-3.0126141247679152
-2.994150708272913
-3.726532895908047
-3.4557361206480066
-1.9971262175427773
-2.3848579639378364
-2.754126293837894
-2.8895246814679143
-2.8895246814679143
-2.907988097962916
-2.9572238752829105
-2.96953281961293
-3.9050125886930798
-4.065028864983084
-3.277256427862973
-3.0864677907479487
-2.624882378372884
-2.7171994608478913
-3.0003051804379233
-3.0310775412629165
-3.0249230690979347
-3.049540957757918
-3.049540957757918
-3.0249230690979347
-3.0310775412629165
-3.043386485592936
-3.037232013427927
-3.0680043742529195
-3.0680043742529195
-3.0126141247679152
-3.0126141247679152
-3.2034027618829675
-3.141858040232953
-3.0864677907479487
-3.080313318582939
-3.1049312072429505
-3.0864677907479487
-3.154166984562973
-3.1357035680679433
-3.1233946237379517
-3.117240151572942
-3.117240151572942
-3.080313318582939
-3.1049312072429505
-2.96953281961293
-3.080313318582939
-3.0987767350779407
-3.1049312072429505
-3.1357035680679433
-3.141858040232953
-3.141858040232953
-3.1480125123979352
-3.160321456727955
-3.1357035680679433
-3.1664759288929645
-3.178784873222984
-3.178784873222984
-3.1664759288929645
-3.0987767350779407
-3.037232013427927
-3.178784873222984
-3.2280206505429785
-3.24648406703798
-3.2218661783779687
-3.1972482897179852
-3.215711706212987
-3.184939345387966
-2.6987360443528896
-3.1480125123979352
-3.5726710917830253
-3.258793011367972
-3.1664759288929645
-3.178784873222984
-3.424963759823013
-3.277256427862973
-3.2095572340479768
-3.2034027618829675
-3.215711706212987
-3.184939345387966
-3.1480125123979352
-3.154166984562973
-3.1664759288929645
-3.172630401057975
-3.1480125123979352
-3.1357035680679433
-3.141858040232953
-3.141858040232953
-3.0864677907479487
-3.160321456727955
-3.178784873222984
-3.1357035680679433
-3.1295490959029335
-3.1480125123979352
-3.1480125123979352
-3.1357035680679433
-3.1480125123979352
-3.160321456727955
-3.1972482897179852
-3.2834109000279827
-14.644566516619605
-28.88601510643168
-16.312428473334858
-14.779964904249624
-6.988403143358496
-5.585183489738299
-5.837516848503338
-4.748175275298193
-4.305053279418132
-4.1573459474581185
-4.052719920653092
-3.972711782508076
-3.8927036443630603
-3.861931283538067
-3.806541034053064
-3.720378423743037
-3.640370285598049
-3.7449963124030474
-3.6280613412680296
-3.560362147453033
-3.5726710917830253
-3.5726710917830253
-3.578825563948035
-3.548053203123014
-3.504971897968029
-3.511126370133011
-3.2034027618829675
-2.3110042979578305
-3.018768596932925
-3.258793011367972
-3.3326466773480057
-4.403524834058148
-4.335825640243124
-3.548053203123014
-3.406500343328012
-3.363419038172999
-3.3141832608529764
-3.3141832608529764
-3.3203377330179857
-3.2834109000279827
-3.2834109000279827
-3.289565372192993
-3.338801149512988
-3.3203377330179857
-3.2957198443579747
-3.4557361206480066
-3.375727982502991
-3.344955621677997
-3.369573510338009
-3.3511100938430074
-3.338801149512988
-3.3203377330179857
-3.308028788687994
-3.326492205182996
-3.3326466773480057
-3.2711019556979917
-3.264947483532982
-3.24648406703798
-3.1972482897179852
-3.3203377330179857
-3.289565372192993
-3.25263853920299
-3.277256427862973
-3.2834109000279827
-3.2711019556979917
-3.277256427862973
-3.277256427862973
-3.2957198443579747
-3.289565372192993
-3.277256427862973
-3.3141832608529764
-3.25263853920299
-3.2218661783779687
-3.3511100938430074
-3.344955621677997
-3.338801149512988
-3.3203377330179857
-3.289565372192993
-3.2711019556979917
-3.2711019556979917
-3.25263853920299
-3.277256427862973
-3.258793011367972
-3.2711019556979917
-3.308028788687994
-3.2957198443579747
-3.258793011367972
-3.2034027618829675
-3.2957198443579747
-3.2711019556979917
-2.815671015487909
-3.3203377330179857
-3.634215813433039
-3.363419038172999
-3.289565372192993
-3.258793011367972
-3.25263853920299
-3.2341751227079882
-3.264947483532982
-3.2218661783779687
-3.191093817552976
-3.0618499020879373
-3.191093817552976
-3.2341751227079882
-3.2711019556979917
-3.264947483532982
-3.2403295948729705
-3.2341751227079882
-3.178784873222984
-3.1480125123979352
-3.178784873222984
-3.2034027618829675
-3.2034027618829675
-3.2341751227079882
-3.24648406703798
-3.535744258793022
-3.4311182319879947
-3.369573510338009
-3.2218661783779687
-3.172630401057975
-3.184939345387966
-3.191093817552976
-3.184939345387966
-3.154166984562973
-3.178784873222984
-3.1972482897179852
-3.1357035680679433
-3.0987767350779407
-3.117240151572942
-3.154166984562973
-3.2403295948729705
-3.2034027618829675
-3.2218661783779687
-3.2095572340479768
-3.1972482897179852
-3.2034027618829675
-3.178784873222984
-3.154166984562973
-3.160321456727955
-3.1480125123979352
-3.1110856794079322
-3.117240151572942
-3.080313318582939
-3.092622262912931
-3.184939345387966
-3.1664759288929645
-3.178784873222984
-3.154166984562973
-2.8895246814679143
-2.0278985783677985
-2.5694921288878514
-2.9633783474479203
-3.037232013427927
-3.043386485592936
-3.0310775412629165
-3.049540957757918
-3.1972482897179852
-4.341980112408136
-3.9542483660130747
-3.344955621677997
-3.2280206505429785
-3.2034027618829675
-3.2034027618829675
-3.1972482897179852
-3.184939345387966
-3.1972482897179852
-3.191093817552976
-3.184939345387966
-3.2218661783779687
-3.1972482897179852
-3.1357035680679433
-3.0987767350779407
-3.3203377330179857
-3.141858040232953
-3.018768596932925
-3.1110856794079322
-3.0987767350779407
-3.0987767350779407
-3.1480125123979352
-3.154166984562973
-2.8402889041478923
-1.8248009969227534
-2.3110042979578305
-3.4434271763180146
-3.2711019556979917
-3.1233946237379517
-3.2403295948729705
-3.215711706212987
-3.9111670608580615
-4.329671168078142
-3.437272704153005
-3.2341751227079882
-3.2218661783779687
-3.1664759288929645
-3.141858040232953
-3.154166984562973
-3.1480125123979352
-3.141858040232953
-3.172630401057975
-3.117240151572942
-3.1972482897179852
-3.2095572340479768
-3.172630401057975
-3.1480125123979352
-3.141858040232953
-3.172630401057975
-3.2095572340479768
-3.2280206505429785
-3.2711019556979917
-3.3141832608529764
-3.326492205182996
-3.3511100938430074
-3.2957198443579747
-3.191093817552976
-3.1233946237379517
-3.2711019556979917
-3.264947483532982
-3.264947483532982
-3.2095572340479768
-3.184939345387966
-3.1664759288929645
-3.172630401057975
-3.160321456727955
-3.178784873222984
-3.184939345387966
-3.172630401057975
-3.178784873222984
-3.160321456727955
-2.8402889041478923
-3.092622262912931
-3.25263853920299
-3.24648406703798
-3.25263853920299
-3.2341751227079882
-3.2218661783779687
-3.184939345387966
-3.172630401057975
-3.1357035680679433
-3.1295490959029335
-3.141858040232953
-3.1233946237379517
-3.1972482897179852
-3.738841840238039
-3.4188092876580036
-2.883370209302905
-3.412654815492993
-3.6219068691030203
-3.394191398997992
-3.308028788687994
-3.2711019556979917
-3.2957198443579747
-3.25263853920299
-3.215711706212987
-3.2034027618829675
-3.160321456727955
-3.0680043742529195
-3.0003051804379233
-3.074158846417929
-3.049540957757918
-3.080313318582939
-3.1480125123979352
-3.184939345387966
-3.191093817552976
-3.1972482897179852
-3.1972482897179852
-3.215711706212987
-3.215711706212987
-3.1664759288929645
-3.1049312072429505
-3.0249230690979347
-2.5941100175478624
-1.5232318608377204
-2.871061264972913
-2.975687291777912
-3.2095572340479768
-4.385061417563146
-3.781923145393051
-3.301874316522985
-3.191093817552976
-3.2034027618829675
-3.2341751227079882
-3.215711706212987
-3.1972482897179852
-3.1233946237379517
-3.055695429922928
-3.2095572340479768
-3.154166984562973
-3.1664759288929645
-3.1233946237379517
-3.1049312072429505
-3.080313318582939
-3.043386485592936
-3.080313318582939
-3.1295490959029335
-3.1664759288929645
-3.2034027618829675
-3.2095572340479768
-3.141858040232953
-3.2034027618829675
-3.363419038172999
-3.184939345387966
-3.1664759288929645
-3.191093817552976
-3.117240151572942
-3.0618499020879373
-2.9879962361079313
-2.9879962361079313
-3.049540957757918
-3.1110856794079322
-3.154166984562973
-3.184939345387966
-3.141858040232953
-3.043386485592936
-3.006459652602933
-3.049540957757918
-3.074158846417929
-3.080313318582939
-3.0680043742529195
-3.0680043742529195
-3.0618499020879373
-3.0310775412629165
-3.049540957757918
-3.117240151572942
-3.141858040232953
-3.184939345387966
-3.1480125123979352
-3.043386485592936
-3.006459652602933
-3.2403295948729705
-3.381882454668
-3.357264566007989
-3.25263853920299
-3.1480125123979352
-3.1110856794079322
-2.6371913227028756
-3.1110856794079322
-3.437272704153005
-3.160321456727955
-3.1357035680679433
-3.1110856794079322
-3.1357035680679433
-3.406500343328012
-3.3141832608529764
-3.2218661783779687
-3.2218661783779687
-3.301874316522985
-3.178784873222984
-3.092622262912931
-3.1480125123979352
-3.154166984562973
-3.117240151572942
-3.141858040232953
-3.2095572340479768
-3.277256427862973
-3.2341751227079882
-3.2218661783779687
-3.25263853920299
-3.25263853920299
-3.2218661783779687
-3.080313318582939
-3.0680043742529195
-3.037232013427927
-3.0249230690979347
-3.043386485592936
-3.0126141247679152
-3.0003051804379233
-2.932605986622927
-2.877215737137895
-2.821825487652891
-2.815671015487909
-2.7910531268278973
-2.760280766002876
-2.754126293837894
-2.723353933012873
-2.68642710002287
-2.68642710002287
-2.674118155692878
-2.655654739197877
-2.674118155692878
-2.6371913227028756
-2.618727906207874
-2.6433457948678853
-2.5941100175478624
-2.4648661020828517
-2.55102871239285
-2.575646601052861
-2.587955545382853
-2.618727906207874
-2.600264489712873
-2.5941100175478624
-2.6433457948678853
-2.6618092113628857
-2.55102871239285
-1.7078660257877356
-1.892500190737778
-2.495638462907845
-2.618727906207874
-2.8279799598179
-2.9264515144579173
-2.8095165433228986
-3.178784873222984
-4.206581724778113
-3.301874316522985
-2.9202970422929075
-2.9141425701278982
-2.895679153632896
-2.895679153632896
-2.9141425701278982
-2.9510694031179288
-2.9387604587879093
-2.9141425701278982
-2.9202970422929075
-3.0680043742529195
-3.0126141247679152
-3.037232013427927
-3.0126141247679152
-3.0003051804379233
-3.037232013427927
-3.0618499020879373
-3.055695429922928
-3.043386485592936
-3.092622262912931
-3.1233946237379517
-3.1480125123979352
-3.154166984562973
-3.0987767350779407
-3.215711706212987
-3.1480125123979352
-3.117240151572942
-3.080313318582939
-3.0680043742529195
-3.117240151572942
-3.117240151572942
-3.0680043742529195
-3.0618499020879373
-3.037232013427927
-3.055695429922928
-3.1049312072429505
-3.080313318582939
-3.043386485592936
-3.0249230690979347
-3.006459652602933
-3.006459652602933
-3.018768596932925
-2.9879962361079313
-2.975687291777912
-2.981841763942921
-2.975687291777912
-3.0310775412629165
-3.037232013427927
-3.0618499020879373
-3.080313318582939
-3.037232013427927
-2.821825487652891
-2.4156303247628297
-2.8464433763129016
-2.483329518577854
-2.96953281961293
-3.3511100938430074
-3.092622262912931
-3.037232013427927
-3.0126141247679152
-3.006459652602933
-3.0126141247679152
-2.9879962361079313
-2.9633783474479203
-2.9633783474479203
-3.141858040232953
-3.6834515907530343
-3.2280206505429785
-3.037232013427927
-3.018768596932925
-2.9879962361079313
-3.0249230690979347
-3.0126141247679152
-2.96953281961293
-2.994150708272913
-3.0003051804379233
-2.9879962361079313
-2.9879962361079313
-2.9141425701278982
-2.8402889041478923
-2.391012436102846
-2.6925815721878803
-2.9264515144579173
-2.96953281961293
-2.96953281961293
-2.9879962361079313
-2.9572238752829105
-2.9387604587879093
-2.9510694031179288
-2.944914930952919
-2.9510694031179288
-2.9510694031179288
-2.8649067928079033
-1.5601586938277234
-2.6371913227028756
-3.0310775412629165
-2.8895246814679143
-2.8649067928079033
-2.9633783474479203
-2.9572238752829105
-3.080313318582939
-4.200427252613103
-3.5726710917830253
-3.1110856794079322
-3.0310775412629165
-3.018768596932925
-2.994150708272913
-2.9572238752829105
-3.1110856794079322
-3.154166984562973
-2.994150708272913
-2.9510694031179288
-2.587955545382853
-1.4124513618677115
-2.8033620711578893
-2.9387604587879093
-3.4557361206480066
-4.3727524732331275
-3.449581648482997
-3.080313318582939
-3.0249230690979347
-2.9633783474479203
-2.907988097962916
-3.0680043742529195
-2.96953281961293
-2.944914930952919
-2.975687291777912
-2.944914930952919
-2.9202970422929075
-2.9633783474479203
-2.9572238752829105
-2.981841763942921
-3.006459652602933
-3.037232013427927
-3.006459652602933
-2.9387604587879093
-2.883370209302905
-3.055695429922928
-3.043386485592936
-3.0618499020879373
-2.994150708272913
-2.883370209302905
-2.871061264972913
-2.932605986622927
-2.975687291777912
-3.0003051804379233
-2.944914930952919
-2.9572238752829105
-2.9633783474479203
-2.9572238752829105
-2.704890516517872
-2.5941100175478624
-2.901833625797906
-2.9572238752829105
-2.9572238752829105
-2.96953281961293
-2.944914930952919
-2.895679153632896
-2.877215737137895
-2.944914930952919
-2.9387604587879093
-2.932605986622927
-2.96953281961293
-2.96953281961293
-3.2095572340479768
-3.548053203123014
-3.160321456727955
-3.043386485592936
-3.0249230690979347
-3.055695429922928
-3.0003051804379233
-3.0680043742529195
-2.96953281961293
-2.9141425701278982
-2.9387604587879093
-2.907988097962916
-2.471020574247862
-2.932605986622927
-3.2095572340479768
-2.8649067928079033
-2.9572238752829105
-2.975687291777912
-2.975687291777912
-2.9264515144579173
-2.944914930952919
-2.96953281961293
-2.96953281961293
-2.9387604587879093
-2.981841763942921
-3.0249230690979347
-2.9879962361079313
-2.932605986622927
-2.9510694031179288
-3.1110856794079322
-3.0249230690979347
-2.907988097962916
-2.8895246814679143
-2.932605986622927
-2.8525978484779113
-2.871061264972913
-2.901833625797906
-2.895679153632896
-2.883370209302905
-2.871061264972913
-2.8279799598179
-2.8341344319829105
-2.7848986546628876
-2.797207598992907
-2.8095165433228986
-2.7910531268278973
-2.8279799598179
-2.797207598992907
-2.760280766002876
-2.778744182497905
-2.815671015487909
-2.7910531268278973
-2.7848986546628876
-2.8095165433228986
-2.138679077337807
-1.9786628010477763
-2.68642710002287
-2.8464433763129016
-3.0126141247679152
-3.0310775412629165
-3.037232013427927
-3.0126141247679152
-3.117240151572942
-3.018768596932925
-3.0249230690979347
-3.092622262912931
-3.037232013427927
-3.0126141247679152
-2.9633783474479203
-3.006459652602933
-2.6064189618778553
-1.4062968897027015
-2.871061264972913
-3.043386485592936
-3.0680043742529195
-3.0680043742529195
-3.074158846417929
-3.1049312072429505
-3.837313394878056
-4.305053279418132
-3.363419038172999
-3.191093817552976
-3.1664759288929645
-3.1480125123979352
-3.0987767350779407
-3.2095572340479768
-3.264947483532982
-3.2034027618829675
-3.2034027618829675
-3.184939345387966
-3.172630401057975
-3.184939345387966
-3.160321456727955
-3.1357035680679433
-3.1357035680679433
-3.1480125123979352
-3.154166984562973
-3.141858040232953
-3.1049312072429505
-2.907988097962916
-3.0003051804379233
-3.2095572340479768
-3.2403295948729705
-3.2218661783779687
-3.2095572340479768
-3.2218661783779687
-3.264947483532982
-3.141858040232953
-3.043386485592936
-3.043386485592936
-2.9879962361079313
-3.0249230690979347
-2.981841763942921
-3.0864677907479487
-3.301874316522985
-3.160321456727955
-3.1233946237379517
-3.1295490959029335
-3.074158846417929
-3.074158846417929
-3.074158846417929
-3.0618499020879373
-3.043386485592936
-3.0618499020879373
-3.0249230690979347
-3.049540957757918
-3.018768596932925
-3.0003051804379233
-3.1049312072429505
-3.055695429922928
-3.0249230690979347
-3.0126141247679152
-3.006459652602933
-2.981841763942921
-2.5325652958978484
-3.018768596932925
-3.4188092876580036
-3.141858040232953
-3.074158846417929
-3.0680043742529195
-3.055695429922928
-3.018768596932925
-3.018768596932925
-3.037232013427927
-3.0126141247679152
-2.9879962361079313
-2.9572238752829105
-2.883370209302905
-2.877215737137895
-2.907988097962916
-2.895679153632896
-2.901833625797906
-2.96953281961293
-2.96953281961293
-2.9264515144579173
-2.9387604587879093
-3.0249230690979347
-3.037232013427927
-2.994150708272913
-3.006459652602933
-3.006459652602933
-3.0003051804379233
-2.981841763942921
-2.9572238752829105
-2.932605986622927
-2.9572238752829105
-2.944914930952919
-2.944914930952919
-2.994150708272913
-2.975687291777912
-2.9572238752829105
-3.1295490959029335
-3.1233946237379517
-3.080313318582939
-3.141858040232953
-3.184939345387966
-3.1972482897179852
-3.2095572340479768
-3.191093817552976
-3.172630401057975
-2.631036850537866
-3.264947483532982
-3.6280613412680296
-3.2403295948729705
-3.264947483532982
-3.412654815492993
-3.363419038172999
-3.412654815492993
-3.406500343328012
-3.468045064977998
-3.504971897968029
-3.535744258793022
-3.449581648482997
-2.3110042979578305
-2.932605986622927
-3.25263853920299
-4.114264642303106
-4.378906945398136
-3.492662953638009
-3.375727982502991
-3.344955621677997
-3.357264566007989
-3.3141832608529764
-3.264947483532982
-3.264947483532982
-3.301874316522985
-3.2341751227079882
-3.2095572340479768
-3.2034027618829675
-3.2095572340479768
-3.2095572340479768
-3.184939345387966
-3.363419038172999
-3.4803540093080176
-3.2834109000279827
-3.2034027618829675
-3.172630401057975
-3.184939345387966
-3.160321456727955
-3.172630401057975
-3.141858040232953
-3.1295490959029335
-3.1480125123979352
-3.1357035680679433
-3.172630401057975
-3.141858040232953
-2.8402889041478923
-2.901833625797906
-3.0864677907479487
-3.080313318582939
-3.092622262912931
-3.1049312072429505
-3.092622262912931
-3.0987767350779407
-3.1295490959029335
-3.1664759288929645
-3.006459652602933
-2.9572238752829105
-3.043386485592936
-3.074158846417929
-3.1664759288929645
-3.308028788687994
-3.1357035680679433
-2.729508405177883
-1.6709391927977324
-2.187914854657802
-3.2834109000279827
-3.1049312072429505
-3.043386485592936
-3.0618499020879373
-3.055695429922928
-3.800386561888053
-4.138882530963118
-3.2280206505429785
-2.9387604587879093
-2.901833625797906
-2.981841763942921
-2.9510694031179288
-2.9510694031179288
-2.9510694031179288
-2.994150708272913
-2.994150708272913
-2.9510694031179288
-2.9264515144579173
-2.9633783474479203
-2.981841763942921
-2.932605986622927
-2.895679153632896
-2.981841763942921
-3.1664759288929645
-3.080313318582939
-2.9879962361079313
-2.9510694031179288
-2.9510694031179288
-3.006459652602933
-3.006459652602933
-2.96953281961293
-2.9387604587879093
-2.9572238752829105
-2.96953281961293
-2.9510694031179288
-2.901833625797906
-2.8895246814679143
-2.901833625797906
-2.9202970422929075
-2.8895246814679143
-2.895679153632896
-2.932605986622927
-2.9141425701278982
-2.907988097962916
-2.975687291777912
-2.858752320642893
-2.815671015487909
-2.8895246814679143
-2.883370209302905
-2.901833625797906
-2.8033620711578893
-2.563337656722869
-2.8095165433228986
-2.877215737137895
-2.9141425701278982
-2.9387604587879093
-2.944914930952919
-2.9264515144579173
-2.901833625797906
-2.895679153632896
-2.8402889041478923
-2.4217847969278394
-3.055695429922928
-3.2218661783779687
-2.9264515144579173
-3.178784873222984
-3.0987767350779407
-2.907988097962916
-2.507947407237865
-1.3447521680526875
-2.7910531268278973
-2.8649067928079033
-2.871061264972913
-2.907988097962916
-2.9141425701278982
-2.975687291777912
-4.0465654484880815
-3.972711782508076
-3.1972482897179852
-2.994150708272913
-3.0864677907479487
-3.0310775412629165
-2.994150708272913
-3.0126141247679152
-2.96953281961293
-2.975687291777912
-2.9879962361079313
-3.006459652602933
-3.0310775412629165
-3.055695429922928
-3.043386485592936
-3.080313318582939
-2.760280766002876
-2.070979883522784
-2.821825487652891
-2.8895246814679143
-2.8649067928079033
-2.8279799598179
-2.815671015487909
-2.797207598992907
-2.8402889041478923
-2.8095165433228986
-2.8095165433228986
-2.821825487652891
-2.883370209302905
-2.8649067928079033
-2.821825487652891
-2.723353933012873
-2.797207598992907
-2.871061264972913
-2.9141425701278982
-2.944914930952919
-2.932605986622927
-2.877215737137895
-2.8464433763129016
-2.8525978484779113
-2.8525978484779113
-2.895679153632896
-2.9633783474479203
-2.96953281961293
-2.907988097962916
-2.8525978484779113
-2.9510694031179288
-2.9202970422929075
-2.944914930952919
-2.9633783474479203
-2.9572238752829105
-2.9510694031179288
-2.981841763942921
-2.975687291777912
-2.975687291777912
-2.9387604587879093
-2.4894839907428636
-3.0003051804379233
-3.381882454668
-2.9202970422929075
-2.4525571577528327
-2.8525978484779113
-2.975687291777912
-3.018768596932925
-3.0310775412629165
-3.049540957757918
-3.043386485592936
-3.055695429922928
-3.055695429922928
-3.092622262912931
-3.172630401057975
-3.154166984562973
-3.074158846417929
-3.24648406703798
-3.812695506218072
-3.412654815492993
-3.2711019556979917
-3.2280206505429785
-3.2957198443579747
-3.25263853920299
-3.191093817552976
-3.1295490959029335
-3.0987767350779407
-3.117240151572942
-3.1357035680679433
-3.154166984562973
-2.729508405177883
-3.0003051804379233
-2.760280766002876
-2.901833625797906
-3.0987767350779407
-3.184939345387966
-3.2341751227079882
-3.24648406703798
-3.215711706212987
-3.2711019556979917
-3.191093817552976
-3.160321456727955
-3.1480125123979352
-3.172630401057975
-3.2403295948729705
-3.3141832608529764
-3.5849800361130173
-3.3326466773480057
-3.326492205182996
-3.412654815492993
-3.344955621677997
-3.3326466773480057
-3.308028788687994
-3.2403295948729705
-3.2218661783779687
-3.1295490959029335
-3.0618499020879373
-3.049540957757918
-2.68642710002287
-1.8740367742427766
-3.043386485592936
-3.4557361206480066
-4.292744335088139
-4.101955697973114
-3.4865084814730274
-3.338801149512988
-3.3511100938430074
-3.3141832608529764
-3.2218661783779687
-3.2034027618829675
-3.2834109000279827
-3.1664759288929645
-3.1295490959029335
-3.0618499020879373
-2.8095165433228986
-3.0249230690979347
-3.080313318582939
-3.080313318582939
-3.191093817552976
-3.24648406703798
-3.2034027618829675
-3.160321456727955
-3.1049312072429505
-3.055695429922928
-3.037232013427927
-3.1972482897179852
-3.3203377330179857
-3.24648406703798
-3.1972482897179852
-3.344955621677997
-3.1357035680679433
-3.0680043742529195
-3.0864677907479487
-3.2095572340479768
-3.2095572340479768
-3.191093817552976
-3.0987767350779407
-3.055695429922928
-3.092622262912931
-3.117240151572942
-3.172630401057975
-3.2095572340479768
-3.1049312072429505
-3.2095572340479768
-3.215711706212987
-3.1972482897179852
-3.2280206505429785
-3.301874316522985
-3.289565372192993
-3.301874316522985
-3.344955621677997
-3.3203377330179857
-3.2341751227079882
-3.258793011367972
-3.308028788687994
-3.308028788687994
-3.289565372192993
-3.363419038172999
-3.338801149512988
-3.3326466773480057
-3.406500343328012
-3.326492205182996
-2.8895246814679143
-3.406500343328012
-3.7080694794130453
-3.357264566007989
-3.3326466773480057
-3.326492205182996
-3.3326466773480057
-3.369573510338009
-3.3141832608529764
-3.2280206505429785
-3.301874316522985
-3.289565372192993
-3.301874316522985
-3.264947483532982
-3.2095572340479768
-3.289565372192993
-3.301874316522985
-3.258793011367972
-3.2957198443579747
-3.215711706212987
-3.2095572340479768
-3.258793011367972
-3.3141832608529764
-3.492662953638009
-3.375727982502991
-3.289565372192993
-3.3203377330179857
-3.3326466773480057
-3.2280206505429785
-3.1480125123979352
-3.092622262912931
-3.1480125123979352
-3.1664759288929645
-3.154166984562973
-3.1357035680679433
-3.117240151572942
-3.1233946237379517
-3.160321456727955
-3.1664759288929645
-3.2034027618829675
-3.264947483532982
-3.2834109000279827
-3.2711019556979917
-3.215711706212987
-3.258793011367972
-3.2403295948729705
-3.184939345387966
-3.154166984562973
-3.117240151572942
-3.037232013427927
-2.883370209302905
-2.7848986546628876
-2.907988097962916
-2.8649067928079033
-2.8649067928079033
-2.8341344319829105
-2.821825487652891
-2.766435238167886
-1.3078253350626845
-2.2740774649678275
-3.0680043742529195
-2.7910531268278973
-2.8033620711578893
-2.8402889041478923
-2.7910531268278973
-3.074158846417929
-4.194272780448122
-3.474199537143008
-2.9387604587879093
-2.815671015487909
-2.821825487652891
-2.754126293837894
-2.735662877342893
-2.8341344319829105
-2.8341344319829105
-2.8649067928079033
-2.9572238752829105
-2.9879962361079313
-2.96953281961293
-2.9264515144579173
-3.1049312072429505
-3.2095572340479768
-3.258793011367972
-3.3326466773480057
-3.357264566007989
-3.369573510338009
-3.375727982502991
-3.3141832608529764
-3.277256427862973
-3.184939345387966
-3.141858040232953
-3.154166984562973
-3.1049312072429505
-3.2034027618829675
-3.289565372192993
-3.1664759288929645
-3.1049312072429505
-3.049540957757918
-3.049540957757918
-3.049540957757918
-3.037232013427927
-3.037232013427927
-3.049540957757918
-3.0680043742529195
-3.1233946237379517
-3.117240151572942
-3.0618499020879373
-2.981841763942921
-3.141858040232953
-3.1972482897179852
-3.141858040232953
-3.1049312072429505
-3.0618499020879373
-3.0126141247679152
-3.055695429922928
-3.0680043742529195
-3.055695429922928
-3.0249230690979347
-3.0003051804379233
-3.055695429922928
-3.018768596932925
-2.883370209302905
-2.495638462907845
-2.975687291777912
-3.412654815492993
-3.141858040232953
-3.037232013427927
-3.006459652602933
-3.043386485592936
-3.043386485592936
-3.0249230690979347
-2.975687291777912
-2.975687291777912
-2.9141425701278982
-2.877215737137895
-2.8895246814679143
-3.24648406703798
-3.0310775412629165
-2.883370209302905
-2.9264515144579173
-2.9387604587879093
-2.883370209302905
-2.858752320642893
-2.8402889041478923
-2.8341344319829105
-2.858752320642893
-2.8649067928079033
-2.895679153632896
-2.871061264972913
-2.8464433763129016
-2.8402889041478923
-3.0003051804379233
-3.006459652602933
-2.9572238752829105
-2.9387604587879093
-2.9264515144579173
-2.907988097962916
-2.877215737137895
-2.8341344319829105
-2.766435238167886
-2.711044988682881
-2.6925815721878803
-2.68642710002287
-2.680272627857888
-2.6987360443528896
-2.735662877342893
-2.766435238167886
-2.8033620711578893
-2.760280766002876
-2.754126293837894
-2.711044988682881
-2.6987360443528896
-2.723353933012873
-2.711044988682881
-2.704890516517872
-2.729508405177883
-2.704890516517872
-2.631036850537866
-2.6371913227028756
-2.754126293837894
-2.3848579639378364
-1.4986139721777092
-2.249459576307816
-2.754126293837894
-3.9111670608580615
-3.24648406703798
-2.7418173495078744
-2.6618092113628857
-2.6925815721878803
-2.6618092113628857
-2.667963683527869
-2.760280766002876
-2.6925815721878803
-2.754126293837894
-2.760280766002876
-2.778744182497905
-2.8095165433228986
-2.8279799598179
-2.7910531268278973
-2.723353933012873
-2.735662877342893
-2.711044988682881
-2.723353933012873
-2.6987360443528896
-2.6618092113628857
-2.624882378372884
-2.6371913227028756
-2.520256351567857
-2.600264489712873
-2.6064189618778553
-2.68642710002287
-2.778744182497905
-2.754126293837894
-2.760280766002876
-2.7910531268278973
-2.766435238167886
-2.772589710332896
-2.766435238167886
-2.8033620711578893
-2.8033620711578893
-2.55102871239285
-2.5387197680628573
-2.760280766002876
-2.883370209302905
-2.895679153632896
-2.8895246814679143
-2.907988097962916
-2.9141425701278982
-2.9202970422929075
-2.9572238752829105
-2.975687291777912
-2.9633783474479203
-2.944914930952919
-2.9510694031179288
-3.191093817552976
-3.4865084814730274
-3.1664759288929645
-3.141858040232953
-3.172630401057975
-3.184939345387966
-3.215711706212987
-3.24648406703798
-3.2403295948729705
-3.2403295948729705
-2.8279799598179
-3.3203377330179857
-3.8188499783830547
-3.4988174258030194
-3.049540957757918
-2.6618092113628857
-3.1480125123979352
-3.424963759823013
-3.578825563948035
-3.5234353144630304
-3.289565372192993
-3.184939345387966
-3.1357035680679433
-3.1664759288929645
-3.215711706212987
-3.1972482897179852
-3.1664759288929645
-3.154166984562973
-3.363419038172999
-3.898858116528071
-3.529589786628012
-3.394191398997992
-3.344955621677997
-3.344955621677997
-3.3511100938430074
-3.38803692683301
-3.4434271763180146
-3.492662953638009
-3.474199537143008
-3.511126370133011
-3.609597924773028
-3.5726710917830253
-3.5234353144630304
-3.492662953638009
-3.461890592813016
-3.4311182319879947
-3.381882454668
-3.326492205182996
-3.24648406703798
-3.1972482897179852
-3.172630401057975
-3.277256427862973
-3.308028788687994
-3.1233946237379517
-3.0310775412629165
-3.0249230690979347
-2.9510694031179288
-2.9510694031179288
-3.1295490959029335
-3.1110856794079322
-3.092622262912931
-3.117240151572942
-3.1972482897179852
-3.2218661783779687
-3.1480125123979352
-3.1295490959029335
-3.1295490959029335
-3.092622262912931
-2.747971821672884
-1.892500190737778
-2.667963683527869
-2.9572238752829105
-3.1233946237379517
-3.049540957757918
-3.037232013427927
-3.0680043742529195
-4.54507769385315
-3.9604028381780845
-3.394191398997992
-3.338801149512988
-3.344955621677997
-3.326492205182996
-3.3203377330179857
-3.394191398997992
-3.474199537143008
-3.4865084814730274
-3.412654815492993
-3.369573510338009
-3.394191398997992
-3.412654815492993
-3.4557361206480066
-3.4557361206480066
-3.511126370133011
-3.511126370133011
-3.529589786628012
-3.529589786628012
-3.535744258793022
-3.658833702093051
-3.6896060629180436
-3.2957198443579747
-3.2957198443579747
-3.6957605350830534
-3.640370285598049
-3.578825563948035
-3.468045064977998
-3.406500343328012
-3.406500343328012
-3.4434271763180146
-3.461890592813016
-3.511126370133011
-3.504971897968029
-3.474199537143008
-3.4188092876580036
-3.806541034053064
-4.101955697973114
-3.5726710917830253
-3.4188092876580036
-3.406500343328012
-3.504971897968029
-3.474199537143008
-3.412654815492993
-3.4434271763180146
-3.4311182319879947
-3.3511100938430074
-3.338801149512988
-3.301874316522985
-3.2957198443579747
-3.1972482897179852
-3.277256427862973
-3.258793011367972
-3.301874316522985
-3.172630401057975
-2.680272627857888
-3.258793011367972
-3.535744258793022
-3.1972482897179852
-3.1295490959029335
-3.092622262912931
-2.612573434042864
-1.5847765824877347
-2.871061264972913
-2.895679153632896
-3.0864677907479487
-3.1049312072429505
-3.0987767350779407
-3.117240151572942
-3.9480938938480934
-4.391215889728128
-3.461890592813016
-3.2403295948729705
-3.1664759288929645
-3.1357035680679433
-3.117240151572942
-3.0864677907479487
-3.0126141247679152
-2.9264515144579173
-2.544874240227868
-2.9141425701278982
-3.037232013427927
-3.080313318582939
-3.0864677907479487
-3.0864677907479487
-3.1110856794079322
-3.0987767350779407
-3.055695429922928
-3.0126141247679152
-3.018768596932925
-2.981841763942921
-2.932605986622927
-3.006459652602933
-3.468045064977998
-3.2034027618829675
-3.018768596932925
-2.975687291777912
-2.9633783474479203
-2.9633783474479203
-2.9572238752829105
-2.944914930952919
-2.901833625797906
-2.895679153632896
-2.9264515144579173
-2.944914930952919
-2.9141425701278982
-2.871061264972913
-2.932605986622927
-3.1233946237379517
-2.901833625797906
-2.8402889041478923
-2.8402889041478923
-2.8464433763129016
-2.4894839907428636
-1.2955163907326928
-2.600264489712873
-3.264947483532982
-4.101955697973114
-3.172630401057975
-2.932605986622927
-2.8895246814679143
-2.901833625797906
-2.9387604587879093
-2.8895246814679143
-2.8649067928079033
-2.8895246814679143
-2.895679153632896
-2.858752320642893
-2.8464433763129016
-2.8525978484779113
-2.871061264972913
-2.9202970422929075
-2.901833625797906
-2.901833625797906
-2.8649067928079033
-2.815671015487909
-2.901833625797906
-2.8279799598179
-2.797207598992907
-2.7848986546628876
-2.735662877342893
-2.7171994608478913
-2.7848986546628876
-2.735662877342893
-2.6925815721878803
-2.655654739197877
-2.649500267032867
-2.68642710002287
-2.618727906207874
-2.4587116299178424
-2.526410823732866
-2.735662877342893
-2.760280766002876
-2.680272627857888
-2.667963683527869
-2.6925815721878803
-2.667963683527869
-2.618727906207874
-2.600264489712873
-2.6371913227028756
-2.778744182497905
-2.766435238167886
-2.723353933012873
-2.729508405177883
-2.766435238167886
-2.8649067928079033
-2.907988097962916
-2.895679153632896
-2.9141425701278982
-2.944914930952919
-2.975687291777912
-2.96953281961293
-2.9633783474479203
-3.0003051804379233
-2.96953281961293
-2.9572238752829105
-2.895679153632896
-2.563337656722869
-3.375727982502991
-3.6711426464230414
-3.25263853920299
-3.1295490959029335
-3.1233946237379517
-3.141858040232953
-3.1480125123979352
-3.1664759288929645
-3.160321456727955
-3.178784873222984
-3.2095572340479768
-3.258793011367972
-3.2957198443579747
-3.191093817552976
-3.2280206505429785
-3.24648406703798
-3.178784873222984
-3.160321456727955
-3.215711706212987
-3.2280206505429785
-3.2711019556979917
-3.2957198443579747
-3.301874316522985
-3.2957198443579747
-3.3203377330179857
-3.381882454668
-3.3511100938430074
-3.277256427862973
-3.3203377330179857
-3.357264566007989
-3.2957198443579747
-3.301874316522985
-3.308028788687994
-3.289565372192993
-3.3326466773480057
-3.357264566007989
-3.3511100938430074
-3.3326466773480057
-3.412654815492993
-3.517280842298021
-3.4311182319879947
-3.4434271763180146
-3.5665166196180156
-3.535744258793022
-3.4988174258030194
-3.535744258793022
-3.597288980443037
-3.6034434526080172
-3.277256427862973
-3.7080694794130453
-3.9542483660130747
-3.732687368073057
-3.6957605350830534
-3.677297118588053
-3.6280613412680296
-3.5665166196180156
-3.4988174258030194
-3.2711019556979917
-2.304849825792821
-2.975687291777912
-3.2834109000279827
-3.369573510338009
-3.394191398997992
-3.406500343328012
-4.126573586633098
-4.434297194883141
-3.517280842298021
-3.338801149512988
-3.369573510338009
-3.412654815492993
-3.043386485592936
-3.3141832608529764
-3.726532895908047
-3.7634597288980496
-3.726532895908047
-3.658833702093051
-3.652679229928041
-3.5726710917830253
-3.560362147453033
-3.5726710917830253
-3.529589786628012
-3.597288980443037
-3.609597924773028
-3.6219068691030203
-4.268126446428129
-4.3173622237481215
-3.8188499783830547
-3.7080694794130453
-3.5849800361130173
-3.4865084814730274
-3.357264566007989
-3.2095572340479768
-3.1049312072429505
-3.0003051804379233
-2.96953281961293
-2.975687291777912
-2.96953281961293
-3.006459652602933
-2.760280766002876
-2.8279799598179
-3.1972482897179852
-3.2957198443579747
-3.308028788687994
-3.424963759823013
-3.375727982502991
-3.3326466773480057
-3.363419038172999
-3.357264566007989
-3.3203377330179857
-3.301874316522985
-3.301874316522985
-3.24648406703798
-3.363419038172999
-3.609597924773028
-3.3141832608529764
-3.2095572340479768
-3.178784873222984
-3.2034027618829675
-3.1664759288929645
-3.154166984562973
-3.1664759288929645
-2.729508405177883
-3.2034027618829675
-3.517280842298021
-3.191093817552976
-3.037232013427927
-2.932605986622927
-2.9141425701278982
-2.901833625797906
-3.117240151572942
-4.0219475598280985
-4.8035655247832
-5.037435467053236
-3.9542483660130747
-4.003484143333097
-4.5696955825131615
-4.440451667048151
-4.188118308283112
-3.868085755703077
-2.495638462907845
-1.91096360723278
-2.224841687647805
-2.304849825792821
-2.2925408814628288
-2.2925408814628288
-2.3110042979578305
-2.335622186617841
-2.372549019607845
-2.403321380432838
-2.3848579639378364
-2.3971669082678284
-2.4156303247628297
-2.4156303247628297
-2.372549019607845
-2.298695353627811
-2.2309961598128147
-2.3110042979578305
-2.3233132422878215
-2.403321380432838
-2.329467714452832
-2.3417766587828237
-2.403321380432838
-2.434093741257831
-2.471020574247862
-2.4587116299178424
-2.4648661020828517
-2.471020574247862
-2.483329518577854
-2.4217847969278394
-2.434093741257831
-2.544874240227868
-2.520256351567857
-2.5325652958978484
-2.575646601052861
-2.575646601052861
-2.600264489712873
-2.711044988682881
-2.747971821672884
-2.8341344319829105
-2.600264489712873
-1.4863050278477177
-2.96953281961293
-3.9665573103430942
-3.7696142010630598
-3.2095572340479768
-3.3511100938430074
-3.369573510338009
-3.344955621677997
-3.3203377330179857
-3.2957198443579747
-3.258793011367972
-3.25263853920299
-3.2341751227079882
-3.2341751227079882
-3.2034027618829675
-3.160321456727955
-3.1664759288929645
-3.788077617558061
-2.655654739197877
-2.1448335495027893
-3.1295490959029335
-3.4988174258030194
-3.344955621677997
-3.375727982502991
-3.412654815492993
-3.6465247577630313
-4.760484219628186
-4.101955697973114
-3.634215813433039
-3.535744258793022
-3.468045064977998
-3.301874316522985
-3.424963759823013
-3.4803540093080176
-3.437272704153005
-3.4434271763180146
-3.461890592813016
-3.4434271763180146
-3.449581648482997
-3.4311182319879947
-3.4188092876580036
-3.437272704153005
-3.4188092876580036
-3.400345871163002
-3.369573510338009
-3.326492205182996
-3.437272704153005
-3.394191398997992
-3.357264566007989
-3.344955621677997
-3.38803692683301
-3.215711706212987
-3.2711019556979917
-3.2957198443579747
-3.24648406703798
-3.2218661783779687
-3.264947483532982
-3.277256427862973
-3.2218661783779687
-3.1480125123979352
-3.24648406703798
-3.215711706212987
-3.160321456727955
-3.141858040232953
-3.1233946237379517
-3.1110856794079322
-3.092622262912931
-3.0864677907479487
-3.0680043742529195
-3.018768596932925
-3.055695429922928
-3.0864677907479487
-3.055695429922928
-2.735662877342893
-2.2802319371328093
-2.858752320642893
-3.0249230690979347
-3.0680043742529195
-3.0864677907479487
-3.0987767350779407
-3.178784873222984
-2.8402889041478923
-2.9202970422929075
-3.652679229928041
-3.394191398997992
-3.301874316522985
-3.277256427862973
-3.5726710917830253
-4.206581724778113
-3.5911345082780266
-3.400345871163002
-3.4311182319879947
-3.424963759823013
-3.492662953638009
-3.5665166196180156
-3.548053203123014
-3.597288980443037
-3.529589786628012
-3.4434271763180146
-3.4865084814730274
-3.424963759823013
-3.289565372192993
-3.3203377330179857
-3.326492205182996
-3.2957198443579747
-3.2341751227079882
-3.264947483532982
-3.2834109000279827
-3.24648406703798
-3.2403295948729705
-3.215711706212987
-3.191093817552976
-3.160321456727955
-3.117240151572942
-3.1295490959029335
-3.117240151572942
-3.1357035680679433
-3.289565372192993
-3.258793011367972
-3.25263853920299
-3.264947483532982
-2.895679153632896
-1.6709391927977324
-3.043386485592936
-3.160321456727955
-3.1664759288929645
-3.1664759288929645
-3.264947483532982
-4.335825640243124
-4.0342565041580905
-3.338801149512988
-3.308028788687994
-3.2403295948729705
-3.25263853920299
-3.24648406703798
-3.25263853920299
-3.2280206505429785
-3.2403295948729705
-3.2834109000279827
-3.277256427862973
-3.25263853920299
-3.2711019556979917
-3.264947483532982
-3.2218661783779687
-3.191093817552976
-3.2280206505429785
-3.172630401057975
-3.178784873222984
-3.172630401057975
-3.191093817552976
-3.2280206505429785
-3.3326466773480057
-3.2280206505429785
-3.1664759288929645
-3.2034027618829675
-3.2341751227079882
-3.2403295948729705
-3.1972482897179852
-3.172630401057975
-3.326492205182996
-3.258793011367972
-3.2711019556979917
-3.2280206505429785
-3.2341751227079882
-3.2711019556979917
-3.2711019556979917
-3.2711019556979917
-3.2957198443579747
-3.2341751227079882
-3.25263853920299
-3.3141832608529764
-3.2711019556979917
-3.191093817552976
-3.326492205182996
-3.308028788687994
-3.2834109000279827
-3.2834109000279827
-3.25263853920299
-3.25263853920299
-3.2957198443579747
-3.289565372192993
-3.289565372192993
-3.2957198443579747
-3.2834109000279827
-3.25263853920299
-2.7848986546628876
-3.25263853920299
-3.7449963124030474
-3.381882454668
-3.2834109000279827
-3.2711019556979917
-3.2280206505429785
-3.24648406703798
-3.25263853920299
-3.2341751227079882
-3.277256427862973
-3.258793011367972
-3.2218661783779687
-3.277256427862973
-3.25263853920299
-3.215711706212987
-3.363419038172999
-3.301874316522985
-3.215711706212987
-3.2095572340479768
-3.1972482897179852
-3.264947483532982
-3.191093817552976
-3.1295490959029335
-3.160321456727955
-3.191093817552976
-3.191093817552976
-3.1664759288929645
-3.154166984562973
-3.1480125123979352
-3.2034027618829675
-3.2218661783779687
-3.160321456727955
-3.1664759288929645
-3.154166984562973
-3.1295490959029335
-3.154166984562973
-3.154166984562973
-3.141858040232953
-3.154166984562973
-3.1357035680679433
-3.1295490959029335
-3.1357035680679433
-3.0249230690979347
-3.0249230690979347
-3.1664759288929645
-3.0987767350779407
-3.1049312072429505
-3.1480125123979352
-3.1295490959029335
-3.1110856794079322
-3.0864677907479487
-3.0864677907479487
-3.117240151572942
-3.0987767350779407
-3.0987767350779407
-3.0987767350779407
-3.0618499020879373
-2.6618092113628857
-1.9171180793977614
-2.754126293837894
-4.16965489178811
-3.861931283538067
-3.301874316522985
-3.2095572340479768
-3.154166984562973
-3.1110856794079322
-3.1049312072429505
-3.1295490959029335
-3.117240151572942
-3.1049312072429505
-3.141858040232953
-3.2711019556979917
-3.2034027618829675
-3.092622262912931
-3.1049312072429505
-3.117240151572942
-3.092622262912931
-3.0680043742529195
-3.0618499020879373
-3.055695429922928
-3.055695429922928
-3.037232013427927
-3.049540957757918
-3.037232013427927
-3.018768596932925
-2.9633783474479203
-3.0987767350779407
-3.0618499020879373
-3.092622262912931
-3.0987767350779407
-3.074158846417929
-3.055695429922928
-3.074158846417929
-3.074158846417929
-3.0618499020879373
-3.0618499020879373
-3.0680043742529195
-3.0864677907479487
-3.037232013427927
-2.6987360443528896
-2.821825487652891
-3.074158846417929
-3.092622262912931
-3.080313318582939
-3.1295490959029335
-3.1295490959029335
-3.1233946237379517
-3.154166984562973
-3.172630401057975
-3.154166984562973
-3.1357035680679433
-3.1480125123979352
-3.1233946237379517
-3.381882454668
-3.609597924773028
-3.258793011367972
-3.1972482897179852
-3.172630401057975
-3.1295490959029335
-3.1480125123979352
-3.191093817552976
-2.624882378372884
-3.160321456727955
-3.560362147453033
-3.258793011367972
-3.2218661783779687
-3.1972482897179852
-3.1480125123979352
-3.2834109000279827
-3.2711019556979917
-3.277256427862973
-3.215711706212987
-3.215711706212987
-3.264947483532982
-3.2711019556979917
-3.2957198443579747
-3.326492205182996
-3.400345871163002
-3.517280842298021
-3.375727982502991
-3.258793011367972
-3.2280206505429785
-3.160321456727955
-3.24648406703798
-3.2711019556979917
-3.258793011367972
-2.8525978484779113
-2.0586709391927913
-2.667963683527869
-3.043386485592936
-3.154166984562973
-3.178784873222984
-3.172630401057975
-3.172630401057975
-3.9173215330230713
-4.323516695913132
-3.5726710917830253
-3.308028788687994
-3.2095572340479768
-3.154166984562973
-3.1480125123979352
-3.178784873222984
-3.154166984562973
-3.160321456727955
-3.160321456727955
-3.1664759288929645
-3.184939345387966
-3.178784873222984
-3.172630401057975
-3.1233946237379517
-2.871061264972913
-3.0987767350779407
-3.2280206505429785
-3.258793011367972
-3.3141832608529764
-3.400345871163002
-3.578825563948035
-3.935784949518073
-4.428142722718159
-4.440451667048151
-3.548053203123014
-4.846646829938211
-4.625085831998166
-4.42198825055315
-4.618931359833185
-4.729711858803193
-5.60980137839831
-4.80971999694821
-4.298898807253121
-4.17580936395312
-4.114264642303106
-4.052719920653092
-4.009638615498079
-4.077337809313103
-3.9788662546730857
-3.9419394216830828
-3.935784949518073
-3.861931283538067
-3.8434678670430653
-3.9542483660130747
-3.8803947000330687
-3.849622339208075
-3.8927036443630603
-3.898858116528071
-3.874240227868059
-3.8311589227130733
-3.849622339208075
-3.837313394878056
-3.806541034053064
-3.800386561888053
-3.812695506218072
-3.7511507845680576
-3.289565372192993
-3.326492205182996
-3.640370285598049
-3.6834515907530343
-3.732687368073057
-3.7757686732280415
-3.75730525673304
-3.7511507845680576
-3.7696142010630598
-3.788077617558061
-3.800386561888053
-3.7757686732280415
-3.7696142010630598
-3.726532895908047
-4.077337809313103
-4.138882530963118
-3.855776811373057
-3.7942320897230712
-3.7757686732280415
-3.7696142010630598
-3.7757686732280415
-3.738841840238039
-3.726532895908047
-3.75730525673304
-3.7757686732280415
-3.781923145393051
-3.7449963124030474
-3.677297118588053
-3.800386561888053
-3.9542483660130747
-3.7511507845680576
-3.2711019556979917
-3.7757686732280415
-4.120419114468116
-3.800386561888053
-3.726532895908047
-3.7942320897230712
-3.732687368073057
-3.652679229928041
-3.6896060629180436
-3.6896060629180436
-3.652679229928041
-3.6465247577630313
-3.7634597288980496
-3.781923145393051
-3.7634597288980496
-3.7511507845680576
-3.7942320897230712
-3.7634597288980496
-3.732687368073057
-3.6834515907530343
-3.6896060629180436
-3.6834515907530343
-3.634215813433039
-3.6711426464230414
-3.6219068691030203
-3.5726710917830253
-3.6834515907530343
-3.701915007248036
-3.6896060629180436
-3.6834515907530343
-3.6465247577630313
-3.6834515907530343
-3.6834515907530343
-3.6711426464230414
-3.720378423743037
-3.7080694794130453
-3.732687368073057
-3.7142239515780546
-3.677297118588053
-3.6280613412680296
-3.597288980443037
-3.6219068691030203
-3.5849800361130173
-3.578825563948035
-3.5726710917830253
-3.5665166196180156
-3.597288980443037
-3.597288980443037
-3.609597924773028
-3.634215813433039
-3.652679229928041
-3.677297118588053
-3.640370285598049
-3.6219068691030203
-3.732687368073057
-3.732687368073057
-3.720378423743037
-3.7080694794130453
-3.3141832608529764
-2.114061188677796
-3.868085755703077
-5.006663106228215
-4.181963836118102
-3.720378423743037
-3.560362147453033
-3.4988174258030194
-3.424963759823013
-3.3141832608529764
-3.277256427862973
-3.412654815492993
-3.381882454668
-3.406500343328012
-3.4803540093080176
-3.554207675288024
-3.597288980443037
-3.658833702093051
-3.7511507845680576
-3.849622339208075
-3.837313394878056
-3.7942320897230712
-3.7757686732280415
-3.701915007248036
-3.701915007248036
-3.6465247577630313
-3.5665166196180156
-3.4865084814730274
-3.4434271763180146
-3.4311182319879947
-3.461890592813016
-3.4803540093080176
-3.5418987309580316
-3.6034434526080172
-3.6280613412680296
-3.7142239515780546
-3.738841840238039
-3.6896060629180436
-3.634215813433039
-3.7511507845680576
-3.640370285598049
-3.6034434526080172
-3.6219068691030203
-3.677297118588053
-3.7080694794130453
-3.7080694794130453
-3.6834515907530343
-3.800386561888053
-3.788077617558061
-3.7080694794130453
-3.6465247577630313
-3.5726710917830253
-3.511126370133011
-3.6219068691030203
-3.554207675288024
-3.5418987309580316
-3.554207675288024
-3.5849800361130173
-3.609597924773028
-3.609597924773028
-3.597288980443037
-3.6280613412680296
-3.5726710917830253
-3.38803692683301
-1.7447928587777384
-2.754126293837894
-3.788077617558061
-3.781923145393051
-3.7449963124030474
-4.945118384578229
-4.514305333028156
-3.7757686732280415
-3.640370285598049
-3.615752396938038
-3.6280613412680296
-3.609597924773028
-3.6834515907530343
-3.5234353144630304
-3.492662953638009
-3.4865084814730274
-3.363419038172999
-3.338801149512988
-3.504971897968029
-3.5726710917830253
-3.6219068691030203
-3.5849800361130173
-3.560362147453033
-3.5726710917830253
-3.560362147453033
-3.535744258793022
-3.5234353144630304
-3.468045064977998
-3.468045064977998
-3.4557361206480066
-3.2957198443579747
-2.9633783474479203
-3.301874316522985
-3.381882454668
-3.4188092876580036
-3.406500343328012
-3.400345871163002
-3.424963759823013
-3.4311182319879947
-3.449581648482997
-3.492662953638009
-3.474199537143008
-2.797207598992907
-1.8863457185727683
-2.932605986622927
-3.2341751227079882
-3.3326466773480057
-3.9480938938480934
-4.908191551588226
-3.898858116528071
-3.560362147453033
-3.4988174258030194
-3.468045064977998
-3.449581648482997
-3.412654815492993
-3.38803692683301
-3.474199537143008
-3.344955621677997
-3.0126141247679152
-2.347931130947833
-3.504971897968029
-3.369573510338009
-3.3141832608529764
-3.338801149512988
-3.9050125886930798
-4.735866330968203
-3.788077617558061
-3.535744258793022
-3.504971897968029
-3.449581648482997
-3.424963759823013
-3.424963759823013
-3.437272704153005
-3.468045064977998
-3.5418987309580316
-3.504971897968029
-3.4557361206480066
-3.4434271763180146
-3.449581648482997
-3.437272704153005
-3.4434271763180146
-3.474199537143008
-3.474199537143008
-3.437272704153005
-3.4434271763180146
-3.4865084814730274
-3.437272704153005
-3.338801149512988
-3.4988174258030194
-3.4865084814730274
-3.4865084814730274
-3.517280842298021
-3.5234353144630304
-3.492662953638009
-3.4865084814730274
-3.406500343328012
-2.347931130947833
-2.2063782711528033
-3.2341751227079882
-3.634215813433039
-3.369573510338009
-3.289565372192993
-3.504971897968029
-3.720378423743037
-4.797411052618189
-4.0896467536430965
-3.615752396938038
-3.4988174258030194
-3.468045064977998
-3.461890592813016
-3.4434271763180146
-3.4188092876580036
-3.369573510338009
-3.3511100938430074
-3.3141832608529764
-3.3141832608529764
-3.4988174258030194
-3.474199537143008
-3.4803540093080176
-3.504971897968029
-3.504971897968029
-3.4988174258030194
-3.504971897968029
-3.5418987309580316
-3.4988174258030194
-3.461890592813016
-3.4557361206480066
-3.4557361206480066
-3.437272704153005
-3.338801149512988
-3.4434271763180146
-3.4434271763180146
-3.4188092876580036
-3.406500343328012
-3.400345871163002
-3.406500343328012
-3.369573510338009
-3.381882454668
-3.4188092876580036
-3.424963759823013
-3.394191398997992
-3.38803692683301
-3.406500343328012
-3.381882454668
-3.517280842298021
-3.468045064977998
-3.474199537143008
-3.406500343328012
-3.369573510338009
-3.369573510338009
-3.394191398997992
-3.400345871163002
-3.394191398997992
-3.4434271763180146
-3.4557361206480066
-3.4188092876580036
-3.424963759823013
-3.400345871163002
-3.609597924773028
-3.184939345387966
-3.1295490959029335
-3.806541034053064
-3.468045064977998
-3.344955621677997
-3.2957198443579747
-3.277256427862973
-3.326492205182996
-3.3203377330179857
-3.38803692683301
-3.424963759823013
-3.3511100938430074
-3.2711019556979917
-3.1664759288929645
-3.2957198443579747
-2.858752320642893
-3.3203377330179857
-3.609597924773028
-3.3203377330179857
-3.2280206505429785
-3.2095572340479768
-2.907988097962916
-2.04020752269779
-3.400345871163002
-4.378906945398136
-3.560362147453033
-3.301874316522985
-3.3326466773480057
-3.4188092876580036
-3.3511100938430074
-3.381882454668
-3.406500343328012
-3.3326466773480057
-3.3203377330179857
-3.326492205182996
-3.3203377330179857
-3.308028788687994
-3.3203377330179857
-3.326492205182996
-3.326492205182996
-3.2711019556979917
-3.24648406703798
-3.369573510338009
-3.3203377330179857
-3.344955621677997
-3.357264566007989
-3.4311182319879947
-3.412654815492993
-3.406500343328012
-3.394191398997992
-3.38803692683301
-3.369573510338009
-3.363419038172999
-3.338801149512988
-3.289565372192993
-3.2403295948729705
-3.344955621677997
-3.3203377330179857
-3.3326466773480057
-3.369573510338009
-3.363419038172999
-3.338801149512988
-3.3203377330179857
-3.3141832608529764
-3.3326466773480057
-3.289565372192993
-3.326492205182996
-3.3203377330179857
-3.264947483532982
-3.289565372192993
-3.474199537143008
-3.3511100938430074
-3.289565372192993
-3.3511100938430074
-3.375727982502991
-3.449581648482997
-3.394191398997992
-3.344955621677997
-3.338801149512988
-3.3203377330179857
-3.3141832608529764
-3.3141832608529764
-3.3141832608529764
-3.2280206505429785
-3.363419038172999
-2.907988097962916
-3.38803692683301
-3.677297118588053
-3.412654815492993
-3.3511100938430074
-3.357264566007989
-3.4311182319879947
-3.4311182319879947
-3.400345871163002
-3.406500343328012
-3.394191398997992
-3.326492205182996
-3.3203377330179857
-3.548053203123014
-3.529589786628012
-3.560362147453033
-3.535744258793022
-3.504971897968029
-3.468045064977998
-3.424963759823013
-3.38803692683301
-3.3326466773480057
-3.289565372192993
-3.258793011367972
-3.3511100938430074
-3.2341751227079882
-3.1049312072429505
-3.215711706212987
-3.184939345387966
-3.184939345387966
-3.326492205182996
-3.3326466773480057
-3.264947483532982
-3.2341751227079882
-3.2280206505429785
-3.277256427862973
-3.2711019556979917
-3.24648406703798
-3.2341751227079882
-3.184939345387966
-3.172630401057975
-3.0310775412629165
-3.178784873222984
-3.2403295948729705
-3.2403295948729705
-3.2280206505429785
-3.2341751227079882
-3.2711019556979917
-3.277256427862973
-3.24648406703798
-1.1355001144426613
3.4557361206479786
2.5141018794028467
-1.2401261412476885
-2.747971821672884
-3.264947483532982
-3.2403295948729705
-3.2034027618829675
-2.8341344319829105
-1.6340123598077294
-3.049540957757918
-3.178784873222984
-3.172630401057975
-3.2034027618829675
-4.145037003128099
-4.366598001068144
-3.615752396938038
-3.4865084814730274
-3.461890592813016
-3.4803540093080176
-3.4803540093080176
-3.461890592813016
-3.468045064977998
-3.394191398997992
-3.357264566007989
-3.308028788687994
-3.277256427862973
-3.289565372192993
-3.289565372192993
-3.1972482897179852
-2.9572238752829105
-2.8649067928079033
-2.8095165433228986
-2.858752320642893
-3.006459652602933
-3.018768596932925
-3.0987767350779407
-3.2034027618829675
-3.258793011367972
-2.975687291777912
-1.849418885582765
-1.1601180031026725
-1.2770529742376913
-1.5293863330027024
-1.6401668319727392
-1.7017115536227536
-1.6647847206327224
-1.7201749701177547
-1.8863457185727683
-1.855573357747775
-1.9294270237277809
-1.9786628010477763
-2.0278985783677985
-2.052516467027782
-2.0955977721827947
-2.070979883522784
-2.0586709391927913
-2.0463619948628
-2.0955977721827947
-2.089443300017785
-2.0217441062027888
-2.187914854657802
-2.3663945474428347
-2.175605910327811
-2.212532743317813
-2.261768520637808
-2.391012436102846
-2.5141018794028467
-2.526410823732866
-2.575646601052861
-2.631036850537866
-2.680272627857888
-2.3110042979578305
-2.877215737137895
-3.0864677907479487
-2.471020574247862
-2.501792935072855
-2.6064189618778553
-2.544874240227868
-2.6433457948678853
-2.766435238167886
-2.7848986546628876
-2.778744182497905
-2.8341344319829105
-3.018768596932925
-3.0864677907479487
-3.0618499020879373
-3.080313318582939
-2.96953281961293
-2.7910531268278973
-3.055695429922928
-2.944914930952919
-2.655654739197877
-2.4587116299178424
-3.2280206505429785
-6.5021998423234475
-4.280435390758119
-2.9633783474479203
-2.8095165433228986
-2.815671015487909
-2.9572238752829105
-3.2711019556979917
-4.0219475598280985
-4.206581724778113
-3.812695506218072
-3.5665166196180156
-3.2280206505429785
-2.8464433763129016
-2.261768520637808
-3.1233946237379517
-3.468045064977998
-2.766435238167886
-2.446402685587851
-2.55102871239285
-2.680272627857888
-2.797207598992907
-2.372549019607845
-1.615548943312728
-2.4587116299178424
-2.778744182497905
-2.8402889041478923
-2.877215737137895
-2.944914930952919
-3.018768596932925
-3.9111670608580615
-4.163500419623101
-3.215711706212987
-3.0618499020879373
-3.117240151572942
-3.191093817552976
-2.8895246814679143
-1.8801912464077586
-3.5418987309580316
-3.9850207268380964
-3.3141832608529764
-3.1295490959029335
-3.037232013427927
-3.006459652602933
-3.0618499020879373
-3.0987767350779407
-3.0680043742529195
-3.037232013427927
-3.037232013427927
-3.043386485592936
-3.0249230690979347
-3.0249230690979347
-3.0310775412629165
-3.1110856794079322
-3.049540957757918
-3.074158846417929
-3.092622262912931
-3.1480125123979352
-3.154166984562973
-3.1357035680679433
-3.1110856794079322
-3.1480125123979352
-3.178784873222984
-3.215711706212987
-3.25263853920299
-3.172630401057975
-3.1972482897179852
-3.788077617558061
-6.348338038198426
-6.508354314488429
-5.326695658808278
-4.895882607258207
-4.69278502581319
-4.5696955825131615
-4.452760611378142
-4.366598001068144
-4.329671168078142
-4.280435390758119
-4.2311996134381245
-4.188118308283112
-4.0342565041580905
-4.0465654484880815
-4.015793087663089
-4.0342565041580905
-3.9973296711680857
-3.9604028381780845
-4.003484143333097
-3.972711782508076
-3.9604028381780845
-3.9480938938480934
-3.898858116528071
-3.849622339208075
-3.837313394878056
-3.8434678670430653
-3.9604028381780845
-3.923476005188081
-3.7634597288980496
-3.7696142010630598
-3.738841840238039
-3.640370285598049
-3.184939345387966
-3.6957605350830534
-4.0219475598280985
-3.6834515907530343
-3.578825563948035
-3.548053203123014
-3.437272704153005
-3.3141832608529764
-3.184939345387966
-3.3511100938430074
-3.2957198443579747
-2.4217847969278394
-1.4555326670226965
-1.510922916507701
-1.6524757763027313
-1.7940286360977609
-1.9232725515627715
-2.003280689707787
-2.070979883522784
-2.077134355687793
-2.1017522443478045
-2.070979883522784
-2.0217441062027888
-2.0278985783677985
-2.1263701330077875
-2.212532743317813
-2.446402685587851
-2.618727906207874
-2.8033620711578893
-2.944914930952919
-3.0680043742529195
-3.2711019556979917
-3.609597924773028
-3.504971897968029
-3.3511100938430074
-3.2280206505429785
-2.9387604587879093
-2.1325246051727973
-2.495638462907845
-2.501792935072855
-2.4156303247628297
-2.4587116299178424
-2.507947407237865
-2.446402685587851
-2.4279392690928487
-2.4648661020828517
-2.471020574247862
-2.520256351567857
-2.587955545382853
-2.575646601052861
-2.8402889041478923
-3.5234353144630304
-3.0864677907479487
-2.9264515144579173
-2.9510694031179288
-2.9572238752829105
-2.981841763942921
-3.0618499020879373
-2.747971821672884
-1.830955469087764
-2.5694921288878514
-2.877215737137895
-2.9510694031179288
-3.074158846417929
-4.138882530963118
-3.7080694794130453
-3.1357035680679433
-2.9879962361079313
-2.9264515144579173
-2.9572238752829105
-2.9633783474479203
-3.0003051804379233
-3.0003051804379233
-2.994150708272913
-3.006459652602933
-3.018768596932925
-3.037232013427927
-3.049540957757918
-3.0310775412629165
-3.1295490959029335
-3.141858040232953
-3.049540957757918
-3.080313318582939
-3.0618499020879373
-3.0618499020879373
-3.018768596932925
-3.0003051804379233
-3.0003051804379233
-2.994150708272913
-2.981841763942921
-2.96953281961293
-2.9633783474479203
-2.96953281961293
-3.172630401057975
-3.3326466773480057
-3.178784873222984
-3.160321456727955
-3.215711706212987
-3.2280206505429785
-3.277256427862973
-3.289565372192993
-3.301874316522985
-3.301874316522985
-3.301874316522985
-3.2711019556979917
-3.2280206505429785
-3.1664759288929645
-2.9202970422929075
-3.074158846417929
-3.1480125123979352
-3.1972482897179852
-3.2341751227079882
-3.277256427862973
-3.357264566007989
-3.535744258793022
-3.7696142010630598
-3.6034434526080172
-3.492662953638009
-3.2957198443579747
-3.184939345387966
-3.1049312072429505
-2.704890516517872
-2.2740774649678275
-3.074158846417929
-3.449581648482997
-3.2034027618829675
-3.191093817552976
-3.160321456727955
-3.1664759288929645
-3.160321456727955
-3.1295490959029335
-3.1357035680679433
-3.1357035680679433
-3.1480125123979352
-3.160321456727955
-3.5234353144630304
-3.7511507845680576
-3.3511100938430074
-3.289565372192993
-3.264947483532982
-3.25263853920299
-3.2711019556979917
-2.821825487652891
-3.277256427862973
-3.535744258793022
-3.264947483532982
-3.264947483532982
-3.264947483532982
-3.215711706212987
-3.1110856794079322
-3.2034027618829675
-3.301874316522985
-3.3203377330179857
-3.3141832608529764
-3.2957198443579747
-3.2834109000279827
-3.2711019556979917
-3.2711019556979917
-3.25263853920299
-3.24648406703798
-3.264947483532982
-3.24648406703798
-3.2095572340479768
-3.0003051804379233
-2.649500267032867
-3.049540957757918
-3.154166984562973
-3.191093817552976
-3.215711706212987
-3.2034027618829675
-3.178784873222984
-3.191093817552976
-3.178784873222984
-3.154166984562973
-3.1295490959029335
-3.141858040232953
-3.1110856794079322
-3.2711019556979917
-3.6957605350830534
-3.3203377330179857
-2.7848986546628876
-1.683248137127724
-4.212736196943122
-3.7449963124030474
-3.215711706212987
-3.141858040232953
-3.1049312072429505
-3.117240151572942
-3.0618499020879373
-3.055695429922928
-3.018768596932925
-2.944914930952919
-3.0126141247679152
-3.178784873222984
-3.5911345082780266
-4.600467943338183
-4.68047608148317
-3.9665573103430942
-3.1295490959029335
-2.6433457948678853
-2.6433457948678853
-2.729508405177883
-2.8095165433228986
-3.018768596932925
-3.289565372192993
-3.6957605350830534
-3.9973296711680857
-4.298898807253121
-4.274280918593137
-3.861931283538067
-3.597288980443037
-3.6465247577630313
-3.726532895908047
-3.781923145393051
-3.8865491721980785
-3.868085755703077
-3.806541034053064
-3.677297118588053
-3.658833702093051
-3.7511507845680576
-3.701915007248036
-3.720378423743037
-3.7634597288980496
-4.145037003128099
-4.354289056738125
-4.17580936395312
-4.108110170138096
-4.028102031993082
-4.028102031993082
-4.009638615498079
-4.009638615498079
-4.015793087663089
-4.009638615498079
-3.9788662546730857
-3.9850207268380964
-4.015793087663089
-3.898858116528071
-2.8341344319829105
-2.747971821672884
-3.7942320897230712
-4.163500419623101
-3.972711782508076
-3.9542483660130747
-3.9665573103430942
-4.200427252613103
-5.375931436128273
-4.662012664988168
-4.17580936395312
-4.083492281478085
-4.2311996134381245
-4.138882530963118
-4.058874392818101
-4.071183337148093
-4.028102031993082
-3.9480938938480934
-3.972711782508076
-3.9296304773530633
-3.9480938938480934
-3.9050125886930798
-3.9111670608580615
-3.8927036443630603
-3.825004450548064
-3.7511507845680576
-3.874240227868059
-3.861931283538067
-3.837313394878056
-3.855776811373057
-3.868085755703077
-3.8188499783830547
-3.837313394878056
-3.8434678670430653
-3.849622339208075
-3.800386561888053
-3.75730525673304
-3.7511507845680576
-3.701915007248036
-3.701915007248036
-3.8188499783830547
-3.726532895908047
-3.6957605350830534
-3.6465247577630313
-3.5849800361130173
-2.6371913227028756
-1.7940286360977609
-1.818646524757745
-1.954044912387765
-2.1017522443478045
-2.1571424938328088
-2.194069326822812
-2.2186872154828228
-2.212532743317813
-2.2433051041428067
-2.4156303247628297
-2.4156303247628297
-2.471020574247862
-2.483329518577854
-2.581801073217871
-2.483329518577854
-2.4587116299178424
-2.5141018794028467
-2.1632969659978185
-2.1817603824928202
-2.600264489712873
-1.4493781948577145
-1.990971745377768
-2.507947407237865
-2.5141018794028467
-2.8033620711578893
-3.9665573103430942
-3.4311182319879947
-3.6034434526080172
-4.797411052618189
-5.018972050558236
-4.42198825055315
-4.114264642303106
-3.9911751990030773
-3.8311589227130733
-3.7511507845680576
-3.6280613412680296
-3.5849800361130173
-3.677297118588053
-3.609597924773028
-3.535744258793022
-3.468045064977998
-3.412654815492993
-3.4311182319879947
-3.381882454668
-3.338801149512988
-3.3326466773480057
-3.338801149512988
-3.3141832608529764
-3.2403295948729705
-3.1357035680679433
-3.1233946237379517
-2.8525978484779113
-1.590931054652717
-1.289361918567683
-1.39398794537271
-1.5355408051677124
-1.6093944711477182
-1.7078660257877356
-1.7817196917677414
-1.830955469087764
-1.8740367742427766
-1.9478904402227823
-1.9848172732127856
-1.9478904402227823
-1.9971262175427773
-2.009435161872797
-1.9355814958927628
-1.9478904402227823
-1.9232725515627715
-1.892500190737778
-1.8863457185727683
-1.990971745377768
-3.406500343328012
-5.671346100048325
-4.489687444368147
-3.9788662546730857
-3.75730525673304
-3.548053203123014
-3.437272704153005
-3.5665166196180156
-3.4188092876580036
-3.38803692683301
-3.301874316522985
-2.7848986546628876
-3.258793011367972
-3.578825563948035
-3.326492205182996
-2.772589710332896
-3.1233946237379517
-3.375727982502991
-3.0864677907479487
-2.9510694031179288
-2.797207598992907
-2.8525978484779113
-2.754126293837894
-1.9417359680577726
-0.901630172172624
-0.8093130896976164
-0.9385570051626267
-1.073955392792647
-1.1724269474326645
-1.400142417537692
-2.975687291777912
-4.760484219628186
-3.732687368073057
-3.3141832608529764
-3.2095572340479768
-3.344955621677997
-2.981841763942921
-3.037232013427927
-3.4865084814730274
-3.400345871163002
-3.4311182319879947
-3.4557361206480066
-3.468045064977998
-3.4865084814730274
-3.5418987309580316
-3.597288980443037
-3.6465247577630313
-3.664988174258033
-3.658833702093051
-3.8311589227130733
-3.9173215330230713
-3.9542483660130747
-4.0219475598280985
-4.065028864983084
-4.071183337148093
-4.028102031993082
-3.9850207268380964
-3.9542483660130747
-3.38803692683301
-2.2063782711528033
-2.015589634037779
-2.070979883522784
-2.083288827852803
-2.1263701330077875
-2.2740774649678275
-2.2802319371328093
-2.2740774649678275
-2.298695353627811
-2.2925408814628288
-1.9232725515627715
-1.184735891762656
-3.5665166196180156
-2.8649067928079033
-2.631036850537866
-2.6371913227028756
-2.704890516517872
-2.797207598992907
-2.932605986622927
-3.006459652602933
-3.535744258793022
-3.7142239515780546
-3.092622262912931
-2.9264515144579173
-2.907988097962916
-2.8464433763129016
-2.815671015487909
-2.760280766002876
-2.772589710332896
-2.772589710332896
-2.723353933012873
-2.674118155692878
-2.901833625797906
-2.9879962361079313
-2.8464433763129016
-2.8402889041478923
-2.8525978484779113
-2.8279799598179
-2.8033620711578893
-2.797207598992907
-2.778744182497905
-2.711044988682881
-2.680272627857888
-2.6618092113628857
-2.624882378372884
-2.587955545382853
-2.5325652958978484
-2.581801073217871
-2.581801073217871
-2.563337656722869
-2.5694921288878514
-2.55718318455786
-2.5387197680628573
-2.5387197680628573
-2.55102871239285
-2.544874240227868
-2.507947407237865
-2.5387197680628573
-2.68642710002287
-2.6064189618778553
-2.495638462907845
-2.581801073217871
-2.55718318455786
-2.55102871239285
-2.55718318455786
-2.581801073217871
-2.711044988682881
-2.631036850537866
-2.674118155692878
-2.6925815721878803
-2.618727906207874
-2.649500267032867
-2.7171994608478913
-2.655654739197877
-2.2371506319778245
-2.901833625797906
-3.258793011367972
-3.080313318582939
-3.055695429922928
-3.0618499020879373
-3.0987767350779407
-3.1664759288929645
-3.215711706212987
-3.25263853920299
-3.24648406703798
-3.301874316522985
-3.338801149512988
-3.3141832608529764
-3.38803692683301
-3.800386561888053
-3.7757686732280415
-3.6957605350830534
-3.720378423743037
-10.865720607309088
-68.97009231708248
-38.751633986928105
-13.290582640319432
-22.65153480328577
-11.67811093308918
-6.969939726863494
-6.66837059077846
-6.957630782533504
-7.136110475318535
-6.8468502835634935
-7.2591999186185365
-11.25345235370412
-7.874647135118623
-7.4684519722285625
-6.889931588718507
-5.5728745454083075
-5.111289133033242
-5.080516772208249
-5.178988326848264
-5.4251672134482956
-5.683655044378314
-5.031280994888226
-5.000508634063233
-4.82818341344321
-4.969736273238212
-5.080516772208249
-5.09898018870325
-5.006663106228215
-4.797411052618189
-4.532768749523157
-4.335825640243124
-4.126573586633098
-4.028102031993082
-4.120419114468116
-4.249663029933126
-4.335825640243124
-4.225045141273115
-4.378906945398136
-3.898858116528071
-2.563337656722869
-4.0219475598280985
-4.194272780448122
-4.237354085603107
-4.360443528903135
-3.7449963124030474
-4.028102031993082
-4.452760611378142
-4.120419114468116
-3.972711782508076
-3.812695506218072
-3.7080694794130453
-4.255817502098136
-4.82818341344321
-4.083492281478085
-3.8865491721980785
-3.8311589227130733
-3.800386561888053
-3.7757686732280415
-3.7942320897230712
-3.825004450548064
-3.825004450548064
-3.806541034053064
-3.781923145393051
-3.658833702093051
-2.821825487652891
-2.0340530505327803
-1.9171180793977614
-1.8863457185727683
-1.9417359680577726
-2.0217441062027888
-2.077134355687793
-2.077134355687793
-2.04020752269779
-2.009435161872797
-2.04020752269779
-2.114061188677796
-2.1263701330077875
-2.150988021667799
-2.1694514381628007
-2.286386409297819
-2.4402482134228407
-2.4402482134228407
-2.55718318455786
-2.600264489712873
-2.655654739197877
-2.6925815721878803
-2.6925815721878803
-2.674118155692878
-2.674118155692878
-2.655654739197877
-2.286386409297819
-2.7171994608478913
-2.895679153632896
-2.6371913227028756
-2.7910531268278973
-2.754126293837894
-2.797207598992907
-2.797207598992907
-2.7848986546628876
-2.821825487652891
-2.778744182497905
-2.7910531268278973
-2.766435238167886
-2.8095165433228986
-2.8095165433228986
-2.7910531268278973
-2.680272627857888
-2.255614048472826
-3.0864677907479487
-3.0987767350779407
-2.8464433763129016
-2.821825487652891
-2.8279799598179
-2.8402889041478923
-2.8649067928079033
-2.877215737137895
-2.9141425701278982
-2.9202970422929075
-2.9264515144579173
-2.9572238752829105
-2.9264515144579173
-2.815671015487909
-2.9202970422929075
-2.9510694031179288
-2.9387604587879093
-2.9264515144579173
-2.944914930952919
-3.0126141247679152
-3.043386485592936
-3.0249230690979347
-2.981841763942921
-2.9879962361079313
-2.994150708272913
-3.0003051804379233
-2.981841763942921
-2.883370209302905
-3.0680043742529195
-3.037232013427927
-2.96953281961293
-2.9264515144579173
-2.9572238752829105
-2.944914930952919
-2.944914930952919
-2.9202970422929075
-2.944914930952919
-3.0987767350779407
-3.0618499020879373
-3.0249230690979347
-3.080313318582939
-2.895679153632896
-2.4894839907428636
-2.9510694031179288
-3.1233946237379517
-3.184939345387966
-3.277256427862973
-3.2280206505429785
-3.184939345387966
-3.1664759288929645
-3.1480125123979352
-3.154166984562973
-3.0003051804379233
-2.1632969659978185
-2.581801073217871
-3.1357035680679433
-3.800386561888053
-3.4434271763180146
-3.3326466773480057
-3.2711019556979917
-3.3326466773480057
-4.255817502098136
-4.225045141273115
-3.412654815492993
-3.2095572340479768
-3.092622262912931
-3.080313318582939
-3.1295490959029335
-3.2218661783779687
-3.258793011367972
-3.2218661783779687
-3.1480125123979352
-2.8402889041478923
-2.680272627857888
-2.649500267032867
-2.655654739197877
-2.729508405177883
-2.680272627857888
-2.618727906207874
-2.815671015487909
-2.8095165433228986
-2.6925815721878803
-2.747971821672884
-2.8525978484779113
-2.883370209302905
-2.895679153632896
-2.8033620711578893
-2.815671015487909
-2.8525978484779113
-2.901833625797906
-3.092622262912931
-2.981841763942921
-2.9879962361079313
-2.944914930952919
-3.049540957757918
-3.0680043742529195
-3.1357035680679433
-2.994150708272913
-2.723353933012873
-2.821825487652891
-3.037232013427927
-3.2095572340479768
-2.9387604587879093
-2.883370209302905
-2.901833625797906
-2.8895246814679143
-2.895679153632896
-2.858752320642893
-2.877215737137895
-2.9510694031179288
-2.9264515144579173
-2.883370209302905
-3.258793011367972
-3.2280206505429785
-2.944914930952919
-2.8649067928079033
-2.409475852597848
-2.8649067928079033
-3.264947483532982
-3.0003051804379233
-2.9141425701278982
-2.9141425701278982
-2.9510694031179288
-2.9264515144579173
-3.0126141247679152
-2.9572238752829105
-2.8095165433228986
-2.895679153632896
-2.9202970422929075
-2.907988097962916
-2.9572238752829105
-2.944914930952919
-2.9572238752829105
-3.2095572340479768
-3.308028788687994
-3.0618499020879373
-3.043386485592936
-3.043386485592936
-3.018768596932925
-3.0003051804379233
-3.0864677907479487
-3.289565372192993
-3.3203377330179857
-3.369573510338009
-3.178784873222984
-3.160321456727955
-3.2218661783779687
-3.2957198443579747
-3.406500343328012
-3.5665166196180156
-3.25263853920299
-3.3203377330179857
-3.664988174258033
-4.132728058798108
-4.397370361893138
-5.09898018870325
-5.252841992828272
-4.723557386638183
-4.458915083543152
-4.3173622237481215
-4.237354085603107
-4.17580936395312
-4.0896467536430965
-4.0465654484880815
-4.071183337148093
-4.0219475598280985
-4.015793087663089
-3.9419394216830828
-3.7080694794130453
-3.517280842298021
-3.837313394878056
-3.861931283538067
-4.126573586633098
-4.058874392818101
-3.461890592813016
-2.2186872154828228
-3.5665166196180156
-3.664988174258033
-3.6896060629180436
-4.674321609318188
-4.649703720658177
-3.874240227868059
-3.861931283538067
-4.28658986292313
-4.003484143333097
-3.726532895908047
-3.664988174258033
-3.6711426464230414
-3.6465247577630313
-3.609597924773028
-3.597288980443037
-3.5849800361130173
-3.658833702093051
-3.9480938938480934
-3.658833702093051
-3.5234353144630304
-3.449581648482997
-3.474199537143008
-3.517280842298021
-3.5234353144630304
-3.5234353144630304
-3.511126370133011
-3.4865084814730274
-3.474199537143008
-3.492662953638009
-3.461890592813016
-3.4988174258030194
-3.7449963124030474
-3.5726710917830253
-3.4865084814730274
-3.5665166196180156
-3.720378423743037
-3.658833702093051
-3.504971897968029
-3.461890592813016
-3.517280842298021
-3.517280842298021
-3.437272704153005
-3.4557361206480066
-3.4311182319879947
-3.437272704153005
-3.4188092876580036
-3.4188092876580036
-3.6280613412680296
-3.75730525673304
-3.264947483532982
-3.375727982502991
-3.4188092876580036
-3.437272704153005
-3.424963759823013
-3.400345871163002
-3.4188092876580036
-3.437272704153005
-3.4434271763180146
-3.412654815492993
-3.412654815492993
-3.4311182319879947
-3.369573510338009
-2.901833625797906
-3.3511100938430074
-3.788077617558061
-3.4988174258030194
-3.4311182319879947
-3.406500343328012
-3.412654815492993
-3.437272704153005
-3.5726710917830253
-3.806541034053064
-3.548053203123014
-3.38803692683301
-2.3848579639378364
-2.766435238167886
-3.080313318582939
-3.326492205182996
-3.5849800361130173
-3.437272704153005
-3.38803692683301
-3.640370285598049
-4.729711858803193
-4.009638615498079
-3.5726710917830253
-3.504971897968029
-3.504971897968029
-3.449581648482997
-3.412654815492993
-3.4803540093080176
-3.394191398997992
-3.301874316522985
-3.517280842298021
-3.4434271763180146
-3.400345871163002
-3.412654815492993
-3.38803692683301
-3.424963759823013
-3.4188092876580036
-3.474199537143008
-3.535744258793022
-3.4311182319879947
-3.412654815492993
-3.38803692683301
-3.344955621677997
-3.3203377330179857
-3.412654815492993
-3.7696142010630598
-3.5726710917830253
-3.394191398997992
-3.338801149512988
-3.3326466773480057
-3.338801149512988
-3.3141832608529764
-3.363419038172999
-3.369573510338009
-3.3511100938430074
-3.3326466773480057
-3.2834109000279827
-3.1357035680679433
-2.674118155692878
-2.070979883522784
-2.8095165433228986
-3.1049312072429505
-3.3141832608529764
-3.381882454668
-3.2711019556979917
-3.25263853920299
-3.381882454668
-4.4835329722031645
-4.015793087663089
-3.406500343328012
-3.3141832608529764
-3.381882454668
-3.6957605350830534
-3.492662953638009
-3.375727982502991
-3.326492205182996
-3.338801149512988
-3.474199537143008
-3.6034434526080172
-3.357264566007989
-3.2834109000279827
-3.308028788687994
-3.363419038172999
-3.3203377330179857
-3.2341751227079882
-3.2095572340479768
-3.258793011367972
-3.308028788687994
-3.2957198443579747
-3.375727982502991
-3.363419038172999
-3.289565372192993
-3.25263853920299
-3.308028788687994
-3.301874316522985
-3.308028788687994
-3.3326466773480057
-3.3203377330179857
-3.25263853920299
-3.2095572340479768
-2.8033620711578893
-1.7017115536227536
-1.4432237226927047
-1.6340123598077294
-1.7817196917677414
-1.89865466290276
-1.9971262175427773
-2.077134355687793
-2.212532743317813
-2.3971669082678284
-2.4587116299178424
-2.8341344319829105
-2.55718318455786
-2.434093741257831
-2.1571424938328088
-2.3540856031128428
-2.6064189618778553
-2.587955545382853
-2.797207598992907
-2.649500267032867
-2.483329518577854
-2.434093741257831
-2.077134355687793
-2.723353933012873
-2.895679153632896
-2.581801073217871
-2.5694921288878514
-2.655654739197877
-3.043386485592936
-3.0249230690979347
-2.711044988682881
-2.6064189618778553
-2.5941100175478624
-2.655654739197877
-2.587955545382853
-2.5387197680628573
-2.5387197680628573
-2.544874240227868
-2.5941100175478624
-2.5941100175478624
-2.6064189618778553
-2.5387197680628573
-2.4894839907428636
-2.6433457948678853
-2.624882378372884
-2.1632969659978185
-2.612573434042864
-3.037232013427927
-2.858752320642893
-2.729508405177883
-2.6925815721878803
-2.735662877342893
-2.797207598992907
-2.754126293837894
-2.760280766002876
-2.723353933012873
-2.6987360443528896
-2.815671015487909
-2.7910531268278973
-2.8033620711578893
-2.772589710332896
-2.772589710332896
-2.8525978484779113
-2.8279799598179
-2.8525978484779113
-2.8464433763129016
-2.8649067928079033
-2.760280766002876
-2.747971821672884
-2.649500267032867
-2.5694921288878514
-2.6925815721878803
-2.624882378372884
-2.55102871239285
-2.563337656722869
-2.575646601052861
-2.618727906207874
-2.6618092113628857
-2.7418173495078744
-2.8464433763129016
-2.587955545382853
-1.7386383866127564
-2.4894839907428636
-2.704890516517872
-2.8649067928079033
-3.898858116528071
-3.381882454668
-2.7848986546628876
-2.6925815721878803
-2.6371913227028756
-2.600264489712873
-2.55102871239285
-2.5694921288878514
-2.581801073217871
-2.624882378372884
-2.68642710002287
-2.747971821672884
-2.8033620711578893
-2.8464433763129016
-3.055695429922928
-3.049540957757918
-2.8464433763129016
-2.8525978484779113
-2.8279799598179
-2.7910531268278973
-2.747971821672884
-2.655654739197877
-2.581801073217871
-2.526410823732866
-2.5141018794028467
-2.507947407237865
-2.501792935072855
-2.5387197680628573
-2.5387197680628573
-2.680272627857888
-2.760280766002876
-2.8279799598179
-2.8649067928079033
-2.9202970422929075
-2.901833625797906
-2.901833625797906
-2.895679153632896
-2.8279799598179
-2.8649067928079033
-2.8895246814679143
-2.7910531268278973
-2.6987360443528896
-2.7418173495078744
-2.8402889041478923
-2.747971821672884
-2.760280766002876
-2.8525978484779113
-3.1110856794079322
-3.6034434526080172
-3.8188499783830547
-3.511126370133011
-3.301874316522985
-3.3326466773480057
-3.301874316522985
-3.394191398997992
-3.640370285598049
-4.188118308283112
-4.920500495918218
-5.123598077363234
-4.114264642303106
-4.28658986292313
-4.514305333028156
-4.17580936395312
-4.0404109763231
-3.9850207268380964
-3.935784949518073
-3.9111670608580615
-3.849622339208075
-3.8188499783830547
-3.75730525673304
-3.6896060629180436
-3.6896060629180436
-3.677297118588053
-3.6896060629180436
-3.664988174258033
-3.5911345082780266
-3.597288980443037
-3.652679229928041
-3.615752396938038
-3.658833702093051
-3.7142239515780546
-3.6834515907530343
-3.6711426464230414
-3.597288980443037
-3.658833702093051
-3.825004450548064
-3.6711426464230414
-3.5911345082780266
-3.560362147453033
-3.529589786628012
-3.5726710917830253
-3.597288980443037
-3.560362147453033
-3.517280842298021
-3.554207675288024
-3.5418987309580316
-3.517280842298021
-3.492662953638009
-3.437272704153005
-3.5726710917830253
-3.5665166196180156
-3.5234353144630304
-3.4988174258030194
-3.504971897968029
-3.4988174258030194
-3.492662953638009
-3.468045064977998
-3.4803540093080176
-3.4865084814730274
-3.4803540093080176
-3.4434271763180146
-3.424963759823013
-3.461890592813016
-3.578825563948035
-3.5849800361130173
-3.5665166196180156
-3.548053203123014
-3.437272704153005
-2.471020574247862
-2.815671015487909
-3.308028788687994
-3.4434271763180146
-3.4865084814730274
-3.492662953638009
-3.4988174258030194
-3.781923145393051
-4.649703720658177
-3.4865084814730274
-3.461890592813016
-3.548053203123014
-3.5234353144630304
-3.5234353144630304
-3.5234353144630304
-3.5234353144630304
-3.461890592813016
-3.437272704153005
-3.4434271763180146
-3.449581648482997
-3.449581648482997
-3.38803692683301
-3.4803540093080176
-3.461890592813016
-2.212532743317813
-2.68642710002287
-3.7511507845680576
-3.511126370133011
-3.400345871163002
-3.4311182319879947
-3.412654815492993
-4.2311996134381245
-4.52661427735815
-3.6711426464230414
-3.449581648482997
-3.406500343328012
-3.406500343328012
-3.492662953638009
-3.424963759823013
-3.357264566007989
-3.412654815492993
-3.381882454668
-3.369573510338009
-3.381882454668
-3.394191398997992
-3.38803692683301
-3.375727982502991
-3.369573510338009
-3.406500343328012
-3.406500343328012
-3.326492205182996
-2.9141425701278982
-3.1295490959029335
-3.326492205182996
-3.381882454668
-3.437272704153005
-3.468045064977998
-3.412654815492993
-3.3511100938430074
-3.357264566007989
-3.394191398997992
-3.4188092876580036
-3.412654815492993
-3.406500343328012
-3.38803692683301
-3.855776811373057
-3.800386561888053
-3.492662953638009
-3.437272704153005
-3.461890592813016
-3.006459652602933
-3.424963759823013
-3.701915007248036
-3.4434271763180146
-3.400345871163002
-3.4188092876580036
-3.4188092876580036
-3.424963759823013
-3.369573510338009
-3.049540957757918
-3.043386485592936
-3.357264566007989
-3.375727982502991
-3.369573510338009
-3.400345871163002
-3.424963759823013
-3.308028788687994
-2.8402889041478923
-3.5726710917830253
-3.658833702093051
-3.406500343328012
-3.326492205182996
-3.277256427862973
-3.6280613412680296
-3.8927036443630603
-3.4803540093080176
-3.394191398997992
-3.424963759823013
-3.4557361206480066
-3.474199537143008
-3.4865084814730274
-2.8279799598179
-1.7140204979527456
-1.578622110322725
-1.6093944711477182
-1.5970855268177266
-1.5540042216627135
-1.3570611123826792
-1.3139798072276945
-1.818646524757745
-2.1817603824928202
-2.2371506319778245
-2.194069326822812
-2.083288827852803
-2.04020752269779
-2.0463619948628
-2.04020752269779
-2.1079067165127863
-2.391012436102846
-3.1110856794079322
-3.9296304773530633
-4.052719920653092
-2.04020752269779
-3.2834109000279827
-3.258793011367972
-3.5849800361130173
-4.54507769385315
-3.6896060629180436
-3.2957198443579747
-3.2280206505429785
-3.2403295948729705
-3.326492205182996
-3.2957198443579747
-3.258793011367972
-3.25263853920299
-3.4803540093080176
-4.077337809313103
-3.701915007248036
-3.4557361206480066
-3.4311182319879947
-3.424963759823013
-3.400345871163002
-3.38803692683301
-3.369573510338009
-3.344955621677997
-3.3511100938430074
-3.338801149512988
-3.344955621677997
-3.3326466773480057
-3.3511100938430074
-3.4434271763180146
-3.474199537143008
-3.400345871163002
-3.381882454668
-3.369573510338009
-3.381882454668
-3.406500343328012
-3.4188092876580036
-3.424963759823013
-3.424963759823013
-3.406500343328012
-3.2711019556979917
-3.1295490959029335
-3.1664759288929645
-3.2341751227079882
-3.3326466773480057
-3.338801149512988
-3.381882454668
-3.24648406703798
-3.191093817552976
-3.258793011367972
-3.25263853920299
-3.2711019556979917
-3.2341751227079882
-3.2280206505429785
-3.2095572340479768
-3.2280206505429785
-3.264947483532982
-3.301874316522985
-3.301874316522985
-3.308028788687994
-3.25263853920299
-3.178784873222984
-3.2403295948729705
-3.2280206505429785
-2.778744182497905
-3.3203377330179857
-3.6896060629180436
-3.406500343328012
-3.38803692683301
-3.38803692683301
-3.406500343328012
-3.468045064977998
-3.492662953638009
-3.4557361206480066
-3.4188092876580036
-3.3511100938430074
-3.369573510338009
-3.3511100938430074
-3.308028788687994
-3.2834109000279827
-3.264947483532982
-3.258793011367972
-3.25263853920299
-3.301874316522985
-3.2957198443579747
-2.815671015487909
-2.815671015487909
-3.1972482897179852
-3.2834109000279827
-3.2711019556979917
-3.258793011367972
-3.2403295948729705
-3.24648406703798
-3.080313318582939
-2.2925408814628288
-1.4186058340326935
-1.4124513618677115
-1.5970855268177266
-1.7509473309427481
-2.120215660842805
-2.3663945474428347
-2.1079067165127863
-2.1017522443478045
-2.150988021667799
-2.1817603824928202
-2.224841687647805
-2.2679229928028177
-2.2802319371328093
-2.2925408814628288
-2.3417766587828237
-2.3848579639378364
-2.3848579639378364
-2.372549019607845
-2.403321380432838
-2.680272627857888
-2.5141018794028467
-2.4587116299178424
-2.4587116299178424
-2.477175046412844
-2.446402685587851
-2.4648661020828517
-2.4587116299178424
-2.150988021667799
-1.3078253350626845
-2.0217441062027888
-2.335622186617841
-2.446402685587851
-2.3971669082678284
-2.3540856031128428
-2.4587116299178424
-3.1295490959029335
-3.781923145393051
-2.871061264972913
-2.618727906207874
-2.587955545382853
-2.587955545382853
-2.587955545382853
-2.55718318455786
-2.5694921288878514
-2.55102871239285
-2.526410823732866
-2.5941100175478624
-2.8033620711578893
-2.6925815721878803
-2.612573434042864
-2.5941100175478624
-2.6064189618778553
-2.587955545382853
-2.587955545382853
-2.618727906207874
-2.612573434042864
-2.5941100175478624
-2.5941100175478624
-2.6064189618778553
-2.5941100175478624
-2.5941100175478624
-2.6371913227028756
-2.667963683527869
-2.6371913227028756
-2.631036850537866
-2.674118155692878
-2.68642710002287
-2.6925815721878803
-2.704890516517872
-2.711044988682881
-2.8033620711578893
-2.858752320642893
-2.871061264972913
-2.8895246814679143
-2.8895246814679143
-2.483329518577854
-2.667963683527869
-2.8649067928079033
-2.8649067928079033
-2.858752320642893
-2.8895246814679143
-2.981841763942921
-1.892500190737778
-3.0987767350779407
-3.874240227868059
-3.1480125123979352
-3.0310775412629165
-2.932605986622927
-2.821825487652891
-3.1110856794079322
-2.9202970422929075
-2.1817603824928202
-2.618727906207874
-3.0618499020879373
-2.655654739197877
-2.624882378372884
-2.600264489712873
-2.5941100175478624
-2.5941100175478624
-2.618727906207874
-2.655654739197877
-2.655654739197877
-2.618727906207874
-2.624882378372884
-2.7418173495078744
-2.704890516517872
-2.7171994608478913
-2.68642710002287
-2.7171994608478913
-2.747971821672884
-2.754126293837894
-2.7910531268278973
-2.766435238167886
-2.772589710332896
-2.760280766002876
-2.754126293837894
-2.747971821672884
-2.680272627857888
-2.8464433763129016
-2.7910531268278973
-2.747971821672884
-2.674118155692878
-1.6955570814577436
-2.0955977721827947
-2.4587116299178424
-2.6618092113628857
-2.723353933012873
-2.723353933012873
-2.7418173495078744
-3.018768596932925
-4.028102031993082
-3.25263853920299
-3.0249230690979347
-2.944914930952919
-2.8895246814679143
-2.858752320642893
-2.8402889041478923
-2.907988097962916
-2.8464433763129016
-2.8095165433228986
-2.871061264972913
-2.895679153632896
-2.871061264972913
-2.8341344319829105
-2.8525978484779113
-2.729508405177883
-2.680272627857888
-2.8341344319829105
-2.8649067928079033
-2.55102871239285
-1.6955570814577436
-2.360240075277825
-2.8033620711578893
-3.6896060629180436
-4.101955697973114
-3.191093817552976
-2.9572238752829105
-2.895679153632896
-2.871061264972913
-2.8649067928079033
-2.9264515144579173
-2.9264515144579173
-2.907988097962916
-2.883370209302905
-2.901833625797906
-2.901833625797906
-2.883370209302905
-2.871061264972913
-2.871061264972913
-2.932605986622927
-2.9264515144579173
-2.8649067928079033
-2.815671015487909
-2.883370209302905
-3.172630401057975
-2.994150708272913
-2.9264515144579173
-2.8525978484779113
-2.8464433763129016
-2.871061264972913
-2.8279799598179
-2.8033620711578893
-2.821825487652891
-2.821825487652891
-2.8525978484779113
-2.8402889041478923
-2.815671015487909
-2.766435238167886
-2.815671015487909
-2.8895246814679143
-2.883370209302905
-2.8649067928079033
-2.907988097962916
-2.8525978484779113
-2.883370209302905
-3.0310775412629165
-2.9264515144579173
-2.907988097962916
-2.9141425701278982
-2.9202970422929075
-2.9510694031179288
-2.8464433763129016
-2.858752320642893
-2.9572238752829105
-2.9572238752829105
-2.981841763942921
-3.0249230690979347
-2.9510694031179288
-3.0126141247679152
-2.975687291777912
-2.9572238752829105
-3.055695429922928
-3.080313318582939
-2.649500267032867
-3.154166984562973
-3.437272704153005
-2.434093741257831
-2.6433457948678853
-2.96953281961293
-3.0680043742529195
-3.117240151572942
-3.092622262912931
-3.1049312072429505
-3.1295490959029335
-3.0680043742529195
-3.160321456727955
-3.191093817552976
-3.2403295948729705
-3.381882454668
-3.38803692683301
-4.015793087663089
-4.0958012258081045
-3.548053203123014
-3.400345871163002
-3.394191398997992
-3.375727982502991
-3.338801149512988
-3.3511100938430074
-3.3203377330179857
-3.25263853920299
-3.1972482897179852
-3.2280206505429785
-3.1480125123979352
-3.0987767350779407
-3.0249230690979347
-3.1972482897179852
-3.160321456727955
-3.154166984562973
-3.2034027618829675
-3.2280206505429785
-3.2403295948729705
-3.215711706212987
-3.1972482897179852
-3.154166984562973
-3.154166984562973
-2.704890516517872
-3.1110856794079322
-3.381882454668
-3.0864677907479487
-3.2341751227079882
-3.1972482897179852
-3.141858040232953
-3.184939345387966
-3.357264566007989
-3.504971897968029
-3.4803540093080176
-3.363419038172999
-3.258793011367972
-3.289565372192993
-3.2834109000279827
-3.2280206505429785
-2.8895246814679143
-1.6647847206327224
-3.117240151572942
-3.172630401057975
-3.1480125123979352
-3.037232013427927
-3.0987767350779407
-3.2280206505429785
-4.132728058798108
-4.138882530963118
-3.3326466773480057
-3.1972482897179852
-3.1480125123979352
-3.074158846417929
-3.074158846417929
-2.9633783474479203
-2.9202970422929075
-3.092622262912931
-3.178784873222984
-3.357264566007989
-3.2834109000279827
-3.2280206505429785
-3.2957198443579747
-3.2711019556979917
-3.3326466773480057
-3.3511100938430074
-3.363419038172999
-3.38803692683301
-3.4803540093080176
-3.554207675288024
-3.615752396938038
-3.381882454668
-3.215711706212987
-3.2711019556979917
-3.3511100938430074
-3.357264566007989
-3.38803692683301
-3.504971897968029
-3.5418987309580316
-3.406500343328012
-3.6896060629180436
-3.7634597288980496
-3.6957605350830534
-3.529589786628012
-2.8525978484779113
-3.2280206505429785
-3.4557361206480066
-3.437272704153005
-3.437272704153005
-3.38803692683301
-3.517280842298021
-3.548053203123014
-3.615752396938038
-3.597288980443037
-3.5234353144630304
-3.338801149512988
-3.1664759288929645
-3.074158846417929
-3.615752396938038
-3.424963759823013
-3.2957198443579747
-3.308028788687994
-3.2218661783779687
-3.2218661783779687
-2.8895246814679143
-3.38803692683301
-3.7080694794130453
-3.400345871163002
-3.375727982502991
-3.400345871163002
-3.449581648482997
-3.3326466773480057
-3.3511100938430074
-3.449581648482997
-3.277256427862973
-3.1972482897179852
-3.3326466773480057
-3.6280613412680296
-3.5665166196180156
-3.855776811373057
-4.058874392818101
-3.8311589227130733
-3.7757686732280415
-3.6834515907530343
-3.658833702093051
-3.597288980443037
-3.560362147453033
-3.6896060629180436
-3.6957605350830534
-3.726532895908047
-3.677297118588053
-3.615752396938038
-3.6219068691030203
-3.597288980443037
-3.6711426464230414
-3.578825563948035
-3.5418987309580316
-3.554207675288024
-3.5726710917830253
-3.548053203123014
-3.424963759823013
-3.449581648482997
-3.529589786628012
-3.511126370133011
-3.5849800361130173
-3.5849800361130173
-3.4557361206480066
-3.449581648482997
-3.474199537143008
-3.492662953638009
-3.4865084814730274
-3.4803540093080176
-3.4988174258030194
-3.4803540093080176
-3.6280613412680296
-3.7696142010630598
-3.5911345082780266
-3.517280842298021
-3.511126370133011
-3.492662953638009
-3.4988174258030194
-3.504971897968029
-3.172630401057975
-2.261768520637808
-2.655654739197877
-2.052516467027782
-2.655654739197877
-2.680272627857888
-2.089443300017785
-2.1263701330077875
-2.2309961598128147
-2.2679229928028177
-2.335622186617841
-2.3663945474428347
-2.347931130947833
-2.347931130947833
-2.3233132422878215
-2.3233132422878215
-2.329467714452832
-2.347931130947833
-2.3848579639378364
-2.372549019607845
-2.347931130947833
-2.612573434042864
-2.618727906207874
-2.575646601052861
-2.5694921288878514
-2.581801073217871
-2.587955545382853
-2.612573434042864
-2.575646601052861
-2.563337656722869
-2.587955545382853
-2.563337656722869
-2.526410823732866
-2.520256351567857
-2.495638462907845
-2.507947407237865
-2.631036850537866
-2.624882378372884
-2.649500267032867
-2.68642710002287
-2.68642710002287
-2.6433457948678853
-2.624882378372884
-2.175605910327811
-1.2278171969176688
-1.8248009969227534
-2.907988097962916
-2.711044988682881
-2.624882378372884
-2.723353933012873
-2.766435238167886
-3.615752396938038
-3.8865491721980785
-3.049540957757918
-2.877215737137895
-2.8095165433228986
-2.7848986546628876
-2.7910531268278973
-2.754126293837894
-2.723353933012873
-2.7418173495078744
-2.723353933012873
-2.729508405177883
-2.680272627857888
-2.8464433763129016
-2.821825487652891
-2.815671015487909
-2.8033620711578893
-2.778744182497905
-2.7848986546628876
-2.797207598992907
-2.8095165433228986
-2.8279799598179
-2.9387604587879093
-2.772589710332896
-2.754126293837894
-2.766435238167886
-2.68642710002287
-2.877215737137895
-2.8402889041478923
-2.8341344319829105
-2.871061264972913
-2.8464433763129016
-2.8095165433228986
-2.8341344319829105
-2.821825487652891
-2.8341344319829105
-2.8033620711578893
-2.8341344319829105
-2.821825487652891
-2.8464433763129016
-2.7418173495078744
-2.772589710332896
-2.766435238167886
-2.815671015487909
-2.8341344319829105
-2.8279799598179
-2.8464433763129016
-2.815671015487909
-2.821825487652891
-2.8279799598179
-2.858752320642893
-2.8525978484779113
-2.858752320642893
-2.815671015487909
-2.8649067928079033
-3.0126141247679152
-2.391012436102846
-3.0680043742529195
-3.1972482897179852
-2.944914930952919
-2.9141425701278982
-2.877215737137895
-2.8402889041478923
-2.8525978484779113
-2.8464433763129016
-2.821825487652891
-2.8033620711578893
-2.797207598992907
-2.8279799598179
-3.0126141247679152
-2.932605986622927
-2.587955545382853
-1.7386383866127564
-2.3417766587828237
-2.6618092113628857
-2.772589710332896
-2.778744182497905
-2.7910531268278973
-2.994150708272913
-4.101955697973114
-3.504971897968029
-2.944914930952919
-2.655654739197877
-2.483329518577854
-2.723353933012873
-2.766435238167886
-2.7848986546628876
-2.815671015487909
-2.8464433763129016
-2.8341344319829105
-2.8525978484779113
-2.871061264972913
-2.9264515144579173
-2.9264515144579173
-3.0003051804379233
-2.9633783474479203
-2.8279799598179
-3.006459652602933
-2.96953281961293
-2.8895246814679143
-2.901833625797906
-2.895679153632896
-2.858752320642893
-2.8649067928079033
-2.8402889041478923
-2.858752320642893
-2.877215737137895
-2.883370209302905
-2.871061264972913
-2.8649067928079033
-2.735662877342893
-2.1017522443478045
-2.5387197680628573
-2.7848986546628876
-2.8341344319829105
-2.821825487652891
-2.8279799598179
-2.8341344319829105
-2.858752320642893
-2.907988097962916
-2.9202970422929075
-2.9202970422929075
-2.932605986622927
-2.932605986622927
-3.0864677907479487
-3.8434678670430653
-3.4557361206480066
-3.154166984562973
-3.074158846417929
-3.117240151572942
-3.141858040232953
-3.191093817552976
-3.3141832608529764
-3.4803540093080176
-3.461890592813016
-3.0864677907479487
-3.634215813433039
-3.7696142010630598
-3.461890592813016
-3.9604028381780845
-4.877419190763205
-3.812695506218072
-3.0864677907479487
-3.141858040232953
-3.363419038172999
-3.4311182319879947
-3.400345871163002
-3.308028788687994
-3.357264566007989
-3.868085755703077
-4.52661427735815
-4.69278502581319
-4.391215889728128
-3.812695506218072
-3.812695506218072
-3.9665573103430942
-3.9542483660130747
-3.9604028381780845
-3.9542483660130747
-3.9111670608580615
-3.874240227868059
-3.837313394878056
-3.8434678670430653
-3.781923145393051
-3.7511507845680576
-3.726532895908047
-3.6834515907530343
-4.015793087663089
-4.114264642303106
-3.800386561888053
-3.677297118588053
-3.6711426464230414
-3.6957605350830534
-3.726532895908047
-3.7142239515780546
-3.6896060629180436
-3.7080694794130453
-3.6834515907530343
-3.658833702093051
-3.6711426464230414
-3.6219068691030203
-3.554207675288024
-3.652679229928041
-3.6280613412680296
-3.615752396938038
-3.560362147453033
-3.517280842298021
-3.5418987309580316
-3.5665166196180156
-3.5234353144630304
-3.511126370133011
-3.529589786628012
-3.535744258793022
-3.2095572340479768
-2.3110042979578305
-2.9387604587879093
-3.597288980443037
-4.80971999694821
-4.126573586633098
-3.6219068691030203
-3.5418987309580316
-3.5234353144630304
-3.511126370133011
-3.504971897968029
-3.4988174258030194
-3.468045064977998
-3.4865084814730274
-3.4557361206480066
-3.4311182319879947
-3.2834109000279827
-2.907988097962916
-3.3141832608529764
-3.018768596932925
-3.4557361206480066
-3.7449963124030474
-3.492662953638009
-3.461890592813016
-3.4434271763180146
-3.461890592813016
-3.461890592813016
-3.449581648482997
-3.4803540093080176
-3.449581648482997
-3.4188092876580036
-3.184939345387966
-3.363419038172999
-3.4434271763180146
-3.4311182319879947
-3.4311182319879947
-3.406500343328012
-3.4188092876580036
-3.4188092876580036
-3.381882454668
-3.369573510338009
-3.375727982502991
-3.412654815492993
-3.400345871163002
-3.5234353144630304
-4.237354085603107
-3.800386561888053
-3.5234353144630304
-3.461890592813016
-3.461890592813016
-3.4311182319879947
-3.406500343328012
-3.412654815492993
-3.424963759823013
-3.394191398997992
-3.38803692683301
-3.394191398997992
-3.369573510338009
-3.357264566007989
-3.640370285598049
-3.6219068691030203
-3.424963759823013
-3.363419038172999
-3.277256427862973
-2.8402889041478923
-3.412654815492993
-3.7757686732280415
-3.474199537143008
-3.474199537143008
-3.437272704153005
-3.4434271763180146
-3.4434271763180146
-3.381882454668
-3.1295490959029335
-3.449581648482997
-3.437272704153005
-3.400345871163002
-3.4188092876580036
-3.406500343328012
-3.394191398997992
-3.381882454668
-3.400345871163002
-3.406500343328012
-3.357264566007989
-3.400345871163002
-3.4988174258030194
-3.338801149512988
-3.394191398997992
-3.492662953638009
-3.449581648482997
-3.461890592813016
-3.381882454668
-3.381882454668
-3.369573510338009
-3.344955621677997
-3.344955621677997
-3.308028788687994
-3.301874316522985
-3.326492205182996
-3.375727982502991
-3.3326466773480057
-3.2280206505429785
-3.4803540093080176
-3.615752396938038
-3.8803947000330687
-3.535744258793022
-3.437272704153005
-3.424963759823013
-3.400345871163002
-3.191093817552976
-2.1448335495027893
-1.473996083517698
-1.5601586938277234
-1.6709391927977324
-0.8216220340276081
-1.2401261412476885
-1.7632562752727399
-2.083288827852803
-2.298695353627811
-2.2433051041428067
-2.212532743317813
-2.526410823732866
-3.264947483532982
-1.3816790010426905
-2.3417766587828237
-2.403321380432838
-2.3848579639378364
-2.372549019607845
-2.347931130947833
-2.772589710332896
-4.114264642303106
-3.0680043742529195
-2.5941100175478624
-2.5141018794028467
-2.4894839907428636
-2.477175046412844
-2.5141018794028467
-2.5387197680628573
-2.544874240227868
-2.8341344319829105
-2.8402889041478923
-2.631036850537866
-2.600264489712873
-2.391012436102846
-2.1079067165127863
-2.471020574247862
-2.6371913227028756
-2.6925815721878803
-2.735662877342893
-2.674118155692878
-2.674118155692878
-2.6618092113628857
-2.667963683527869
-2.631036850537866
-2.563337656722869
-2.6371913227028756
-2.8095165433228986
-2.6987360443528896
-2.944914930952919
-2.7848986546628876
-2.680272627857888
-2.6987360443528896
-2.7171994608478913
-2.680272627857888
-2.68642710002287
-2.871061264972913
-2.883370209302905
-2.7910531268278973
-2.772589710332896
-2.754126293837894
-2.747971821672884
-2.704890516517872
-2.760280766002876
-2.8033620711578893
-2.932605986622927
-2.8649067928079033
-2.8095165433228986
-2.766435238167886
-2.7418173495078744
-2.7418173495078744
-2.821825487652891
-2.8033620711578893
-2.772589710332896
-2.766435238167886
-2.8341344319829105
-2.883370209302905
-2.3110042979578305
-2.8649067928079033
-3.172630401057975
-2.883370209302905
-2.901833625797906
-2.895679153632896
-2.9633783474479203
-2.9264515144579173
-2.8649067928079033
-2.8649067928079033
-2.877215737137895
-2.871061264972913
-2.901833625797906
-2.8464433763129016
-2.8033620711578893
-2.9879962361079313
-2.9264515144579173
-2.9387604587879093
-3.055695429922928
-3.2034027618829675
-3.160321456727955
-3.357264566007989
-4.982045217568231
-6.379110399023419
-5.265150937158264
-4.8220289412782
-4.674321609318188
-4.501996388698165
-4.181963836118102
-4.1573459474581185
-4.2435085577681155
-4.255817502098136
