-2.8341344319829105
-2.409475852597848
-2.895679153632896
-3.0310775412629165
-3.074158846417929
-3.074158846417929
-3.1049312072429505
-3.0864677907479487
-3.092622262912931
-3.1357035680679433
-3.117240151572942
-3.0987767350779407
-3.117240151572942
-3.117240151572942
-3.2957198443579747
-3.7696142010630598
-3.394191398997992
-3.215711706212987
-3.1357035680679433
-3.1295490959029335
-3.141858040232953
-3.117240151572942
-3.1233946237379517
-3.141858040232953
-2.8341344319829105
-1.9848172732127856
-2.6433457948678853
-2.9510694031179288
-3.0249230690979347
-3.1295490959029335
-3.529589786628012
-4.42198825055315
-3.5849800361130173
-3.2403295948729705
-3.172630401057975
-3.1295490959029335
-3.1295490959029335
-3.1110856794079322
-3.0864677907479487
-3.1357035680679433
-3.1233946237379517
-3.1233946237379517
-3.0987767350779407
-3.1233946237379517
-3.2034027618829675
-3.117240151572942
-3.1049312072429505
-3.160321456727955
-3.1233946237379517
-3.1357035680679433
-3.1480125123979352
-3.1295490959029335
-3.1357035680679433
-3.1357035680679433
-3.1295490959029335
-3.1233946237379517
-3.1110856794079322
-3.092622262912931
-3.2034027618829675
-3.1664759288929645
-3.141858040232953
-3.117240151572942
-3.0864677907479487
-3.074158846417929
-3.0864677907479487
-3.092622262912931
-3.092622262912931
-3.0864677907479487
-3.0987767350779407
-3.0987767350779407
-3.037232013427927
-3.0680043742529195
-3.0987767350779407
-3.0618499020879373
-3.0310775412629165
-3.006459652602933
-2.9879962361079313
-3.0003051804379233
-2.981841763942921
-2.975687291777912
-2.994150708272913
-2.96953281961293
-2.9572238752829105
-2.9633783474479203
-2.895679153632896
-2.6925815721878803
-2.6433457948678853
-2.8464433763129016
-2.4648661020828517
-2.9879962361079313
-3.3326466773480057
-3.0310775412629165
-2.9879962361079313
-3.006459652602933
-2.9879962361079313
-2.9879962361079313
-2.9879962361079313
-3.006459652602933
-2.9387604587879093
-3.1049312072429505
-3.357264566007989
-3.049540957757918
-2.932605986622927
-2.9572238752829105
-2.944914930952919
-2.9264515144579173
-2.907988097962916
-2.9202970422929075
-2.9202970422929075
-2.8895246814679143
-2.8895246814679143
-2.883370209302905
-2.8402889041478923
-2.8525978484779113
-2.901833625797906
-2.9202970422929075
-2.9387604587879093
-2.9202970422929075
-2.96953281961293
-2.9633783474479203
-2.9510694031179288
-2.96953281961293
-2.981841763942921
-2.981841763942921
-2.96953281961293
-2.9572238752829105
-2.944914930952919
-2.9510694031179288
-3.0003051804379233
-3.018768596932925
-2.96953281961293
-2.9387604587879093
-2.944914930952919
-2.9141425701278982
-2.932605986622927
-2.9572238752829105
-2.975687291777912
-3.0003051804379233
-2.994150708272913
-3.0249230690979347
-3.0126141247679152
-2.975687291777912
-3.055695429922928
-3.055695429922928
-3.043386485592936
-3.018768596932925
-2.7171994608478913
-1.861727829912757
-2.895679153632896
-4.132728058798108
-3.400345871163002
-3.0680043742529195
-3.0003051804379233
-2.9879962361079313
-2.96953281961293
-2.9387604587879093
-2.9202970422929075
-3.1110856794079322
-3.0618499020879373
-3.043386485592936
-3.0680043742529195
-3.1049312072429505
-3.0987767350779407
-3.117240151572942
-3.141858040232953
-3.172630401057975
-3.184939345387966
-3.191093817552976
-3.172630401057975
-3.1295490959029335
-2.575646601052861
-2.711044988682881
-2.2433051041428067
-1.615548943312728
-2.772589710332896
-3.4803540093080176
-3.2280206505429785
-3.191093817552976
-3.2095572340479768
-3.3511100938430074
-4.434297194883141
-4.212736196943122
-3.5911345082780266
-3.4557361206480066
-3.9111670608580615
-3.5418987309580316
-3.191093817552976
-3.215711706212987
-3.0003051804379233
-2.8895246814679143
-2.797207598992907
-2.600264489712873
-2.735662877342893
-3.5911345082780266
-3.597288980443037
-3.634215813433039
-3.548053203123014
-3.412654815492993
-3.338801149512988
-3.3326466773480057
-3.301874316522985
-3.0249230690979347
-1.9478904402227823
-1.7755652196027594
-1.91096360723278
-1.990971745377768
-2.224841687647805
-2.403321380432838
-2.5387197680628573
-2.631036850537866
-2.704890516517872
-2.760280766002876
-2.815671015487909
-3.049540957757918
-2.907988097962916
-3.0618499020879373
-3.055695429922928
-2.975687291777912
-2.9572238752829105
-2.9510694031179288
-2.9510694031179288
-3.2095572340479768
-3.6219068691030203
-3.258793011367972
-3.0618499020879373
-3.043386485592936
-3.0003051804379233
-3.1480125123979352
-3.38803692683301
-3.535744258793022
-3.375727982502991
-3.424963759823013
-3.437272704153005
-3.4188092876580036
-3.437272704153005
-3.3326466773480057
-2.981841763942921
-3.720378423743037
-3.5726710917830253
-3.38803692683301
-3.3141832608529764
-3.3203377330179857
-3.3326466773480057
-3.2834109000279827
-3.24648406703798
-3.2341751227079882
-3.264947483532982
-3.2403295948729705
-3.215711706212987
-3.191093817552976
-3.1664759288929645
-3.160321456727955
-3.1480125123979352
-3.1233946237379517
-3.0987767350779407
-3.172630401057975
-3.1972482897179852
-3.160321456727955
-3.160321456727955
-3.1357035680679433
-3.1357035680679433
-3.154166984562973
-3.1480125123979352
-3.160321456727955
-3.172630401057975
-3.172630401057975
-1.9971262175427773
-3.3203377330179857
-3.658833702093051
-1.7632562752727399
-3.043386485592936
-3.1480125123979352
-3.1664759288929645
-3.191093817552976
-3.8188499783830547
-4.4835329722031645
-3.5911345082780266
-3.3511100938430074
-3.264947483532982
-3.2403295948729705
-3.25263853920299
-3.25263853920299
-3.1972482897179852
-3.3511100938430074
-3.394191398997992
-3.277256427862973
-3.258793011367972
-3.2280206505429785
-3.2095572340479768
-3.2034027618829675
-3.141858040232953
-3.1295490959029335
-3.117240151572942
-3.117240151572942
-3.172630401057975
-3.178784873222984
-3.154166984562973
-3.080313318582939
-3.184939345387966
-3.2280206505429785
-3.277256427862973
-3.25263853920299
-3.2341751227079882
-3.2280206505429785
-3.2403295948729705
-3.24648406703798
-3.1972482897179852
-3.172630401057975
-3.141858040232953
-3.1233946237379517
-3.074158846417929
-3.055695429922928
-3.2218661783779687
-3.141858040232953
-3.1049312072429505
-3.1049312072429505
-3.0987767350779407
-3.1049312072429505
-3.141858040232953
-3.1295490959029335
-3.1110856794079322
-3.2403295948729705
-3.2034027618829675
-3.1357035680679433
-3.1295490959029335
-3.055695429922928
-3.191093817552976
-3.215711706212987
-3.215711706212987
-3.2034027618829675
-3.2095572340479768
-3.154166984562973
-2.674118155692878
-3.191093817552976
-3.5234353144630304
-3.2280206505429785
-3.1664759288929645
-3.1480125123979352
-3.1049312072429505
-2.9879962361079313
-2.883370209302905
-3.0987767350779407
-3.160321456727955
-3.1664759288929645
-3.1972482897179852
-3.184939345387966
-3.191093817552976
-3.191093817552976
-3.160321456727955
-3.1110856794079322
-3.1049312072429505
-3.141858040232953
-3.1480125123979352
-3.178784873222984
-3.4865084814730274
-3.3203377330179857
-3.1972482897179852
-3.191093817552976
-3.1972482897179852
-3.172630401057975
-3.191093817552976
-3.154166984562973
-3.1480125123979352
-3.1295490959029335
-3.0987767350779407
-3.092622262912931
-3.055695429922928
-3.018768596932925
-3.055695429922928
-3.1233946237379517
-3.055695429922928
-3.0680043742529195
-3.0864677907479487
-3.074158846417929
-3.092622262912931
-3.1049312072429505
-3.1480125123979352
-3.1233946237379517
-3.080313318582939
-3.0864677907479487
-3.092622262912931
-3.0987767350779407
-3.1664759288929645
-3.1664759288929645
-3.154166984562973
-3.1295490959029335
-3.141858040232953
-3.0864677907479487
-2.4279392690928487
-1.2401261412476885
-0.8031586175326066
-0.1261666793825056
-1.578622110322725
-2.563337656722869
-1.855573357747775
-1.6463213041377216
-1.677093664962742
-1.8740367742427766
-1.8371099412527454
-1.8432644134177558
-1.89865466290276
-1.9294270237277809
-1.9601993845527748
-1.9971262175427773
-2.0340530505327803
-2.064825411357801
-2.083288827852803
-2.120215660842805
-2.120215660842805
-2.0586709391927913
-2.0586709391927913
-2.194069326822812
-2.1694514381628007
-2.187914854657802
-2.212532743317813
-2.224841687647805
-2.200223798987821
-2.2679229928028177
-2.2740774649678275
-2.2740774649678275
-2.304849825792821
-2.2925408814628288
-2.2925408814628288
-2.2679229928028177
-2.2186872154828228
-2.3848579639378364
-2.3540856031128428
-2.347931130947833
-2.3171587701228398
-2.3233132422878215
-2.347931130947833
-2.378703491772827
-2.372549019607845
-2.372549019607845
-2.3663945474428347
-2.391012436102846
-2.3971669082678284
-2.378703491772827
-2.378703491772827
-2.618727906207874
-2.4402482134228407
-2.3971669082678284
-2.477175046412844
-2.4648661020828517
-2.4525571577528327
-2.4894839907428636
-2.483329518577854
-2.495638462907845
-2.477175046412844
-2.4402482134228407
-2.4402482134228407
-2.403321380432838
-2.372549019607845
-2.4587116299178424
-2.0463619948628
-2.495638462907845
-2.821825487652891
-2.526410823732866
-2.446402685587851
-2.471020574247862
-2.4525571577528327
-2.4217847969278394
-2.446402685587851
-2.471020574247862
-2.446402685587851
-2.4156303247628297
-2.372549019607845
-2.4648661020828517
-2.483329518577854
-2.4525571577528327
-2.4402482134228407
-2.434093741257831
-2.4648661020828517
-2.4648661020828517
-2.446402685587851
-2.4587116299178424
-2.434093741257831
-2.434093741257831
-2.4648661020828517
-2.403321380432838
-2.3663945474428347
-2.378703491772827
-2.391012436102846
-2.347931130947833
-2.378703491772827
-2.4648661020828517
-2.1263701330077875
-0.8339309783576276
-1.9786628010477763
-2.304849825792821
-2.347931130947833
-2.335622186617841
-2.360240075277825
-2.409475852597848
-2.766435238167886
-3.7696142010630598
-3.037232013427927
-2.6618092113628857
-2.6064189618778553
-2.612573434042864
-2.618727906207874
-2.5941100175478624
-2.6064189618778553
-2.68642710002287
-2.772589710332896
-2.9141425701278982
-3.1480125123979352
-3.4803540093080176
-3.406500343328012
-2.612573434042864
-2.747971821672884
-2.96953281961293
-2.563337656722869
-1.4616871391877062
-3.043386485592936
-3.2280206505429785
-2.944914930952919
-3.0249230690979347
-4.292744335088139
-4.797411052618189
-4.132728058798108
-3.8865491721980785
-3.7757686732280415
-4.2435085577681155
-4.138882530963118
-3.6834515907530343
-3.5911345082780266
-3.6465247577630313
-3.8311589227130733
-3.738841840238039
-3.738841840238039
-3.738841840238039
-3.6834515907530343
-3.720378423743037
-3.6896060629180436
-3.6280613412680296
-3.5911345082780266
-3.369573510338009
-3.4988174258030194
-3.5726710917830253
-3.5418987309580316
-3.5665166196180156
-3.560362147453033
-3.535744258793022
-3.560362147453033
-3.511126370133011
-3.517280842298021
-3.4865084814730274
-3.4865084814730274
-3.468045064977998
-3.381882454668
-3.160321456727955
-3.037232013427927
-3.2834109000279827
-3.3511100938430074
-3.375727982502991
-3.375727982502991
-3.369573510338009
-3.381882454668
-3.394191398997992
-3.400345871163002
-3.394191398997992
-3.381882454668
-3.381882454668
-3.3511100938430074
-3.554207675288024
-3.8803947000330687
-3.529589786628012
-3.394191398997992
-3.3511100938430074
-3.344955621677997
-2.9264515144579173
3.591134508277999
2.3971669082678284
-1.9232725515627715
-2.68642710002287
-2.477175046412844
-3.049540957757918
-3.38803692683301
-3.1049312072429505
-3.037232013427927
-3.1357035680679433
-3.172630401057975
-3.172630401057975
-3.160321456727955
-3.172630401057975
-3.1664759288929645
-3.1480125123979352
-3.2218661783779687
-3.2095572340479768
-3.1972482897179852
-3.2403295948729705
-3.24648406703798
-3.277256427862973
-3.511126370133011
-3.4188092876580036
-3.3141832608529764
-3.264947483532982
-3.2957198443579747
-3.2711019556979917
-3.25263853920299
-3.2957198443579747
-3.308028788687994
-3.3203377330179857
-3.363419038172999
-3.394191398997992
-3.38803692683301
-3.289565372192993
-3.2403295948729705
-3.3326466773480057
-3.2957198443579747
-3.258793011367972
-3.308028788687994
-3.2280206505429785
-3.184939345387966
-3.2034027618829675
-3.191093817552976
-3.184939345387966
-3.184939345387966
-3.178784873222984
-3.2095572340479768
-3.184939345387966
-3.258793011367972
-3.375727982502991
-3.264947483532982
-3.2280206505429785
-3.2341751227079882
-3.2341751227079882
-3.2341751227079882
-3.215711706212987
-3.25263853920299
-3.2711019556979917
-3.2711019556979917
-3.2834109000279827
-2.96953281961293
-2.114061188677796
-3.8188499783830547
-4.237354085603107
-3.394191398997992
-3.2095572340479768
-3.1664759288929645
-3.1480125123979352
-3.184939345387966
-3.2034027618829675
-3.172630401057975
-3.178784873222984
-3.191093817552976
-3.2034027618829675
-3.2280206505429785
-3.160321456727955
-3.0003051804379233
-3.184939345387966
-3.2280206505429785
-3.154166984562973
-3.141858040232953
-3.154166984562973
-3.191093817552976
-3.24648406703798
-3.25263853920299
-3.277256427862973
-3.25263853920299
-3.2218661783779687
-3.25263853920299
-3.2280206505429785
-3.117240151572942
-3.2957198443579747
-3.264947483532982
-3.24648406703798
-3.184939345387966
-3.1480125123979352
-3.1664759288929645
-3.160321456727955
-3.1357035680679433
-3.160321456727955
-3.1357035680679433
-3.0987767350779407
-3.172630401057975
-3.1049312072429505
-2.9879962361079313
-3.1049312072429505
-3.1664759288929645
-3.172630401057975
-3.172630401057975
-3.1972482897179852
-3.215711706212987
-3.2280206505429785
-3.24648406703798
-3.2341751227079882
-3.25263853920299
-3.25263853920299
-3.24648406703798
-3.184939345387966
-3.1295490959029335
-3.0680043742529195
-3.191093817552976
-3.2341751227079882
-3.25263853920299
-3.1972482897179852
-2.760280766002876
-3.1972482897179852
-3.554207675288024
-3.289565372192993
-3.2034027618829675
-3.191093817552976
-3.1664759288929645
-3.1972482897179852
-3.191093817552976
-3.141858040232953
-3.2095572340479768
-3.264947483532982
-3.2280206505429785
-3.178784873222984
-3.178784873222984
-3.1972482897179852
-3.191093817552976
-3.1972482897179852
-3.2034027618829675
-3.2218661783779687
-3.2280206505429785
-3.2034027618829675
-3.1972482897179852
-3.517280842298021
-3.381882454668
-3.2034027618829675
-3.160321456727955
-3.160321456727955
-3.1972482897179852
-3.2095572340479768
-3.172630401057975
-3.160321456727955
-3.215711706212987
-3.215711706212987
-3.215711706212987
-3.178784873222984
-3.1233946237379517
-3.117240151572942
-3.2403295948729705
-3.2341751227079882
-3.2095572340479768
-3.2341751227079882
-3.258793011367972
-3.3203377330179857
-3.344955621677997
-3.2957198443579747
-3.38803692683301
-3.4188092876580036
-3.406500343328012
-3.4188092876580036
-3.394191398997992
-3.394191398997992
-3.5234353144630304
-3.461890592813016
-3.4557361206480066
-3.4434271763180146
-3.437272704153005
-3.4434271763180146
-3.0987767350779407
-1.9478904402227823
-3.264947483532982
-3.357264566007989
-3.381882454668
-3.449581648482997
-4.434297194883141
-4.071183337148093
-3.5849800361130173
-3.38803692683301
-3.3326466773480057
-3.2957198443579747
-3.3203377330179857
-3.308028788687994
-3.2834109000279827
-3.301874316522985
-3.308028788687994
-3.2711019556979917
-3.264947483532982
-3.277256427862973
-3.2280206505429785
-3.1664759288929645
-3.2834109000279827
-3.264947483532982
-3.2034027618829675
-3.178784873222984
-3.172630401057975
-3.154166984562973
-3.141858040232953
-3.215711706212987
-3.1049312072429505
-2.5941100175478624
-1.39398794537271
-1.178581419597674
-1.3201342793926762
-1.4309147783627132
-1.689402609292734
-1.7632562752727399
-1.830955469087764
-1.8432644134177558
-1.8863457185727683
-1.966353856717784
-1.9848172732127856
-2.0217441062027888
-2.052516467027782
-1.5724676381577152
-0.7231504793875909
-1.39398794537271
-2.3540856031128428
-2.1017522443478045
-2.052516467027782
-2.1263701330077875
-2.1694514381628007
-3.0864677907479487
-3.191093817552976
-2.434093741257831
-2.335622186617841
-2.3110042979578305
-2.298695353627811
-2.286386409297819
-2.298695353627811
-2.3171587701228398
-2.2925408814628288
-2.3233132422878215
-2.391012436102846
-2.4402482134228407
-2.446402685587851
-2.4279392690928487
-2.4279392690928487
-2.4217847969278394
-2.403321380432838
-2.4279392690928487
-2.4156303247628297
-2.4525571577528327
-2.471020574247862
-2.4648661020828517
-2.4648661020828517
-2.4217847969278394
-2.563337656722869
-2.526410823732866
-2.4648661020828517
-2.5141018794028467
-2.5694921288878514
-2.5694921288878514
-2.649500267032867
-2.618727906207874
-2.5941100175478624
-2.587955545382853
-2.544874240227868
-2.5387197680628573
-2.544874240227868
-2.544874240227868
-2.526410823732866
-2.735662877342893
-2.778744182497905
-2.9141425701278982
-2.944914930952919
-2.9264515144579173
-3.652679229928041
-5.689809516543326
-5.043589939218246
-4.366598001068144
-4.120419114468116
-3.9973296711680857
-3.9050125886930798
-3.7942320897230712
-3.7449963124030474
-3.781923145393051
-3.597288980443037
-3.117240151572942
-3.7696142010630598
-3.8434678670430653
-3.548053203123014
-3.468045064977998
-3.4188092876580036
-3.381882454668
-3.363419038172999
-3.357264566007989
-3.3326466773480057
-3.2834109000279827
-2.735662877342893
-2.735662877342893
-2.8895246814679143
-2.2371506319778245
-3.9665573103430942
-3.9850207268380964
-3.461890592813016
-3.369573510338009
-3.363419038172999
-3.338801149512988
-3.326492205182996
-3.3203377330179857
-3.3141832608529764
-3.2834109000279827
-3.7634597288980496
-3.972711782508076
-3.4865084814730274
-3.406500343328012
-3.375727982502991
-3.363419038172999
-3.326492205182996
-3.2957198443579747
-3.308028788687994
-3.308028788687994
-3.2834109000279827
-3.2834109000279827
-3.3203377330179857
-2.907988097962916
-2.9879962361079313
-2.8649067928079033
-3.160321456727955
-3.2711019556979917
-3.3141832608529764
-3.3326466773480057
-3.3326466773480057
-3.308028788687994
-3.3203377330179857
-3.3511100938430074
-3.344955621677997
-3.3141832608529764
-3.289565372192993
-3.277256427862973
-3.578825563948035
-3.8803947000330687
-3.468045064977998
-3.357264566007989
-3.338801149512988
-3.308028788687994
-3.2834109000279827
-3.289565372192993
-3.301874316522985
-3.308028788687994
-3.289565372192993
-3.2834109000279827
-3.2834109000279827
-3.24648406703798
-3.2341751227079882
-3.375727982502991
-3.357264566007989
-3.2711019556979917
-3.289565372192993
-3.277256427862973
-3.2711019556979917
-3.25263853920299
-3.264947483532982
-3.2034027618829675
-2.778744182497905
-3.264947483532982
-3.609597924773028
-3.3141832608529764
-3.2218661783779687
-3.3326466773480057
-3.375727982502991
-3.2957198443579747
-3.308028788687994
-3.3203377330179857
-3.338801149512988
-3.3511100938430074
-3.369573510338009
-3.3326466773480057
-3.338801149512988
-3.326492205182996
-3.381882454668
-3.344955621677997
-3.264947483532982
-3.2834109000279827
-3.412654815492993
-3.357264566007989
-3.3326466773480057
-3.3203377330179857
-3.2834109000279827
-3.301874316522985
-3.289565372192993
-3.3141832608529764
-3.2711019556979917
-3.2341751227079882
-3.25263853920299
-3.2341751227079882
-3.184939345387966
-3.2218661783779687
-3.2711019556979917
-3.264947483532982
-3.277256427862973
-3.2957198443579747
-3.264947483532982
-3.2711019556979917
-3.289565372192993
-3.2957198443579747
-3.289565372192993
-3.2834109000279827
-3.2711019556979917
-3.277256427862973
-3.25263853920299
-3.289565372192993
-3.412654815492993
-3.3203377330179857
-3.3141832608529764
-3.308028788687994
-3.3203377330179857
-3.2957198443579747
-3.277256427862973
-3.3203377330179857
-3.344955621677997
-3.357264566007989
-2.883370209302905
-2.089443300017785
-2.747971821672884
-2.9202970422929075
-3.184939345387966
-3.4557361206480066
-4.52661427735815
-3.861931283538067
-3.394191398997992
-3.3141832608529764
-3.2711019556979917
-3.264947483532982
-3.2403295948729705
-3.258793011367972
-3.2711019556979917
-3.2957198443579747
-3.24648406703798
-3.2280206505429785
-3.381882454668
-3.363419038172999
-3.2834109000279827
-3.258793011367972
-3.25263853920299
-3.24648406703798
-3.2403295948729705
-3.2341751227079882
-3.2403295948729705
-3.2280206505429785
-3.2095572340479768
-3.191093817552976
-3.1972482897179852
-3.049540957757918
-2.877215737137895
-3.1480125123979352
-3.2341751227079882
-3.2218661783779687
-3.2034027618829675
-3.184939345387966
-3.2280206505429785
-3.2403295948729705
-3.2341751227079882
-3.2095572340479768
-3.191093817552976
-3.2095572340479768
-3.1972482897179852
-3.2711019556979917
-3.560362147453033
-3.363419038172999
-3.2403295948729705
-3.2095572340479768
-3.2095572340479768
-3.2218661783779687
-3.2403295948729705
-3.2095572340479768
-3.184939345387966
-3.1972482897179852
-3.1972482897179852
-3.2034027618829675
-3.2095572340479768
-3.154166984562973
-3.2095572340479768
-3.2280206505429785
-3.184939345387966
-3.1357035680679433
-2.6925815721878803
-3.184939345387966
-3.5234353144630304
-3.258793011367972
-3.2095572340479768
-3.1972482897179852
-3.2034027618829675
-3.2218661783779687
-3.2280206505429785
-3.1972482897179852
-3.215711706212987
-3.3141832608529764
-3.3511100938430074
-3.2095572340479768
-3.1357035680679433
-3.191093817552976
-3.191093817552976
-3.178784873222984
-3.172630401057975
-3.154166984562973
-3.141858040232953
-3.184939345387966
-3.2095572340479768
-3.160321456727955
-3.1233946237379517
-3.277256427862973
-3.2095572340479768
-3.191093817552976
-3.1664759288929645
-3.172630401057975
-3.184939345387966
-3.178784873222984
-3.191093817552976
-3.178784873222984
-3.1480125123979352
-3.1664759288929645
-3.141858040232953
-3.117240151572942
-3.1110856794079322
-3.2341751227079882
-3.215711706212987
-3.2095572340479768
-3.215711706212987
-3.215711706212987
-3.1972482897179852
-3.191093817552976
-3.215711706212987
-3.2280206505429785
-3.2034027618829675
-3.2095572340479768
-3.2095572340479768
-3.074158846417929
-2.0955977721827947
-2.4279392690928487
-2.8341344319829105
-3.055695429922928
-3.092622262912931
-3.1233946237379517
-2.9387604587879093
-3.1357035680679433
-4.957427328908222
-3.825004450548064
-3.3203377330179857
-3.2280206505429785
-3.172630401057975
-3.1480125123979352
-2.8341344319829105
-2.575646601052861
-2.981841763942921
-3.043386485592936
-3.1110856794079322
-3.1357035680679433
-3.1357035680679433
-3.141858040232953
-3.172630401057975
-3.172630401057975
-3.160321456727955
-3.184939345387966
-3.172630401057975
-3.160321456727955
-3.4865084814730274
-3.9542483660130747
-3.369573510338009
-3.215711706212987
-3.178784873222984
-3.1664759288929645
-3.1664759288929645
-3.1357035680679433
-3.1233946237379517
-3.141858040232953
-3.141858040232953
-3.1480125123979352
-3.141858040232953
-3.117240151572942
-3.080313318582939
-3.141858040232953
-3.172630401057975
-3.1233946237379517
-3.1110856794079322
-3.1049312072429505
-3.1295490959029335
-3.1233946237379517
-3.160321456727955
-3.160321456727955
-3.154166984562973
-3.141858040232953
-3.191093817552976
-3.141858040232953
-3.1295490959029335
-3.141858040232953
-3.1972482897179852
-3.178784873222984
-3.1972482897179852
-3.191093817552976
-3.184939345387966
-3.160321456727955
-3.154166984562973
-3.160321456727955
-3.1480125123979352
-3.160321456727955
-3.1480125123979352
-3.1233946237379517
-2.600264489712873
-2.5141018794028467
-3.160321456727955
-3.141858040232953
-3.1480125123979352
-3.172630401057975
-3.172630401057975
-3.172630401057975
-3.172630401057975
-3.154166984562973
-3.178784873222984
-3.1972482897179852
-3.184939345387966
-3.191093817552976
-3.24648406703798
-3.9480938938480934
-3.781923145393051
-3.375727982502991
-3.289565372192993
-3.2711019556979917
-3.2711019556979917
-3.277256427862973
-3.258793011367972
-3.25263853920299
-3.2711019556979917
-3.2280206505429785
-3.215711706212987
-3.215711706212987
-3.178784873222984
-3.0987767350779407
-3.258793011367972
-3.2095572340479768
-3.2341751227079882
-3.264947483532982
-3.2403295948729705
-3.215711706212987
-3.24648406703798
-3.25263853920299
-3.2095572340479768
-3.1972482897179852
-3.2218661783779687
-3.178784873222984
-3.1295490959029335
-3.0987767350779407
-3.2957198443579747
-3.264947483532982
-3.2403295948729705
-3.2403295948729705
-3.24648406703798
-3.2280206505429785
-3.24648406703798
-3.2280206505429785
-3.24648406703798
-3.264947483532982
-3.2280206505429785
-3.172630401057975
-3.1233946237379517
-3.074158846417929
-2.895679153632896
-2.0340530505327803
-2.729508405177883
-3.0126141247679152
-3.074158846417929
-3.504971897968029
-4.452760611378142
-3.5911345082780266
-3.258793011367972
-3.2218661783779687
-3.2403295948729705
-3.326492205182996
-3.1480125123979352
-2.9202970422929075
-2.563337656722869
-3.043386485592936
-3.1664759288929645
-3.178784873222984
-3.172630401057975
-3.1480125123979352
-3.1357035680679433
-3.117240151572942
-3.1049312072429505
-3.154166984562973
-3.1664759288929645
-3.178784873222984
-3.1480125123979352
-3.289565372192993
-3.806541034053064
-3.4434271763180146
-3.25263853920299
-3.178784873222984
-3.160321456727955
-3.160321456727955
-3.1357035680679433
-3.1049312072429505
-3.1233946237379517
-3.141858040232953
-3.1110856794079322
-3.1049312072429505
-3.0987767350779407
-3.0618499020879373
-3.0618499020879373
-3.117240151572942
-3.0987767350779407
-3.074158846417929
-2.994150708272913
-2.975687291777912
-3.018768596932925
-2.994150708272913
-2.994150708272913
-3.043386485592936
-3.092622262912931
-3.0987767350779407
-3.1233946237379517
-3.092622262912931
-3.1295490959029335
-3.1357035680679433
-3.1049312072429505
-3.049540957757918
-3.018768596932925
-3.018768596932925
-2.96953281961293
-2.9264515144579173
-2.4648661020828517
-2.975687291777912
-3.2711019556979917
-3.0003051804379233
-2.981841763942921
-2.944914930952919
-2.981841763942921
-3.0003051804379233
-2.944914930952919
-2.9633783474479203
-2.9879962361079313
-2.981841763942921
-3.0003051804379233
-2.994150708272913
-3.006459652602933
-3.0249230690979347
-3.049540957757918
-3.037232013427927
-3.055695429922928
-3.0310775412629165
-2.587955545382853
-2.624882378372884
-2.9633783474479203
-3.049540957757918
-3.055695429922928
-3.0618499020879373
-3.0864677907479487
-3.092622262912931
-3.074158846417929
-3.0680043742529195
-3.092622262912931
-3.1110856794079322
-3.092622262912931
-3.074158846417929
-3.5418987309580316
-3.7696142010630598
-3.308028788687994
-3.1972482897179852
-3.191093817552976
-3.2095572340479768
-3.172630401057975
-3.1233946237379517
-3.1295490959029335
-3.092622262912931
-3.0864677907479487
-3.074158846417929
-3.043386485592936
-3.0249230690979347
-2.975687291777912
-3.154166984562973
-3.092622262912931
-3.049540957757918
-3.080313318582939
-3.0680043742529195
-3.049540957757918
-3.049540957757918
-3.0310775412629165
-3.043386485592936
-2.6925815721878803
-1.590931054652717
-4.2311996134381245
-3.664988174258033
-3.0680043742529195
-3.0680043742529195
-3.092622262912931
-3.080313318582939
-3.1110856794079322
-3.074158846417929
-3.092622262912931
-3.1049312072429505
-3.1110856794079322
-3.092622262912931
-3.117240151572942
-3.1480125123979352
-3.1480125123979352
-3.1049312072429505
-3.0680043742529195
-3.2834109000279827
-3.264947483532982
-3.2034027618829675
-3.2034027618829675
-3.215711706212987
-3.25263853920299
-3.2280206505429785
-3.258793011367972
-3.264947483532982
-3.264947483532982
-3.25263853920299
-3.215711706212987
-3.184939345387966
-3.0987767350779407
-2.901833625797906
-3.160321456727955
-3.2403295948729705
-3.2095572340479768
-3.2095572340479768
-3.2341751227079882
-3.2218661783779687
-3.2034027618829675
-3.141858040232953
-3.1295490959029335
-3.1480125123979352
-3.160321456727955
-3.1480125123979352
-3.1233946237379517
-3.3141832608529764
-3.2834109000279827
-3.1357035680679433
-3.092622262912931
-3.1233946237379517
-3.117240151572942
-3.1049312072429505
-3.1049312072429505
-3.0680043742529195
-3.1110856794079322
-3.006459652602933
-2.932605986622927
-2.9387604587879093
-2.901833625797906
-2.304849825792821
-2.4648661020828517
-2.6987360443528896
-1.8740367742427766
-1.2832074464026733
-3.055695429922928
-2.901833625797906
-2.871061264972913
-2.858752320642893
-2.858752320642893
-2.8895246814679143
-3.634215813433039
-4.101955697973114
-3.2095572340479768
-3.6834515907530343
-3.548053203123014
-3.0310775412629165
-2.9387604587879093
-2.8895246814679143
-2.8402889041478923
-2.858752320642893
-2.871061264972913
-2.8525978484779113
-2.8464433763129016
-2.8649067928079033
-2.877215737137895
-2.8464433763129016
-2.8279799598179
-2.6433457948678853
-2.7910531268278973
-2.944914930952919
-2.9202970422929075
-2.9264515144579173
-2.9510694031179288
-2.907988097962916
-2.895679153632896
-2.9572238752829105
-3.0003051804379233
-2.994150708272913
-3.0126141247679152
-3.018768596932925
-2.981841763942921
-3.0249230690979347
-3.1357035680679433
-3.0249230690979347
-3.0003051804379233
-2.981841763942921
-2.9572238752829105
-2.975687291777912
-2.975687291777912
-2.9633783474479203
-2.944914930952919
-2.907988097962916
-2.9387604587879093
-2.944914930952919
-2.9387604587879093
-2.8649067928079033
-3.0126141247679152
-3.037232013427927
-3.006459652602933
-2.981841763942921
-2.6371913227028756
-1.5293863330027024
-2.821825487652891
-2.944914930952919
-2.944914930952919
-3.5849800361130173
-4.17580936395312
-3.2957198443579747
-3.0310775412629165
-2.8402889041478923
-2.526410823732866
-2.858752320642893
-2.9633783474479203
-3.0126141247679152
-2.9633783474479203
-2.9633783474479203
-2.9879962361079313
-3.0249230690979347
-3.018768596932925
-3.018768596932925
-3.043386485592936
-3.018768596932925
-3.043386485592936
-3.215711706212987
-3.437272704153005
-3.2218661783779687
-3.055695429922928
-3.0310775412629165
-3.055695429922928
-3.055695429922928
-3.006459652602933
-3.043386485592936
-3.018768596932925
-3.0249230690979347
-3.037232013427927
-2.8649067928079033
-1.6709391927977324
-1.0370285598026439
-1.2401261412476885
-1.39398794537271
-1.4863050278477177
-1.5478497494977315
-1.6401668319727392
-1.6955570814577436
-1.757101803107758
-1.7817196917677414
-1.818646524757745
-1.849418885582765
-1.892500190737778
-1.9171180793977614
-1.9294270237277809
-1.9601993845527748
-0.889321227842632
-2.2309961598128147
-2.9572238752829105
-2.298695353627811
-2.2063782711528033
-2.194069326822812
-2.200223798987821
-2.224841687647805
-2.175605910327811
-2.175605910327811
-2.212532743317813
-2.1694514381628007
-1.7694107474377496
-2.2679229928028177
-2.3663945474428347
-2.1817603824928202
-2.255614048472826
-2.298695353627811
-2.3171587701228398
-2.3233132422878215
-2.360240075277825
-2.3663945474428347
-2.378703491772827
-2.3848579639378364
-2.378703491772827
-2.360240075277825
-2.4156303247628297
-2.3848579639378364
-2.581801073217871
-2.667963683527869
-2.4402482134228407
-2.378703491772827
-2.378703491772827
-2.3971669082678284
-2.409475852597848
-2.434093741257831
-2.434093741257831
-2.4156303247628297
-2.409475852597848
-2.434093741257831
-2.4217847969278394
-2.3663945474428347
-2.3171587701228398
-2.4894839907428636
-2.4648661020828517
-2.4525571577528327
-2.4156303247628297
-2.4156303247628297
-2.4402482134228407
-2.4217847969278394
-2.391012436102846
-2.391012436102846
-2.409475852597848
-2.446402685587851
-2.4525571577528327
-2.477175046412844
-2.3233132422878215
-2.255614048472826
-2.4648661020828517
-2.5325652958978484
-2.5387197680628573
-2.5325652958978484
-2.5325652958978484
-2.501792935072855
-2.55102871239285
-2.501792935072855
-2.477175046412844
-2.471020574247862
-2.483329518577854
-2.4525571577528327
-2.003280689707787
-0.7908496732026148
-2.286386409297819
-2.471020574247862
-2.5141018794028467
-2.5941100175478624
-2.587955545382853
-2.563337656722869
-2.5941100175478624
-3.468045064977998
-3.6465247577630313
-2.8525978484779113
-2.667963683527869
-2.587955545382853
-2.680272627857888
-3.1480125123979352
-2.8649067928079033
-2.6925815721878803
-2.6987360443528896
-2.6618092113628857
-2.674118155692878
-2.6925815721878803
-2.680272627857888
-2.6925815721878803
-2.729508405177883
-2.729508405177883
-2.7171994608478913
-2.6987360443528896
-2.680272627857888
-2.6618092113628857
-2.7418173495078744
-2.7171994608478913
-2.766435238167886
-2.760280766002876
-2.760280766002876
-2.821825487652891
-2.8033620711578893
-2.766435238167886
-2.7910531268278973
-2.8033620711578893
-2.815671015487909
-2.7910531268278973
-2.7171994608478913
-2.7848986546628876
-2.877215737137895
-2.7848986546628876
-2.772589710332896
-2.778744182497905
-2.760280766002876
-2.729508405177883
-2.7418173495078744
-2.778744182497905
-2.766435238167886
-2.747971821672884
-2.7910531268278973
-2.797207598992907
-2.735662877342893
-2.6371913227028756
-2.772589710332896
-2.729508405177883
-2.704890516517872
-2.674118155692878
-2.6987360443528896
-2.6371913227028756
-2.1817603824928202
-2.600264489712873
-3.018768596932925
-2.7171994608478913
-2.600264489712873
-2.587955545382853
-2.5387197680628573
-2.064825411357801
-2.077134355687793
-2.4894839907428636
-2.575646601052861
-2.624882378372884
-2.612573434042864
-2.618727906207874
-2.631036850537866
-2.649500267032867
-2.649500267032867
-2.6371913227028756
-2.667963683527869
-2.68642710002287
-2.649500267032867
-3.074158846417929
-3.344955621677997
-2.9141425701278982
-2.778744182497905
-2.766435238167886
-2.766435238167886
-2.7848986546628876
-2.797207598992907
-2.7910531268278973
-2.821825487652891
-2.821825487652891
-2.8095165433228986
-2.815671015487909
-2.7848986546628876
-2.7910531268278973
-3.006459652602933
-2.9141425701278982
-2.8279799598179
-2.9510694031179288
-2.8649067928079033
-2.7910531268278973
-2.8279799598179
-2.815671015487909
-2.797207598992907
-2.8033620711578893
-2.772589710332896
-2.797207598992907
-2.766435238167886
-2.735662877342893
-2.8279799598179
-2.901833625797906
-2.858752320642893
-2.821825487652891
-2.821825487652891
-2.8095165433228986
-2.8341344319829105
-2.8464433763129016
-2.4156303247628297
-1.2770529742376913
-2.618727906207874
-2.7171994608478913
-2.754126293837894
-3.6711426464230414
-3.8311589227130733
-3.0618499020879373
-2.895679153632896
-2.8402889041478923
-2.772589710332896
-2.7848986546628876
-2.7418173495078744
-1.4493781948577145
-1.5663131659927332
-2.821825487652891
-3.0618499020879373
-2.8279799598179
-2.772589710332896
-2.760280766002876
-2.9633783474479203
-4.0465654484880815
-3.529589786628012
-2.975687291777912
-2.901833625797906
-2.8525978484779113
-2.8402889041478923
-2.8279799598179
-2.871061264972913
-2.8402889041478923
-2.8464433763129016
-2.883370209302905
-2.907988097962916
-2.8649067928079033
-2.8464433763129016
-3.055695429922928
-2.901833625797906
-2.858752320642893
-2.877215737137895
-2.907988097962916
-2.9264515144579173
-2.901833625797906
-2.883370209302905
-2.8895246814679143
-2.877215737137895
-2.895679153632896
-2.907988097962916
-2.883370209302905
-2.877215737137895
-2.9141425701278982
-2.9264515144579173
-2.907988097962916
-2.895679153632896
-2.907988097962916
-2.9141425701278982
-2.901833625797906
-2.871061264972913
-2.907988097962916
-2.883370209302905
-2.883370209302905
-2.907988097962916
-2.9141425701278982
-2.8279799598179
-2.901833625797906
-2.9264515144579173
-2.9572238752829105
-2.932605986622927
-2.9264515144579173
-2.932605986622927
-2.895679153632896
-2.907988097962916
-2.9202970422929075
-2.9387604587879093
-2.9633783474479203
-2.9202970422929075
-2.907988097962916
-2.329467714452832
-2.138679077337807
-3.25263853920299
-3.055695429922928
-2.944914930952919
-2.9387604587879093
-2.944914930952919
-2.944914930952919
-2.932605986622927
-2.932605986622927
-2.9202970422929075
-2.9510694031179288
-2.9879962361079313
-2.9264515144579173
-3.184939345387966
-3.535744258793022
-3.1480125123979352
-3.0310775412629165
-2.9879962361079313
-2.9633783474479203
-2.975687291777912
-2.9387604587879093
-2.944914930952919
-2.9572238752829105
-2.981841763942921
-2.9633783474479203
-2.9572238752829105
-2.9264515144579173
-2.9633783474479203
-3.141858040232953
-3.018768596932925
-3.0003051804379233
-2.9879962361079313
-2.96953281961293
-2.9141425701278982
-2.883370209302905
-2.9264515144579173
-2.895679153632896
-2.901833625797906
-2.9572238752829105
-2.981841763942921
-2.9202970422929075
-2.871061264972913
-2.667963683527869
-2.8895246814679143
-2.9387604587879093
-2.6371913227028756
-1.7940286360977609
-2.4587116299178424
-2.778744182497905
-2.858752320642893
-2.883370209302905
-2.9141425701278982
-2.907988097962916
-2.9879962361079313
-4.0404109763231
-3.7142239515780546
-3.1972482897179852
-3.117240151572942
-3.006459652602933
-2.9879962361079313
-3.006459652602933
-3.0249230690979347
-3.006459652602933
-3.0003051804379233
-2.96953281961293
-2.9510694031179288
-2.9879962361079313
-2.9879962361079313
-2.9387604587879093
-2.901833625797906
-2.883370209302905
-3.0003051804379233
-2.944914930952919
-2.9264515144579173
-2.9387604587879093
-2.994150708272913
-2.981841763942921
-3.043386485592936
-2.9510694031179288
-2.9141425701278982
-2.9572238752829105
-2.9387604587879093
-2.944914930952919
-2.9264515144579173
-3.0003051804379233
-3.0310775412629165
-2.9572238752829105
-2.975687291777912
-2.9510694031179288
-2.9264515144579173
-2.932605986622927
-2.96953281961293
-2.981841763942921
-2.9510694031179288
-2.944914930952919
-2.9572238752829105
-2.9633783474479203
-2.9387604587879093
-2.8649067928079033
-2.9264515144579173
-2.9202970422929075
-2.944914930952919
-2.96953281961293
-2.9387604587879093
-2.9510694031179288
-2.96953281961293
-2.981841763942921
-3.006459652602933
-2.944914930952919
-2.520256351567857
-3.037232013427927
-3.308028788687994
-3.043386485592936
-3.0310775412629165
-3.006459652602933
-2.9633783474479203
-2.975687291777912
-2.9572238752829105
-2.9387604587879093
-2.96953281961293
-2.9572238752829105
-2.9264515144579173
-2.9264515144579173
-2.944914930952919
-2.944914930952919
-2.9202970422929075
-2.8525978484779113
-2.9264515144579173
-2.9387604587879093
-2.932605986622927
-2.932605986622927
-2.901833625797906
-2.9510694031179288
-2.9141425701278982
-2.901833625797906
-2.9510694031179288
-2.944914930952919
-2.9387604587879093
-2.9510694031179288
-2.9387604587879093
-2.8525978484779113
-2.815671015487909
-2.9510694031179288
-2.9141425701278982
-2.9264515144579173
-2.9387604587879093
-2.907988097962916
-2.9141425701278982
-2.9510694031179288
-2.9202970422929075
-2.901833625797906
-2.907988097962916
-2.932605986622927
-2.895679153632896
-2.883370209302905
-3.055695429922928
-2.9879962361079313
-2.901833625797906
-2.9141425701278982
-2.883370209302905
-2.907988097962916
-2.9141425701278982
-2.877215737137895
-2.883370209302905
-2.883370209302905
-2.907988097962916
-2.907988097962916
-2.587955545382853
-1.7878741639327511
-2.3417766587828237
-2.760280766002876
-2.9572238752829105
-4.0219475598280985
-3.701915007248036
-3.080313318582939
-3.006459652602933
-2.9879962361079313
-2.96953281961293
-2.9633783474479203
-3.006459652602933
-2.9572238752829105
-2.9264515144579173
-2.9141425701278982
-2.9264515144579173
-3.043386485592936
-2.9633783474479203
-2.9633783474479203
-2.9141425701278982
-2.9141425701278982
-2.9264515144579173
-3.006459652602933
-3.1480125123979352
-3.277256427862973
-3.6219068691030203
-4.17580936395312
-4.3727524732331275
-5.234378576333271
-5.031280994888226
-4.440451667048151
-4.446606139213161
-4.360443528903135
-4.280435390758119
-4.181963836118102
-4.126573586633098
-4.083492281478085
-4.052719920653092
-3.9911751990030773
-3.9542483660130747
-3.9419394216830828
-3.8865491721980785
-3.868085755703077
-4.126573586633098
-3.4865084814730274
-2.871061264972913
-3.597288980443037
-3.634215813433039
-3.677297118588053
-3.6957605350830534
-3.6896060629180436
-3.634215813433039
-3.6034434526080172
-3.609597924773028
-3.597288980443037
-3.6034434526080172
-3.578825563948035
-3.677297118588053
-3.825004450548064
-3.6219068691030203
-3.578825563948035
-3.5911345082780266
-3.529589786628012
-3.074158846417929
-3.548053203123014
-3.9111670608580615
-3.6034434526080172
-3.5234353144630304
-3.474199537143008
-3.474199537143008
-3.449581648482997
-3.344955621677997
-3.406500343328012
-3.4557361206480066
-3.449581648482997
-3.400345871163002
-3.338801149512988
-3.3326466773480057
-3.3203377330179857
-3.2957198443579747
-3.301874316522985
-3.2957198443579747
-3.0310775412629165
-1.6955570814577436
-2.8095165433228986
-3.0003051804379233
-2.96953281961293
-3.1049312072429505
-3.1233946237379517
-3.0987767350779407
-3.652679229928041
-4.360443528903135
-3.406500343328012
-3.117240151572942
-3.0864677907479487
-3.117240151572942
-3.1295490959029335
-3.172630401057975
-3.172630401057975
-3.2957198443579747
-3.6219068691030203
-3.4988174258030194
-3.424963759823013
-3.412654815492993
-3.381882454668
-3.3511100938430074
-3.38803692683301
-3.394191398997992
-3.3511100938430074
-3.308028788687994
-3.3141832608529764
-3.3141832608529764
-3.301874316522985
-3.215711706212987
-2.907988097962916
-3.184939345387966
-3.3203377330179857
-3.326492205182996
-3.3326466773480057
-3.338801149512988
-3.375727982502991
-3.160321456727955
-2.3110042979578305
-2.723353933012873
-3.1357035680679433
-3.264947483532982
-3.258793011367972
-3.24648406703798
-3.4557361206480066
-3.6834515907530343
-4.618931359833185
-3.898858116528071
-3.461890592813016
-3.4188092876580036
-3.357264566007989
-3.369573510338009
-3.375727982502991
-3.4311182319879947
-3.38803692683301
-3.375727982502991
-3.4188092876580036
-3.375727982502991
-3.38803692683301
-3.4311182319879947
-3.394191398997992
-3.400345871163002
-3.375727982502991
-3.363419038172999
-3.375727982502991
-3.357264566007989
-3.3141832608529764
-3.3203377330179857
-3.289565372192993
-3.264947483532982
-3.2403295948729705
-3.184939345387966
-3.117240151572942
-3.3141832608529764
-3.2834109000279827
-3.2280206505429785
-2.526410823732866
-1.363215584547689
-1.2708985020726815
-1.4432237226927047
-1.6093944711477182
-1.689402609292734
-1.7694107474377496
-1.8248009969227534
-1.8863457185727683
-1.8801912464077586
-1.8678823020777668
-2.114061188677796
-2.1017522443478045
-2.089443300017785
-2.070979883522784
-2.077134355687793
-2.1079067165127863
-2.150988021667799
-2.1817603824928202
-2.224841687647805
-2.249459576307816
-2.2740774649678275
-2.3233132422878215
-2.4156303247628297
-2.4279392690928487
-2.1817603824928202
-2.7910531268278973
-3.258793011367972
-3.1295490959029335
-3.264947483532982
-3.24648406703798
-3.191093817552976
-3.0618499020879373
-2.877215737137895
-2.8525978484779113
-2.6925815721878803
-2.5941100175478624
-2.55102871239285
-2.55102871239285
-2.6371913227028756
-2.4894839907428636
-3.0864677907479487
-3.369573510338009
-2.8341344319829105
-2.6618092113628857
-2.544874240227868
-2.507947407237865
-2.5141018794028467
-2.507947407237865
-2.544874240227868
-2.587955545382853
-2.6064189618778553
-2.649500267032867
-2.877215737137895
-2.8033620711578893
-2.815671015487909
-2.821825487652891
-2.8895246814679143
-2.9633783474479203
-2.96953281961293
-3.0003051804379233
-3.0680043742529195
-3.043386485592936
-2.901833625797906
-2.9202970422929075
-2.9264515144579173
-2.9572238752829105
-3.141858040232953
-3.258793011367972
-3.24648406703798
-3.308028788687994
-3.3511100938430074
-3.363419038172999
-3.517280842298021
-3.468045064977998
-3.326492205182996
-3.2341751227079882
-3.2218661783779687
-3.326492205182996
-3.24648406703798
-3.1049312072429505
-3.1357035680679433
-3.3326466773480057
-3.0680043742529195
-1.8678823020777668
-3.24648406703798
-3.2957198443579747
-3.560362147453033
-4.69278502581319
-3.923476005188081
-3.344955621677997
-3.184939345387966
-3.074158846417929
-3.074158846417929
-3.154166984562973
-3.381882454668
-3.535744258793022
-3.6957605350830534
-4.0465654484880815
-4.311207751583139
-4.120419114468116
-3.9973296711680857
-3.868085755703077
-3.8311589227130733
-3.7757686732280415
-3.7080694794130453
-3.701915007248036
-3.7080694794130453
-3.6280613412680296
-3.178784873222984
-3.1972482897179852
-3.535744258793022
-3.5665166196180156
-3.548053203123014
-3.5911345082780266
-3.5911345082780266
-3.554207675288024
-3.554207675288024
-3.535744258793022
-3.5418987309580316
-3.554207675288024
-3.5418987309580316
-3.511126370133011
-3.5665166196180156
-3.5234353144630304
-3.474199537143008
-3.492662953638009
-3.4803540093080176
-3.4865084814730274
-3.517280842298021
-3.504971897968029
-3.5418987309580316
-3.560362147453033
-3.554207675288024
-3.5726710917830253
-3.554207675288024
-3.517280842298021
-3.9604028381780845
-4.563541110348179
-3.825004450548064
-3.6219068691030203
-3.6034434526080172
-3.5849800361130173
-3.4434271763180146
-3.4803540093080176
-3.4865084814730274
-3.461890592813016
-3.0126141247679152
-3.4988174258030194
-3.812695506218072
-3.5418987309580316
-3.2034027618829675
-2.932605986622927
-3.338801149512988
-3.369573510338009
-3.394191398997992
-3.406500343328012
-3.38803692683301
-3.381882454668
-3.381882454668
-3.424963759823013
-3.449581648482997
-3.424963759823013
-3.394191398997992
-3.412654815492993
-3.381882454668
-3.461890592813016
-3.424963759823013
-3.375727982502991
-3.357264566007989
-3.363419038172999
-3.363419038172999
-3.369573510338009
-3.406500343328012
-3.369573510338009
-3.381882454668
-3.381882454668
-3.400345871163002
-3.38803692683301
-3.3203377330179857
-3.363419038172999
-3.437272704153005
-3.381882454668
-3.344955621677997
-3.369573510338009
-3.344955621677997
-3.3326466773480057
-3.3511100938430074
-3.344955621677997
-3.363419038172999
-3.381882454668
-3.369573510338009
-3.326492205182996
-3.289565372192993
-3.301874316522985
-3.468045064977998
-3.4311182319879947
-3.406500343328012
-3.375727982502991
-3.363419038172999
-3.3511100938430074
-3.357264566007989
-3.369573510338009
-3.369573510338009
-3.357264566007989
-3.2095572340479768
-2.2740774649678275
-2.5387197680628573
-3.1357035680679433
-3.38803692683301
-3.3203377330179857
-3.338801149512988
-3.381882454668
-3.7511507845680576
-4.662012664988168
-3.800386561888053
-3.4188092876580036
-3.400345871163002
-3.381882454668
-3.3511100938430074
-3.344955621677997
-3.264947483532982
-3.277256427862973
-3.4434271763180146
-3.357264566007989
-3.369573510338009
-3.375727982502991
-3.357264566007989
-3.3511100938430074
-3.363419038172999
-3.344955621677997
-3.3141832608529764
-3.3203377330179857
-3.338801149512988
-3.3141832608529764
-3.277256427862973
-3.191093817552976
-2.378703491772827
-1.892500190737778
-3.006459652602933
-3.5911345082780266
-3.357264566007989
-3.277256427862973
-3.258793011367972
-3.326492205182996
-4.323516695913132
-4.058874392818101
-3.4557361206480066
-3.338801149512988
-3.2711019556979917
-3.264947483532982
-3.338801149512988
-3.289565372192993
-3.2341751227079882
-3.2341751227079882
-3.258793011367972
-3.2280206505429785
-3.2403295948729705
-3.2403295948729705
-3.2218661783779687
-3.215711706212987
-3.2341751227079882
-3.24648406703798
-3.1972482897179852
-3.2095572340479768
-3.412654815492993
-3.3326466773480057
-3.2834109000279827
-3.338801149512988
-3.24648406703798
-3.172630401057975
-3.2095572340479768
-3.2341751227079882
-3.215711706212987
-3.1972482897179852
-3.178784873222984
-3.1480125123979352
-3.178784873222984
-3.080313318582939
-3.037232013427927
-3.1357035680679433
-3.160321456727955
-3.178784873222984
-3.1480125123979352
-3.117240151572942
-3.2034027618829675
-3.184939345387966
-3.178784873222984
-3.1480125123979352
-3.141858040232953
-3.1480125123979352
-3.1295490959029335
-3.092622262912931
-3.1110856794079322
-3.1480125123979352
-3.141858040232953
-3.1233946237379517
-3.1110856794079322
-3.0987767350779407
-3.1295490959029335
-2.9202970422929075
-2.624882378372884
-3.461890592813016
-3.3511100938430074
-3.1972482897179852
-3.184939345387966
-3.117240151572942
-3.1295490959029335
-3.2095572340479768
-3.160321456727955
-3.154166984562973
-2.520256351567857
-1.830955469087764
-1.9294270237277809
-1.9848172732127856
-2.0340530505327803
-2.2371506319778245
-2.6433457948678853
-3.277256427862973
-3.634215813433039
-3.394191398997992
-3.412654815492993
-3.634215813433039
-3.461890592813016
-3.344955621677997
-3.308028788687994
-3.308028788687994
-2.975687291777912
-2.120215660842805
-2.815671015487909
-3.1049312072429505
-3.6957605350830534
-4.501996388698165
-3.6219068691030203
-3.308028788687994
-3.25263853920299
-3.344955621677997
-3.25263853920299
-3.215711706212987
-2.5694921288878514
-2.2679229928028177
-3.4988174258030194
-3.5418987309580316
-3.338801149512988
-3.277256427862973
-3.2218661783779687
-3.2218661783779687
-3.2341751227079882
-3.1972482897179852
-3.1233946237379517
-3.184939345387966
-3.172630401057975
-3.191093817552976
-3.24648406703798
-3.2280206505429785
-3.2095572340479768
-3.258793011367972
-3.2280206505429785
-3.2341751227079882
-3.2711019556979917
-3.2711019556979917
-3.258793011367972
-3.2280206505429785
-3.1480125123979352
-3.258793011367972
-3.2957198443579747
-3.2341751227079882
-3.2095572340479768
-3.1972482897179852
-3.184939345387966
-3.1972482897179852
-3.172630401057975
-3.1357035680679433
-3.154166984562973
-3.172630401057975
-3.117240151572942
-3.0310775412629165
-3.049540957757918
-3.0987767350779407
-3.1049312072429505
-3.0864677907479487
-3.0987767350779407
-3.1295490959029335
-3.160321456727955
-3.1357035680679433
-3.141858040232953
-2.8033620711578893
-3.1664759288929645
-3.4188092876580036
-3.2403295948729705
-3.1480125123979352
-2.5387197680628573
-2.6618092113628857
-3.326492205182996
-3.154166984562973
-3.178784873222984
-3.141858040232953
-3.160321456727955
-3.178784873222984
-3.043386485592936
-3.1110856794079322
-3.055695429922928
-3.055695429922928
-3.1480125123979352
-3.1049312072429505
-3.1972482897179852
-3.732687368073057
-3.406500343328012
-3.1972482897179852
-3.1357035680679433
-3.1110856794079322
-3.080313318582939
-3.080313318582939
-3.0864677907479487
-3.080313318582939
-3.0864677907479487
-3.092622262912931
-3.1110856794079322
-3.1049312072429505
-3.080313318582939
-3.3326466773480057
-3.264947483532982
-3.0864677907479487
-3.092622262912931
-3.0987767350779407
-3.154166984562973
-3.1357035680679433
-3.1480125123979352
-3.191093817552976
-3.141858040232953
-3.1110856794079322
-3.1049312072429505
-3.1233946237379517
-3.0987767350779407
-2.8341344319829105
-3.043386485592936
-3.117240151572942
-3.160321456727955
-3.178784873222984
-3.184939345387966
-3.2095572340479768
-3.289565372192993
-3.2218661783779687
-3.1972482897179852
-3.2280206505429785
-3.2280206505429785
-3.2403295948729705
-3.215711706212987
-3.2403295948729705
-2.96953281961293
-2.1017522443478045
-2.754126293837894
-3.1110856794079322
-3.215711706212987
-3.2341751227079882
-3.258793011367972
-3.2834109000279827
-4.0219475598280985
-4.520459805193168
-3.634215813433039
-3.4434271763180146
-3.357264566007989
-3.2834109000279827
-3.4188092876580036
-3.375727982502991
-3.369573510338009
-3.3326466773480057
-3.308028788687994
-3.2957198443579747
-3.264947483532982
-3.258793011367972
-3.2403295948729705
-3.277256427862973
-3.2711019556979917
-3.2711019556979917
-3.258793011367972
-3.2034027618829675
-3.308028788687994
-3.3203377330179857
-3.3203377330179857
-3.301874316522985
-3.2711019556979917
-3.2834109000279827
-3.289565372192993
-3.2711019556979917
-3.2711019556979917
-3.264947483532982
-3.25263853920299
-3.277256427862973
-3.264947483532982
-3.1664759288929645
-3.037232013427927
-3.258793011367972
-3.2711019556979917
-3.258793011367972
-3.2341751227079882
-3.2341751227079882
-3.191093817552976
-3.191093817552976
-3.1972482897179852
-3.1972482897179852
-3.2095572340479768
-3.215711706212987
-3.2034027618829675
-3.2280206505429785
-3.4865084814730274
-3.369573510338009
-3.24648406703798
-3.1972482897179852
-3.184939345387966
-3.1972482897179852
-3.191093817552976
-3.1664759288929645
-2.6925815721878803
-3.2218661783779687
-3.5418987309580316
-3.2403295948729705
-3.1295490959029335
-3.1295490959029335
-3.1295490959029335
-3.172630401057975
-3.1357035680679433
-3.1480125123979352
-3.1233946237379517
-2.5387197680628573
-1.966353856717784
-2.526410823732866
-2.8279799598179
-2.9141425701278982
-3.1233946237379517
-3.2403295948729705
-3.375727982502991
-3.3203377330179857
-3.2341751227079882
-3.277256427862973
-3.2280206505429785
-3.2095572340479768
-3.178784873222984
-3.160321456727955
-3.1480125123979352
-3.1480125123979352
-3.191093817552976
-3.184939345387966
-3.191093817552976
-3.191093817552976
-3.154166984562973
-3.1110856794079322
-3.1233946237379517
-3.2957198443579747
-3.191093817552976
-3.141858040232953
-2.9510694031179288
-1.6955570814577436
-2.8464433763129016
-3.0680043742529195
-3.1110856794079322
-3.1110856794079322
-3.1357035680679433
-3.1357035680679433
-3.554207675288024
-4.428142722718159
-3.548053203123014
-3.3203377330179857
-3.215711706212987
-3.215711706212987
-3.184939345387966
-3.154166984562973
-3.1664759288929645
-3.1480125123979352
-3.154166984562973
-3.160321456727955
-2.747971821672884
-1.590931054652717
-2.975687291777912
-3.049540957757918
-3.5726710917830253
-4.003484143333097
-3.369573510338009
-3.191093817552976
-3.1480125123979352
-3.141858040232953
-3.154166984562973
-3.1357035680679433
-3.080313318582939
-3.117240151572942
-3.1110856794079322
-3.1233946237379517
-3.1049312072429505
-3.092622262912931
-3.326492205182996
-3.535744258793022
-3.2711019556979917
-3.184939345387966
-3.1295490959029335
-3.1295490959029335
-3.1357035680679433
-3.1110856794079322
-3.1233946237379517
-3.141858040232953
-3.154166984562973
-3.154166984562973
-3.141858040232953
-3.1233946237379517
-3.1295490959029335
-3.1664759288929645
-3.1664759288929645
-3.1664759288929645
-3.141858040232953
-3.141858040232953
-3.1357035680679433
-3.1049312072429505
-3.1049312072429505
-3.1110856794079322
-3.117240151572942
-3.2218661783779687
-3.154166984562973
-3.1110856794079322
-3.154166984562973
-3.191093817552976
-3.191093817552976
-3.191093817552976
-3.154166984562973
-3.117240151572942
-3.1480125123979352
-3.160321456727955
-3.1295490959029335
-3.092622262912931
-3.0987767350779407
-3.1049312072429505
-3.080313318582939
-3.0618499020879373
-3.1110856794079322
-3.172630401057975
-3.1664759288929645
-3.074158846417929
-2.631036850537866
-3.1295490959029335
-3.4557361206480066
-3.1972482897179852
-3.1295490959029335
-3.1295490959029335
-3.1295490959029335
-3.1233946237379517
-3.1049312072429505
-3.0864677907479487
-3.0310775412629165
-2.858752320642893
-2.994150708272913
-3.043386485592936
-3.0618499020879373
-3.074158846417929
-3.080313318582939
-3.049540957757918
-3.0680043742529195
-3.049540957757918
-3.055695429922928
-3.049540957757918
-2.9572238752829105
-2.994150708272913
-3.006459652602933
-3.264947483532982
-3.2341751227079882
-3.0680043742529195
-3.055695429922928
-3.1233946237379517
-3.1110856794079322
-3.1049312072429505
-3.0987767350779407
-3.0864677907479487
-3.1233946237379517
-3.0987767350779407
-3.0864677907479487
-3.080313318582939
-3.049540957757918
-3.0003051804379233
-3.1357035680679433
-3.080313318582939
-3.1049312072429505
-3.0864677907479487
-3.0680043742529195
-3.0987767350779407
-3.092622262912931
-3.1049312072429505
-3.080313318582939
-3.0618499020879373
-3.0680043742529195
-3.080313318582939
-3.074158846417929
-3.0310775412629165
-3.2034027618829675
-3.141858040232953
-3.1233946237379517
-3.141858040232953
-2.8341344319829105
-1.990971745377768
-2.618727906207874
-2.9510694031179288
-3.080313318582939
-2.624882378372884
-1.4432237226927047
-1.3570611123826792
-2.4894839907428636
-2.631036850537866
-2.2063782711528033
-2.150988021667799
-2.187914854657802
-2.1817603824928202
-2.1632969659978185
-2.2186872154828228
-2.335622186617841
-2.575646601052861
-2.944914930952919
-3.511126370133011
-4.003484143333097
-4.212736196943122
-4.0404109763231
-3.7142239515780546
-3.6034434526080172
-3.5911345082780266
-3.554207675288024
-3.535744258793022
-3.4988174258030194
-3.449581648482997
-3.4188092876580036
-3.38803692683301
-3.38803692683301
-3.375727982502991
-3.3326466773480057
-3.338801149512988
-3.308028788687994
-3.289565372192993
-3.474199537143008
-3.517280842298021
-3.369573510338009
-3.3511100938430074
-3.400345871163002
-3.381882454668
-3.3326466773480057
-3.3326466773480057
-3.326492205182996
-3.3511100938430074
-3.2957198443579747
-3.2834109000279827
-3.258793011367972
-3.1972482897179852
-3.154166984562973
-3.25263853920299
-3.2095572340479768
-3.160321456727955
-3.178784873222984
-3.191093817552976
-3.191093817552976
-3.2095572340479768
-3.191093817552976
-3.160321456727955
-3.191093817552976
-3.1664759288929645
-2.7171994608478913
-3.2034027618829675
-3.5418987309580316
-3.326492205182996
-3.2280206505429785
-3.25263853920299
-3.2341751227079882
-3.2034027618829675
-3.215711706212987
-3.2403295948729705
-3.2341751227079882
-3.2280206505429785
-3.1972482897179852
-3.1664759288929645
-3.172630401057975
-3.184939345387966
-3.215711706212987
-3.215711706212987
-3.1664759288929645
-3.1357035680679433
-3.141858040232953
-3.117240151572942
-3.080313318582939
-3.1049312072429505
-3.117240151572942
-3.141858040232953
-3.1295490959029335
-3.1233946237379517
-3.1110856794079322
-3.043386485592936
-3.049540957757918
-3.0864677907479487
-3.0249230690979347
-3.074158846417929
-3.0987767350779407
-3.074158846417929
-3.074158846417929
-3.092622262912931
-3.1295490959029335
-3.160321456727955
-3.154166984562973
-3.1480125123979352
-3.1664759288929645
-3.154166984562973
-3.117240151572942
-3.2957198443579747
-3.2280206505429785
-3.191093817552976
-3.191093817552976
-3.2095572340479768
-3.1972482897179852
-3.184939345387966
-3.184939345387966
-3.160321456727955
-3.1295490959029335
-3.160321456727955
-3.178784873222984
-3.154166984562973
-2.8279799598179
-2.0463619948628
-2.7418173495078744
-3.037232013427927
-4.181963836118102
-4.071183337148093
-3.412654815492993
-3.289565372192993
-3.2341751227079882
-3.2034027618829675
-3.1664759288929645
-3.184939345387966
-3.154166984562973
-3.1357035680679433
-3.074158846417929
-3.172630401057975
-3.1972482897179852
-3.172630401057975
-3.1664759288929645
-3.160321456727955
-3.178784873222984
-3.191093817552976
-3.184939345387966
-3.1972482897179852
-3.2280206505429785
-3.2095572340479768
-3.1664759288929645
-3.1664759288929645
-3.1480125123979352
-3.2403295948729705
-3.2034027618829675
-3.172630401057975
-3.172630401057975
-3.160321456727955
-3.1664759288929645
-3.184939345387966
-3.172630401057975
-3.184939345387966
-3.160321456727955
-3.1664759288929645
-3.191093817552976
-3.160321456727955
-3.141858040232953
-3.141858040232953
-3.215711706212987
-3.2095572340479768
-3.2034027618829675
-3.178784873222984
-3.2034027618829675
-3.1972482897179852
-3.178784873222984
-2.5941100175478624
-1.590931054652717
-2.7418173495078744
-3.511126370133011
-3.2403295948729705
-3.0864677907479487
-3.1049312072429505
-3.2834109000279827
-4.181963836118102
-4.114264642303106
-3.4311182319879947
-3.2711019556979917
-3.2403295948729705
-3.24648406703798
-3.2403295948729705
-3.2341751227079882
-3.2218661783779687
-3.184939345387966
-3.154166984562973
-3.092622262912931
-3.0987767350779407
-3.277256427862973
-3.2095572340479768
-3.1664759288929645
-3.154166984562973
-3.178784873222984
-3.2095572340479768
-3.215711706212987
-3.2218661783779687
-3.2280206505429785
-3.2095572340479768
-3.191093817552976
-3.191093817552976
-3.172630401057975
-3.1110856794079322
-3.258793011367972
-3.178784873222984
-3.178784873222984
-3.1972482897179852
-3.25263853920299
-3.160321456727955
-3.1357035680679433
-3.160321456727955
-3.141858040232953
-3.154166984562973
-3.184939345387966
-3.277256427862973
-3.141858040232953
-2.944914930952919
-3.018768596932925
-3.1295490959029335
-3.1110856794079322
-3.1110856794079322
-3.141858040232953
-3.160321456727955
-3.141858040232953
-3.1233946237379517
-3.1357035680679433
-3.1049312072429505
-3.092622262912931
-3.1295490959029335
-3.1357035680679433
-3.1295490959029335
-3.191093817552976
-2.7171994608478913
-3.437272704153005
-3.4803540093080176
-3.2280206505429785
-3.184939345387966
-3.191093817552976
-3.1972482897179852
-2.8464433763129016
-1.677093664962742
-3.037232013427927
-3.117240151572942
-3.117240151572942
-3.080313318582939
-3.1480125123979352
-3.3203377330179857
-4.360443528903135
-3.8865491721980785
-3.344955621677997
-3.264947483532982
-3.25263853920299
-3.24648406703798
-3.2280206505429785
-3.2403295948729705
-3.2280206505429785
-3.215711706212987
-3.2095572340479768
-3.184939345387966
-3.258793011367972
-3.1972482897179852
-3.1480125123979352
-3.25263853920299
-3.1480125123979352
-3.0680043742529195
-3.141858040232953
-3.1664759288929645
-3.160321456727955
-3.160321456727955
-3.172630401057975
-3.1480125123979352
-3.1110856794079322
-3.0864677907479487
-3.0680043742529195
-3.1110856794079322
-3.1295490959029335
-3.141858040232953
-3.141858040232953
-3.154166984562973
-3.215711706212987
-3.2034027618829675
-3.184939345387966
-3.2095572340479768
-3.2095572340479768
-3.1664759288929645
-3.154166984562973
-3.1295490959029335
-3.264947483532982
-3.25263853920299
-3.178784873222984
-3.154166984562973
-3.1295490959029335
-3.1295490959029335
-3.1295490959029335
-3.117240151572942
-3.1357035680679433
-3.178784873222984
-3.191093817552976
-3.184939345387966
-3.160321456727955
-3.1295490959029335
-3.1357035680679433
-3.1295490959029335
-2.711044988682881
-3.2341751227079882
-3.597288980443037
-3.2834109000279827
-3.2218661783779687
-3.2218661783779687
-3.1972482897179852
-3.191093817552976
-3.172630401057975
-3.160321456727955
-3.141858040232953
-3.1049312072429505
-3.154166984562973
-3.24648406703798
-3.1480125123979352
-3.154166984562973
-3.1664759288929645
-3.191093817552976
-3.2034027618829675
-3.1972482897179852
-3.178784873222984
-3.184939345387966
-3.1972482897179852
-3.2280206505429785
-3.264947483532982
-3.2095572340479768
-3.1480125123979352
-3.2957198443579747
-3.24648406703798
-3.2341751227079882
-3.2218661783779687
-3.2095572340479768
-3.2095572340479768
-3.2280206505429785
-3.2280206505429785
-3.2034027618829675
-3.191093817552976
-3.172630401057975
-3.154166984562973
-3.191093817552976
-3.1480125123979352
-3.258793011367972
-3.2341751227079882
-3.2218661783779687
-3.2095572340479768
-3.184939345387966
-3.184939345387966
-3.2218661783779687
-3.2280206505429785
-3.258793011367972
-3.2403295948729705
-3.2341751227079882
-3.2095572340479768
-3.191093817552976
-2.975687291777912
-2.6064189618778553
-3.055695429922928
-3.1664759288929645
-2.8033620711578893
-1.6524757763027313
-3.006459652602933
-3.24648406703798
-4.360443528903135
-3.8803947000330687
-3.363419038172999
-3.2403295948729705
-3.2034027618829675
-3.2034027618829675
-3.424963759823013
-3.849622339208075
-3.468045064977998
-3.289565372192993
-3.25263853920299
-3.2280206505429785
-3.2218661783779687
-3.215711706212987
-3.1972482897179852
-3.25263853920299
-3.184939345387966
-3.1295490959029335
-3.1972482897179852
-3.178784873222984
-3.141858040232953
-3.2711019556979917
-3.2957198443579747
-3.2280206505429785
-3.2280206505429785
-3.2034027618829675
-3.2218661783779687
-3.2341751227079882
-3.2341751227079882
-3.184939345387966
-3.1664759288929645
-3.191093817552976
-3.172630401057975
-3.1480125123979352
-3.080313318582939
-3.1295490959029335
-3.215711706212987
-3.141858040232953
-3.117240151572942
-3.154166984562973
-3.1480125123979352
-3.154166984562973
-3.1480125123979352
-3.141858040232953
-3.117240151572942
-3.092622262912931
-3.1049312072429505
-3.1233946237379517
-3.092622262912931
-3.0126141247679152
-3.1110856794079322
-3.1049312072429505
-3.1233946237379517
-3.0987767350779407
-3.1049312072429505
-3.074158846417929
-3.074158846417929
-3.074158846417929
-3.092622262912931
-3.037232013427927
-2.6064189618778553
-3.1295490959029335
-3.424963759823013
-3.1664759288929645
-3.160321456727955
-3.1049312072429505
-3.117240151572942
-3.117240151572942
-3.092622262912931
-3.080313318582939
-3.154166984562973
-3.117240151572942
-3.1295490959029335
-3.178784873222984
-3.154166984562973
-3.141858040232953
-3.1049312072429505
-3.0618499020879373
-3.178784873222984
-3.1480125123979352
-3.1664759288929645
-3.1972482897179852
-3.184939345387966
-3.160321456727955
-3.1480125123979352
-3.1480125123979352
-3.1233946237379517
-3.0618499020879373
-3.080313318582939
-3.1233946237379517
-3.1295490959029335
-3.2095572340479768
-3.412654815492993
-3.24648406703798
-3.191093817552976
-3.1357035680679433
-3.1049312072429505
-3.141858040232953
-3.1357035680679433
-3.117240151572942
-3.1049312072429505
-3.1110856794079322
-3.1480125123979352
-3.1110856794079322
-3.055695429922928
-2.9572238752829105
-3.0987767350779407
-3.0618499020879373
-3.1295490959029335
-3.178784873222984
-3.141858040232953
-3.117240151572942
-3.080313318582939
-3.0618499020879373
-3.092622262912931
-3.074158846417929
-3.0618499020879373
-2.944914930952919
-1.9048091350677696
-2.4648661020828517
-3.2218661783779687
-3.1049312072429505
-3.055695429922928
-3.049540957757918
-3.043386485592936
-3.338801149512988
-4.354289056738125
-3.578825563948035
-3.2034027618829675
-3.1295490959029335
-3.0987767350779407
-3.074158846417929
-3.049540957757918
-2.5141018794028467
-2.8341344319829105
-3.2834109000279827
-3.049540957757918
-3.0003051804379233
-2.9633783474479203
-2.9633783474479203
-2.9879962361079313
-2.9633783474479203
-2.9387604587879093
-2.907988097962916
-2.9141425701278982
-2.907988097962916
-2.8895246814679143
-2.877215737137895
-2.877215737137895
-2.9387604587879093
-3.0249230690979347
-2.9572238752829105
-2.944914930952919
-2.9572238752829105
-2.975687291777912
-3.0003051804379233
-3.0249230690979347
-3.043386485592936
-3.037232013427927
-3.074158846417929
-3.080313318582939
-3.0680043742529195
-3.0618499020879373
-3.160321456727955
-3.1110856794079322
-3.092622262912931
-3.0864677907479487
-3.080313318582939
-3.0864677907479487
-3.1110856794079322
-3.1480125123979352
-3.178784873222984
-3.2280206505429785
-3.24648406703798
-3.2341751227079882
-3.2280206505429785
-3.24648406703798
-3.3326466773480057
-3.2403295948729705
-3.215711706212987
-3.2341751227079882
-3.154166984562973
-2.704890516517872
-3.191093817552976
-3.5234353144630304
-3.24648406703798
-3.178784873222984
-3.1480125123979352
-3.2341751227079882
-3.117240151572942
-3.0618499020879373
-3.1664759288929645
-3.1664759288929645
-3.172630401057975
-3.1664759288929645
-3.160321456727955
-3.1357035680679433
-3.1110856794079322
-3.1664759288929645
-3.1295490959029335
-3.0987767350779407
-3.1049312072429505
-3.1480125123979352
-3.0987767350779407
-3.0864677907479487
-3.2095572340479768
-3.1972482897179852
-3.191093817552976
-3.1664759288929645
-3.141858040232953
-3.172630401057975
-3.184939345387966
-3.1357035680679433
-3.0864677907479487
-3.074158846417929
-3.055695429922928
-3.0126141247679152
-2.9510694031179288
-2.7910531268278973
-2.649500267032867
-2.8341344319829105
-2.9202970422929075
-2.975687291777912
-3.018768596932925
-3.018768596932925
-3.0310775412629165
-3.0864677907479487
-3.1049312072429505
-3.1110856794079322
-3.0864677907479487
-3.1110856794079322
-3.1233946237379517
-3.160321456727955
-3.406500343328012
-3.289565372192993
-3.2095572340479768
-3.178784873222984
-3.184939345387966
-3.2034027618829675
-3.1972482897179852
-2.8895246814679143
-2.052516467027782
-2.704890516517872
-3.338801149512988
-4.434297194883141
-3.6034434526080172
-3.2280206505429785
-3.2957198443579747
-3.301874316522985
-3.258793011367972
-3.277256427862973
-3.2711019556979917
-3.2341751227079882
-3.2280206505429785
-3.2218661783779687
-3.2341751227079882
-3.25263853920299
-3.2280206505429785
-3.264947483532982
-3.258793011367972
-3.215711706212987
-3.2218661783779687
-3.215711706212987
-3.2095572340479768
-3.215711706212987
-3.178784873222984
-3.1972482897179852
-3.1972482897179852
-3.1972482897179852
-3.2280206505429785
-3.264947483532982
-3.2341751227079882
-3.25263853920299
-3.25263853920299
-3.191093817552976
-3.264947483532982
-3.2957198443579747
-3.191093817552976
-3.154166984562973
-3.092622262912931
-3.1110856794079322
-3.092622262912931
-3.0864677907479487
-3.0864677907479487
-3.0618499020879373
-3.074158846417929
-3.1233946237379517
-3.1049312072429505
-3.0680043742529195
-3.117240151572942
-3.3203377330179857
-3.1664759288929645
-3.1295490959029335
-3.154166984562973
-3.178784873222984
-3.1480125123979352
-3.1233946237379517
-3.0987767350779407
-3.1110856794079322
-3.1233946237379517
-3.074158846417929
-3.0864677907479487
-3.055695429922928
-2.778744182497905
-2.4894839907428636
-3.0864677907479487
-2.9572238752829105
-3.117240151572942
-3.369573510338009
-3.092622262912931
-3.049540957757918
-3.043386485592936
-3.0618499020879373
-3.0249230690979347
-3.043386485592936
-3.0680043742529195
-3.018768596932925
-2.975687291777912
-3.160321456727955
-3.0987767350779407
-3.0680043742529195
-3.074158846417929
-3.074158846417929
-3.1110856794079322
-3.0987767350779407
-3.092622262912931
-3.074158846417929
-3.1049312072429505
-3.0864677907479487
-3.037232013427927
-3.037232013427927
-2.9633783474479203
-2.600264489712873
-1.437069250527695
-1.141654586607671
-1.25243508557768
-1.3816790010426905
-1.504768444342719
-1.6032399989827366
-1.7017115536227536
-1.7201749701177547
-1.8248009969227534
-1.89865466290276
-1.954044912387765
-2.0278985783677985
-2.0955977721827947
-2.224841687647805
-2.329467714452832
-2.4279392690928487
-2.483329518577854
-2.446402685587851
-2.495638462907845
-2.4525571577528327
-2.55102871239285
-2.655654739197877
-2.8279799598179
-3.3511100938430074
-4.009638615498079
-4.009638615498079
-3.9665573103430942
-3.9419394216830828
-3.8311589227130733
-3.264947483532982
-2.083288827852803
-3.1664759288929645
-3.289565372192993
-3.369573510338009
-3.363419038172999
-3.3326466773480057
-3.868085755703077
-4.625085831998166
-3.701915007248036
-3.406500343328012
-3.2957198443579747
-3.3203377330179857
-3.344955621677997
-3.301874316522985
-3.2834109000279827
-3.2834109000279827
-3.264947483532982
-3.258793011367972
-3.264947483532982
-3.24648406703798
-3.2280206505429785
-3.2034027618829675
-3.1972482897179852
-3.2034027618829675
-3.1357035680679433
-3.0987767350779407
-3.2341751227079882
-3.172630401057975
-3.191093817552976
-3.172630401057975
-3.172630401057975
-3.1664759288929645
-3.172630401057975
-3.1480125123979352
-3.1295490959029335
-3.1664759288929645
-3.141858040232953
-3.1295490959029335
-3.080313318582939
-3.074158846417929
-3.1972482897179852
-3.0987767350779407
-3.0987767350779407
-3.1049312072429505
-3.1233946237379517
-3.092622262912931
-3.074158846417929
-3.074158846417929
-3.092622262912931
-3.092622262912931
-3.0987767350779407
-3.1049312072429505
-3.055695429922928
-3.074158846417929
-3.0987767350779407
-3.055695429922928
-3.0680043742529195
-3.043386485592936
-3.037232013427927
-3.037232013427927
-3.049540957757918
-3.074158846417929
-3.055695429922928
-2.618727906207874
-3.0987767350779407
-3.468045064977998
-3.1049312072429505
-2.858752320642893
-2.901833625797906
-2.624882378372884
-1.9417359680577726
-2.544874240227868
-2.858752320642893
-2.9633783474479203
-2.981841763942921
-2.975687291777912
-3.043386485592936
-3.9111670608580615
-4.151191475293109
-3.308028788687994
-3.1480125123979352
-3.2095572340479768
-3.38803692683301
-3.160321456727955
-3.0864677907479487
-3.080313318582939
-3.092622262912931
-3.074158846417929
-3.0680043742529195
-3.0864677907479487
-3.0680043742529195
-3.080313318582939
-3.049540957757918
-3.0249230690979347
-3.049540957757918
-2.9141425701278982
-2.7848986546628876
-3.0126141247679152
-3.0249230690979347
-3.0249230690979347
-3.049540957757918
-3.018768596932925
-3.006459652602933
-3.0249230690979347
-3.0003051804379233
-3.0126141247679152
-3.0310775412629165
-2.981841763942921
-2.9633783474479203
-3.0126141247679152
-3.301874316522985
-3.172630401057975
-3.018768596932925
-2.9879962361079313
-3.0126141247679152
-3.018768596932925
-1.9048091350677696
-3.074158846417929
-3.7511507845680576
-3.1295490959029335
-3.0310775412629165
-2.680272627857888
-1.8063375804277528
-2.434093741257831
-3.3141832608529764
-4.17580936395312
-3.289565372192993
-3.037232013427927
-3.0249230690979347
-2.9879962361079313
-2.981841763942921
-3.0126141247679152
-3.0003051804379233
-2.9510694031179288
-2.9387604587879093
-2.9633783474479203
-2.9387604587879093
-2.901833625797906
-3.0864677907479487
-3.117240151572942
-2.9572238752829105
-2.9141425701278982
-2.9141425701278982
-2.901833625797906
-2.8895246814679143
-1.1170366979476598
5.492866407263264
0.5631342030975872
-2.0586709391927913
-2.483329518577854
-2.6618092113628857
-2.704890516517872
-2.563337656722869
-2.729508405177883
-2.8279799598179
-2.8649067928079033
-2.821825487652891
-2.8033620711578893
-2.821825487652891
-2.8464433763129016
-2.8649067928079033
-2.883370209302905
-2.877215737137895
-2.877215737137895
-2.895679153632896
-2.877215737137895
-2.8525978484779113
-2.9879962361079313
-2.975687291777912
-2.9572238752829105
-2.9264515144579173
-3.0310775412629165
-2.9572238752829105
-2.877215737137895
-2.9141425701278982
-2.975687291777912
-2.96953281961293
-2.9572238752829105
-2.944914930952919
-2.883370209302905
-2.8033620711578893
-2.9572238752829105
-2.932605986622927
-2.907988097962916
-2.858752320642893
-2.403321380432838
-2.8649067928079033
-3.178784873222984
-2.9202970422929075
-2.871061264972913
-2.8895246814679143
-2.8895246814679143
-2.9141425701278982
-2.907988097962916
-2.877215737137895
-2.96953281961293
-2.932605986622927
-2.9202970422929075
-2.9387604587879093
-2.9264515144579173
-2.9141425701278982
-2.9264515144579173
-2.9141425701278982
-2.883370209302905
-2.883370209302905
-2.9141425701278982
-2.9572238752829105
-2.9510694031179288
-2.6987360443528896
-2.200223798987821
-2.729508405177883
-2.871061264972913
-2.8895246814679143
-2.9202970422929075
-2.9202970422929075
-2.9264515144579173
-2.932605986622927
-2.907988097962916
-2.9264515144579173
-2.9202970422929075
-2.907988097962916
-2.932605986622927
-3.0310775412629165
-3.2341751227079882
-3.0618499020879373
-3.006459652602933
-3.037232013427927
-2.96953281961293
-2.9510694031179288
-2.981841763942921
-2.994150708272913
-2.9879962361079313
-2.9572238752829105
-2.944914930952919
-2.994150708272913
-2.975687291777912
-3.0003051804379233
-3.4188092876580036
-3.2341751227079882
-3.074158846417929
-3.055695429922928
-3.018768596932925
-3.006459652602933
-2.674118155692878
-1.8248009969227534
-2.483329518577854
-2.766435238167886
-2.901833625797906
-2.932605986622927
-2.9264515144579173
-3.7511507845680576
-3.9665573103430942
-3.277256427862973
-3.092622262912931
-3.043386485592936
-3.043386485592936
-3.049540957757918
-3.0310775412629165
-3.080313318582939
-3.037232013427927
-2.994150708272913
-3.018768596932925
-3.018768596932925
-2.994150708272913
-2.9264515144579173
-2.944914930952919
-3.055695429922928
-2.981841763942921
-2.981841763942921
-2.994150708272913
-2.9879962361079313
-2.975687291777912
-2.994150708272913
-3.037232013427927
-3.055695429922928
-3.037232013427927
-3.043386485592936
-3.049540957757918
-2.975687291777912
-2.4587116299178424
-2.4402482134228407
-2.901833625797906
-2.944914930952919
-2.9510694031179288
-2.932605986622927
-2.96953281961293
-2.9633783474479203
-2.932605986622927
-2.944914930952919
-3.0618499020879373
-2.9633783474479203
-2.932605986622927
-2.9510694031179288
-3.5726710917830253
-3.935784949518073
-3.215711706212987
-3.055695429922928
-3.055695429922928
-2.9879962361079313
-2.975687291777912
-2.96953281961293
-2.975687291777912
-3.018768596932925
-3.0249230690979347
-2.975687291777912
-2.981841763942921
-2.932605986622927
-2.2925408814628288
-2.8033620711578893
-3.301874316522985
-3.0310775412629165
-2.994150708272913
-2.981841763942921
-2.981841763942921
-2.9633783474479203
-2.9572238752829105
-2.975687291777912
-2.9879962361079313
-3.006459652602933
-3.006459652602933
-2.994150708272913
-2.9387604587879093
-2.96953281961293
-2.9879962361079313
-2.96953281961293
-3.0003051804379233
-3.018768596932925
-3.018768596932925
-3.018768596932925
-2.994150708272913
-3.018768596932925
-3.0126141247679152
-2.981841763942921
-2.994150708272913
-2.981841763942921
-2.9572238752829105
-3.018768596932925
-3.006459652602933
-2.981841763942921
-2.981841763942921
-2.96953281961293
-2.9387604587879093
-2.944914930952919
-2.932605986622927
-2.981841763942921
-2.907988097962916
-2.883370209302905
-2.9572238752829105
-2.944914930952919
-2.877215737137895
-2.8649067928079033
-2.975687291777912
-2.944914930952919
-2.9572238752829105
-2.944914930952919
-2.9572238752829105
-3.0126141247679152
-2.975687291777912
-2.932605986622927
-2.944914930952919
-2.9633783474479203
-2.975687291777912
-2.901833625797906
-2.8649067928079033
-2.858752320642893
-2.612573434042864
-1.3755245288776807
-2.711044988682881
-3.7080694794130453
-3.9419394216830828
-3.1480125123979352
-2.9879962361079313
-2.9572238752829105
-2.944914930952919
-2.9141425701278982
-2.9202970422929075
-2.9510694031179288
-2.858752320642893
-2.8464433763129016
-2.96953281961293
-2.9202970422929075
-2.901833625797906
-2.8464433763129016
-2.7910531268278973
-1.7694107474377496
-1.6217034154777374
-2.704890516517872
-3.0310775412629165
-2.8464433763129016
-2.8279799598179
-2.8525978484779113
-3.043386485592936
-4.145037003128099
-3.5418987309580316
-3.037232013427927
-2.520256351567857
-1.2832074464026733
-1.141654586607671
-1.3016708628976748
-1.510922916507701
-1.6463213041377216
-1.689402609292734
-1.689402609292734
-1.7017115536227536
-1.7447928587777384
-1.7324839144477464
-1.6709391927977324
-1.91096360723278
-1.89865466290276
-1.9232725515627715
-1.990971745377768
-1.966353856717784
-1.9478904402227823
-1.9786628010477763
-2.015589634037779
-2.0340530505327803
-2.070979883522784
-2.064825411357801
-2.083288827852803
-2.052516467027782
-2.009435161872797
-2.1817603824928202
-2.200223798987821
-2.1817603824928202
-2.187914854657802
-2.1817603824928202
-2.224841687647805
-2.200223798987821
-2.1694514381628007
-2.1817603824928202
-2.1817603824928202
-2.2186872154828228
-2.2433051041428067
-2.187914854657802
-2.1571424938328088
-2.1632969659978185
-2.2925408814628288
-2.304849825792821
-2.329467714452832
-2.3663945474428347
-2.4587116299178424
-2.55102871239285
-2.631036850537866
-2.766435238167886
-2.772589710332896
-2.7910531268278973
-2.6987360443528896
-2.2371506319778245
-2.1263701330077875
-2.446402685587851
-2.5141018794028467
-2.6618092113628857
-2.655654739197877
-2.704890516517872
-2.9572238752829105
-3.381882454668
-3.7511507845680576
-3.781923145393051
-3.474199537143008
-3.5418987309580316
-3.5726710917830253
-3.0618499020879373
-3.289565372192993
-3.8865491721980785
-3.38803692683301
-3.092622262912931
-3.172630401057975
-3.191093817552976
-3.215711706212987
-3.141858040232953
-3.1480125123979352
-3.1233946237379517
-3.141858040232953
-3.1049312072429505
-3.172630401057975
-3.2341751227079882
-3.2095572340479768
-2.9202970422929075
-3.1480125123979352
-3.326492205182996
-3.38803692683301
-3.38803692683301
-3.308028788687994
-3.3326466773480057
-3.461890592813016
-3.511126370133011
-3.437272704153005
-3.006459652602933
-1.8001831082627426
-3.1295490959029335
-3.184939345387966
-3.301874316522985
-3.3511100938430074
-3.357264566007989
-4.366598001068144
-4.0896467536430965
-3.424963759823013
-3.344955621677997
-3.3141832608529764
-3.289565372192993
-3.301874316522985
-3.289565372192993
-3.24648406703798
-3.25263853920299
-3.2095572340479768
-2.8033620711578893
-2.8279799598179
-3.172630401057975
-3.2218661783779687
-3.2341751227079882
-3.277256427862973
-3.2834109000279827
-3.301874316522985
-3.301874316522985
-3.338801149512988
-3.375727982502991
-3.4865084814730274
-3.394191398997992
-3.412654815492993
-3.732687368073057
-3.9911751990030773
-3.640370285598049
-3.548053203123014
-3.492662953638009
-3.4803540093080176
-3.468045064977998
-3.4557361206480066
-3.4311182319879947
-3.412654815492993
-3.400345871163002
-3.357264566007989
-3.3203377330179857
-3.2711019556979917
-3.25263853920299
-3.301874316522985
-3.308028788687994
-3.338801149512988
-3.338801149512988
-3.369573510338009
-3.4311182319879947
-3.394191398997992
-3.369573510338009
-3.38803692683301
-3.375727982502991
-3.338801149512988
-3.289565372192993
-3.2341751227079882
-3.215711706212987
-3.25263853920299
-3.178784873222984
-3.0680043742529195
-2.6371913227028756
-3.1110856794079322
-3.449581648482997
-3.1480125123979352
-3.049540957757918
-3.0249230690979347
-2.944914930952919
-2.895679153632896
-2.907988097962916
-2.8649067928079033
-2.8464433763129016
-2.8279799598179
-2.8464433763129016
-2.8525978484779113
-2.8402889041478923
-2.7910531268278973
-2.797207598992907
-2.821825487652891
-2.8095165433228986
-2.8033620711578893
-2.821825487652891
-2.8525978484779113
-2.871061264972913
-2.883370209302905
-2.895679153632896
-2.9264515144579173
-3.0003051804379233
-3.006459652602933
-3.006459652602933
-3.0249230690979347
-3.0249230690979347
-3.055695429922928
-3.055695429922928
-3.0987767350779407
-3.1049312072429505
-3.1233946237379517
-3.1110856794079322
-3.1049312072429505
-3.0864677907479487
-3.0680043742529195
-3.1664759288929645
-3.1049312072429505
-3.1295490959029335
-3.160321456727955
-3.141858040232953
-3.1357035680679433
-3.1972482897179852
-3.191093817552976
-3.2218661783779687
-3.215711706212987
-3.2034027618829675
-3.215711706212987
-3.178784873222984
-3.178784873222984
-3.258793011367972
-3.2034027618829675
-3.1664759288929645
-3.154166984562973
-2.8341344319829105
-1.972508328882766
-2.754126293837894
-4.101955697973114
-3.8865491721980785
-3.301874316522985
-3.2280206505429785
-3.2218661783779687
-3.1664759288929645
-3.0864677907479487
-3.24648406703798
-3.178784873222984
-3.191093817552976
-3.2218661783779687
-3.1972482897179852
-3.2218661783779687
-3.2341751227079882
-3.2403295948729705
-3.2280206505429785
-3.2341751227079882
-3.2341751227079882
-3.2403295948729705
-3.172630401057975
-3.160321456727955
-3.326492205182996
-3.264947483532982
-3.308028788687994
-3.215711706212987
-3.172630401057975
-3.191093817552976
-3.2280206505429785
-3.215711706212987
-3.2280206505429785
-3.2218661783779687
-3.191093817552976
-3.258793011367972
-3.1972482897179852
-3.0864677907479487
-3.25263853920299
-3.25263853920299
-3.2218661783779687
-3.184939345387966
-3.178784873222984
-3.184939345387966
-3.172630401057975
-3.154166984562973
-3.172630401057975
-3.2095572340479768
-3.215711706212987
-3.191093817552976
-3.160321456727955
-3.049540957757918
-2.8525978484779113
-3.1049312072429505
-3.2095572340479768
-3.2218661783779687
-3.172630401057975
-3.191093817552976
-3.1972482897179852
-3.154166984562973
-3.160321456727955
-3.1357035680679433
-3.1110856794079322
-3.0864677907479487
-2.649500267032867
-3.2280206505429785
-3.855776811373057
-3.326492205182996
-3.1664759288929645
-3.160321456727955
-3.1480125123979352
-3.154166984562973
-3.154166984562973
-3.178784873222984
-3.154166984562973
-3.1357035680679433
-3.117240151572942
-3.0987767350779407
-3.092622262912931
-3.092622262912931
-3.172630401057975
-3.215711706212987
-3.0987767350779407
-3.043386485592936
-3.0680043742529195
-3.1110856794079322
-3.0680043742529195
-3.0618499020879373
-3.080313318582939
-2.7910531268278973
-1.9355814958927628
-2.563337656722869
-2.883370209302905
-2.944914930952919
-2.975687291777912
-3.074158846417929
-3.080313318582939
-3.75730525673304
-4.2435085577681155
-3.400345871163002
-3.172630401057975
-3.141858040232953
-3.141858040232953
-3.1357035680679433
-3.1233946237379517
-3.0987767350779407
-3.1295490959029335
-3.0618499020879373
-3.043386485592936
-3.178784873222984
-3.117240151572942
-3.092622262912931
-3.092622262912931
-3.1110856794079322
-3.0864677907479487
-3.1049312072429505
-3.1357035680679433
-3.141858040232953
-3.1357035680679433
-3.154166984562973
-3.117240151572942
-3.074158846417929
-2.507947407237865
-1.4432237226927047
-2.8402889041478923
-3.0003051804379233
-3.037232013427927
-3.049540957757918
-3.2834109000279827
-4.341980112408136
-3.7449963124030474
-3.2403295948729705
-3.117240151572942
-3.0987767350779407
-3.0864677907479487
-3.037232013427927
-3.184939345387966
-3.3141832608529764
-3.178784873222984
-3.0987767350779407
-3.0680043742529195
-3.0864677907479487
-3.0987767350779407
-3.1110856794079322
-3.1049312072429505
-3.055695429922928
-3.080313318582939
-3.080313318582939
-3.080313318582939
-3.037232013427927
-2.994150708272913
-3.154166984562973
-3.1295490959029335
-3.0618499020879373
-3.080313318582939
-3.0680043742529195
-3.074158846417929
-3.049540957757918
-3.049540957757918
-3.037232013427927
-3.080313318582939
-3.0864677907479487
-3.043386485592936
-2.994150708272913
-2.877215737137895
-2.674118155692878
-2.8402889041478923
-2.9879962361079313
-2.981841763942921
-3.037232013427927
-3.0003051804379233
-2.981841763942921
-2.994150708272913
-3.0126141247679152
-2.975687291777912
-2.975687291777912
-3.006459652602933
-2.981841763942921
-3.043386485592936
-3.326492205182996
-3.1049312072429505
-2.9879962361079313
-2.96953281961293
-2.975687291777912
-2.944914930952919
-2.901833625797906
-2.477175046412844
-2.981841763942921
-3.3326466773480057
-3.0618499020879373
-2.975687291777912
-2.9572238752829105
-2.9510694031179288
-3.0618499020879373
-3.074158846417929
-3.0003051804379233
-3.0126141247679152
-3.018768596932925
-3.018768596932925
-3.074158846417929
-2.994150708272913
-2.9633783474479203
-3.018768596932925
-3.006459652602933
-3.006459652602933
-3.0310775412629165
-2.975687291777912
-2.895679153632896
-3.0126141247679152
-3.0249230690979347
-3.0618499020879373
-3.0310775412629165
-3.0126141247679152
-3.049540957757918
-3.043386485592936
-3.018768596932925
-3.0003051804379233
-3.0249230690979347
-3.0310775412629165
-3.037232013427927
-3.0249230690979347
-3.092622262912931
-3.2095572340479768
-3.1233946237379517
-3.1110856794079322
-3.1233946237379517
-3.1233946237379517
-3.0864677907479487
-3.0864677907479487
-3.0987767350779407
-3.0864677907479487
-3.074158846417929
-3.0987767350779407
-3.1110856794079322
-3.0618499020879373
-3.0249230690979347
-3.1480125123979352
-3.074158846417929
-3.1110856794079322
-3.1110856794079322
-3.117240151572942
-3.117240151572942
-3.117240151572942
-3.154166984562973
-2.747971821672884
-1.5970855268177266
-3.1480125123979352
-4.311207751583139
-3.5849800361130173
-3.074158846417929
-3.160321456727955
-3.117240151572942
-3.092622262912931
-3.092622262912931
-3.2034027618829675
-3.160321456727955
-3.0987767350779407
-3.1357035680679433
-3.1233946237379517
-3.117240151572942
-3.0864677907479487
-3.0680043742529195
-3.074158846417929
-3.074158846417929
-3.191093817552976
-3.1049312072429505
-3.0864677907479487
-3.092622262912931
-3.0864677907479487
-3.074158846417929
-3.092622262912931
-3.1295490959029335
-3.1295490959029335
-3.1110856794079322
-3.117240151572942
-3.0987767350779407
-3.0680043742529195
-2.871061264972913
-2.612573434042864
-2.944914930952919
-3.043386485592936
-3.049540957757918
-3.0680043742529195
-3.080313318582939
-3.0987767350779407
-3.0864677907479487
-3.049540957757918
-3.080313318582939
-3.117240151572942
-3.1357035680679433
-3.1049312072429505
-3.172630401057975
-3.634215813433039
-3.3511100938430074
-3.154166984562973
-3.1049312072429505
-3.0987767350779407
-3.1295490959029335
-3.117240151572942
-3.080313318582939
-3.092622262912931
-3.1110856794079322
-3.0680043742529195
-3.074158846417929
-3.0618499020879373
-3.043386485592936
-3.074158846417929
-3.074158846417929
-2.612573434042864
-3.117240151572942
-3.437272704153005
-3.160321456727955
-3.074158846417929
-3.074158846417929
-3.0864677907479487
-3.080313318582939
-3.0864677907479487
-3.1295490959029335
-3.0987767350779407
-3.049540957757918
-3.006459652602933
-3.141858040232953
-3.1110856794079322
-3.0987767350779407
-3.074158846417929
-3.049540957757918
-3.080313318582939
-3.0864677907479487
-3.0680043742529195
-3.0618499020879373
-3.080313318582939
-3.092622262912931
-3.092622262912931
-3.0310775412629165
-2.4402482134228407
-2.6064189618778553
-2.975687291777912
-3.0310775412629165
-3.049540957757918
-3.049540957757918
-3.0680043742529195
-3.055695429922928
-3.0864677907479487
-3.1049312072429505
-3.092622262912931
-3.080313318582939
-3.092622262912931
-3.074158846417929
-3.6465247577630313
-3.652679229928041
-3.2341751227079882
-3.1357035680679433
-3.1110856794079322
-3.117240151572942
-3.1049312072429505
-3.1295490959029335
-3.1357035680679433
-3.0987767350779407
-3.080313318582939
-3.1049312072429505
-3.092622262912931
-3.0618499020879373
-3.1295490959029335
-3.264947483532982
-3.1664759288929645
-3.1049312072429505
-2.723353933012873
-1.5540042216627135
-2.9141425701278982
-3.0310775412629165
-3.037232013427927
-3.080313318582939
-3.511126370133011
-4.41583377838814
-3.5418987309580316
-3.191093817552976
-3.055695429922928
-3.172630401057975
-3.154166984562973
-3.141858040232953
-3.160321456727955
-3.1049312072429505
-3.0680043742529195
-3.1049312072429505
-3.1049312072429505
-3.074158846417929
-3.0680043742529195
-3.0618499020879373
-3.055695429922928
-3.0249230690979347
-2.9879962361079313
-2.96953281961293
-3.074158846417929
-3.0864677907479487
-3.080313318582939
-3.1049312072429505
-3.1295490959029335
-3.0987767350779407
-3.0680043742529195
-3.0618499020879373
-3.0864677907479487
-3.092622262912931
-3.0864677907479487
-3.0249230690979347
-2.064825411357801
-2.0340530505327803
-2.9141425701278982
-3.308028788687994
-3.0618499020879373
-3.037232013427927
-3.043386485592936
-3.1664759288929645
-4.261971974263118
-3.781923145393051
-3.2403295948729705
-3.160321456727955
-3.117240151572942
-3.0987767350779407
-3.0864677907479487
-3.0987767350779407
-3.1295490959029335
-3.2280206505429785
-3.0987767350779407
-3.117240151572942
-3.0987767350779407
-3.092622262912931
-3.1295490959029335
-3.184939345387966
-3.117240151572942
-3.0864677907479487
-3.1480125123979352
-3.1480125123979352
-3.080313318582939
-3.1233946237379517
-3.2711019556979917
-3.2341751227079882
-3.184939345387966
-3.2095572340479768
-3.2034027618829675
-3.184939345387966
-3.1664759288929645
-3.184939345387966
-3.178784873222984
-3.1664759288929645
-3.184939345387966
-3.141858040232953
-3.092622262912931
-3.1233946237379517
-3.2280206505429785
-3.1233946237379517
-3.141858040232953
-3.1480125123979352
-3.141858040232953
-3.160321456727955
-3.160321456727955
-3.172630401057975
-3.2034027618829675
-3.184939345387966
-3.191093817552976
-3.1664759288929645
-3.092622262912931
-2.9879962361079313
-3.043386485592936
-3.1233946237379517
-3.141858040232953
-3.1110856794079322
-3.0864677907479487
-2.7910531268278973
-2.7171994608478913
-3.4865084814730274
-3.215711706212987
-3.080313318582939
-3.0680043742529195
-3.0680043742529195
-3.018768596932925
-3.092622262912931
-3.2218661783779687
-3.0987767350779407
-3.055695429922928
-3.055695429922928
-2.9879962361079313
-2.6371913227028756
-2.858752320642893
-3.0310775412629165
-3.055695429922928
-3.0310775412629165
-3.018768596932925
-3.0310775412629165
-2.6433457948678853
-1.5232318608377204
-3.38803692683301
-4.280435390758119
-3.449581648482997
-3.1664759288929645
-3.0864677907479487
-3.0249230690979347
-3.018768596932925
-3.043386485592936
-3.018768596932925
-3.049540957757918
-3.049540957757918
-3.037232013427927
-3.0003051804379233
-2.9633783474479203
-3.037232013427927
-3.0249230690979347
-3.006459652602933
-3.0126141247679152
-3.0126141247679152
-3.006459652602933
-3.0249230690979347
-3.049540957757918
-3.0618499020879373
-3.0680043742529195
-3.018768596932925
-3.0310775412629165
-3.049540957757918
-3.018768596932925
-3.1295490959029335
-3.141858040232953
-3.092622262912931
-3.0987767350779407
-3.0618499020879373
-3.055695429922928
-3.080313318582939
-3.074158846417929
-3.074158846417929
-3.037232013427927
-3.0310775412629165
-3.092622262912931
-3.055695429922928
-3.006459652602933
-3.006459652602933
-3.055695429922928
-3.043386485592936
-3.049540957757918
-3.0310775412629165
-3.074158846417929
-3.049540957757918
-3.037232013427927
-3.0680043742529195
-3.074158846417929
-3.0680043742529195
-3.037232013427927
-3.0249230690979347
-3.0864677907479487
-3.018768596932925
-3.055695429922928
-3.092622262912931
-3.0618499020879373
-3.037232013427927
-3.049540957757918
-2.600264489712873
-3.049540957757918
-3.363419038172999
-3.0987767350779407
-3.0249230690979347
-3.006459652602933
-3.0003051804379233
-2.9633783474479203
-2.907988097962916
-2.981841763942921
-2.9633783474479203
-3.0003051804379233
-2.981841763942921
-2.9510694031179288
-2.9387604587879093
-2.9510694031179288
-2.9510694031179288
-2.9264515144579173
-2.9387604587879093
-2.944914930952919
-2.9510694031179288
-2.895679153632896
-2.9141425701278982
-2.797207598992907
-2.2186872154828228
-2.3171587701228398
-1.91096360723278
-1.849418885582765
-1.990971745377768
-2.1017522443478045
-2.0955977721827947
-2.150988021667799
-2.2371506319778245
-2.1817603824928202
-2.1632969659978185
-2.1571424938328088
-2.150988021667799
-2.3233132422878215
-2.298695353627811
-2.329467714452832
-2.391012436102846
-2.4156303247628297
-2.403321380432838
-2.3971669082678284
-2.3848579639378364
-2.3848579639378364
-2.667963683527869
-2.96953281961293
-3.338801149512988
-3.5234353144630304
-3.449581648482997
-3.437272704153005
-3.3203377330179857
-3.1110856794079322
-2.96953281961293
-2.735662877342893
-2.600264489712873
-2.3540856031128428
-1.6217034154777374
-0.3538821494875609
-1.7201749701177547
-1.9478904402227823
-2.0278985783677985
-2.0278985783677985
-2.8033620711578893
-3.578825563948035
-3.074158846417929
-3.394191398997992
-3.5234353144630304
-3.517280842298021
-3.412654815492993
-3.24648406703798
-3.1972482897179852
-3.055695429922928
-3.074158846417929
-3.092622262912931
-2.9879962361079313
-3.049540957757918
-3.049540957757918
-3.172630401057975
-3.38803692683301
-3.369573510338009
-3.2834109000279827
-3.2280206505429785
-3.2280206505429785
-3.2280206505429785
-3.2711019556979917
-3.301874316522985
-3.2957198443579747
-3.2711019556979917
-3.289565372192993
-3.277256427862973
-3.1972482897179852
-2.8895246814679143
-3.1049312072429505
-3.2403295948729705
-3.25263853920299
-3.2403295948729705
-3.2095572340479768
-3.215711706212987
-3.215711706212987
-3.1972482897179852
-3.1664759288929645
-3.1664759288929645
-3.141858040232953
-3.117240151572942
-3.1233946237379517
-3.4988174258030194
-3.394191398997992
-3.2034027618829675
-3.1480125123979352
-2.766435238167886
-3.184939345387966
-3.4188092876580036
-3.184939345387966
-3.1357035680679433
-3.141858040232953
-3.0864677907479487
-3.0310775412629165
-3.0680043742529195
-3.074158846417929
-3.2280206505429785
-2.8279799598179
-3.1110856794079322
-3.4188092876580036
-3.2095572340479768
-3.037232013427927
-2.9879962361079313
-3.0680043742529195
-3.0310775412629165
-3.0249230690979347
-3.0003051804379233
-3.0618499020879373
-3.043386485592936
-2.9510694031179288
-2.3233132422878215
-2.5325652958978484
-2.9202970422929075
-2.96953281961293
-2.975687291777912
-2.9879962361079313
-2.981841763942921
-2.9879962361079313
-2.932605986622927
-2.981841763942921
-3.0126141247679152
-2.9879962361079313
-2.975687291777912
-2.975687291777912
-3.609597924773028
-3.8434678670430653
-3.2280206505429785
-3.092622262912931
-3.0618499020879373
-3.043386485592936
-2.994150708272913
-2.994150708272913
-2.9879962361079313
-3.0126141247679152
-2.994150708272913
-3.0003051804379233
-3.0003051804379233
-2.9879962361079313
-2.7418173495078744
-2.6618092113628857
-2.9264515144579173
-2.797207598992907
-1.5293863330027024
-2.674118155692878
-2.9387604587879093
-2.994150708272913
-3.0126141247679152
-2.994150708272913
-3.0126141247679152
-3.548053203123014
-4.311207751583139
-3.381882454668
-3.0987767350779407
-3.2341751227079882
-3.178784873222984
-2.7171994608478913
-1.5170773886727107
-3.578825563948035
-4.114264642303106
-3.2834109000279827
-3.0864677907479487
-3.080313318582939
-3.049540957757918
-3.0249230690979347
-3.0126141247679152
-3.0249230690979347
-2.944914930952919
-2.8402889041478923
-2.994150708272913
-3.0310775412629165
-3.0680043742529195
-3.0680043742529195
-3.0864677907479487
-3.0864677907479487
-3.1049312072429505
-3.0680043742529195
-3.0618499020879373
-3.074158846417929
-3.0864677907479487
-3.1295490959029335
-3.191093817552976
-3.381882454668
-3.289565372192993
-3.2403295948729705
-3.1972482897179852
-3.178784873222984
-3.2034027618829675
-3.215711706212987
-3.2280206505429785
-3.1972482897179852
-3.141858040232953
-2.8033620711578893
-3.258793011367972
-3.357264566007989
-3.2095572340479768
-2.877215737137895
-3.1357035680679433
-3.184939345387966
-3.2034027618829675
-3.25263853920299
-3.258793011367972
-3.2403295948729705
-3.2341751227079882
-3.2341751227079882
-3.2218661783779687
-3.160321456727955
-3.172630401057975
-3.191093817552976
-3.172630401057975
-3.5418987309580316
-3.4865084814730274
-3.258793011367972
-3.2095572340479768
-3.2280206505429785
-3.1972482897179852
-3.191093817552976
-3.2095572340479768
-3.1664759288929645
-3.1049312072429505
-2.6618092113628857
-3.184939345387966
-3.492662953638009
-3.117240151572942
-3.0249230690979347
-3.154166984562973
-3.0987767350779407
-3.080313318582939
-3.074158846417929
-3.074158846417929
-3.080313318582939
-3.074158846417929
-3.0987767350779407
-3.1357035680679433
-3.1480125123979352
-3.1233946237379517
-3.1110856794079322
-3.1233946237379517
-3.1049312072429505
-3.1049312072429505
-3.0864677907479487
-3.1357035680679433
-3.1480125123979352
-3.1110856794079322
-3.0864677907479487
-3.1480125123979352
-3.1233946237379517
-3.080313318582939
-3.0864677907479487
-3.1110856794079322
-3.1233946237379517
-3.074158846417929
-3.1295490959029335
-3.2280206505429785
-3.1233946237379517
-3.092622262912931
-3.074158846417929
-3.0618499020879373
-3.0864677907479487
-3.0864677907479487
-2.747971821672884
-3.1049312072429505
-3.3141832608529764
-3.092622262912931
-3.043386485592936
-3.0003051804379233
-2.944914930952919
-3.0249230690979347
-3.049540957757918
-3.0003051804379233
-3.006459652602933
-3.043386485592936
-3.043386485592936
-3.055695429922928
-3.049540957757918
-3.0618499020879373
-3.0618499020879373
-3.043386485592936
-2.7848986546628876
-1.954044912387765
-2.55718318455786
-3.191093817552976
-3.1295490959029335
-3.074158846417929
-3.972711782508076
-3.9419394216830828
-3.2034027618829675
-3.037232013427927
-2.9633783474479203
-2.9572238752829105
-2.9510694031179288
-2.9572238752829105
-2.9510694031179288
-2.9264515144579173
-2.858752320642893
-2.883370209302905
-2.981841763942921
-2.9264515144579173
-2.932605986622927
-2.9387604587879093
-2.883370209302905
-2.9141425701278982
-2.9264515144579173
-2.895679153632896
-2.9141425701278982
-2.901833625797906
-2.8649067928079033
-2.8649067928079033
-2.797207598992907
-2.55718318455786
-2.778744182497905
-2.8279799598179
-2.8279799598179
-2.858752320642893
-2.8279799598179
-2.8895246814679143
-2.8525978484779113
-2.821825487652891
-2.907988097962916
-2.9387604587879093
-2.9510694031179288
-2.944914930952919
-2.895679153632896
-2.901833625797906
-2.9633783474479203
-2.907988097962916
-2.907988097962916
-2.9387604587879093
-2.9572238752829105
-2.9572238752829105
-2.96953281961293
-2.9387604587879093
-2.9572238752829105
-2.96953281961293
-2.9633783474479203
-2.9202970422929075
-2.877215737137895
-3.074158846417929
-3.141858040232953
-2.883370209302905
-2.8033620711578893
-2.7418173495078744
-2.335622186617841
-2.8464433763129016
-3.184939345387966
-2.9264515144579173
-2.907988097962916
-2.9387604587879093
-2.932605986622927
-2.932605986622927
-2.895679153632896
-2.600264489712873
-2.797207598992907
-2.9572238752829105
-2.9879962361079313
-3.0003051804379233
-3.0003051804379233
-3.037232013427927
-3.0310775412629165
-2.981841763942921
-3.006459652602933
-2.9879962361079313
-2.96953281961293
-2.994150708272913
-3.0003051804379233
-2.932605986622927
-3.049540957757918
-3.0249230690979347
-2.9879962361079313
-2.9879962361079313
-3.0126141247679152
-2.994150708272913
-3.006459652602933
-2.994150708272913
-3.006459652602933
-3.0126141247679152
-3.0126141247679152
-3.0126141247679152
-3.006459652602933
-3.018768596932925
-3.191093817552976
-3.0987767350779407
-3.0618499020879373
-3.0864677907479487
-3.0680043742529195
-3.049540957757918
-3.037232013427927
-3.074158846417929
-3.1110856794079322
-3.0680043742529195
-3.043386485592936
-3.055695429922928
-3.0680043742529195
-2.871061264972913
-2.5325652958978484
-2.932605986622927
-3.0310775412629165
-3.049540957757918
-3.092622262912931
-3.1049312072429505
-2.8464433763129016
-2.0955977721827947
-3.6834515907530343
-3.935784949518073
-3.3141832608529764
-3.184939345387966
-3.1049312072429505
-3.191093817552976
-3.578825563948035
-3.3326466773480057
-3.1664759288929645
-3.1480125123979352
-3.141858040232953
-3.1357035680679433
-3.1480125123979352
-3.1233946237379517
-3.1295490959029335
-3.184939345387966
-3.172630401057975
-3.1233946237379517
-3.1110856794079322
-3.1233946237379517
-3.215711706212987
-3.2280206505429785
-3.172630401057975
-3.191093817552976
-3.2034027618829675
-3.178784873222984
-3.172630401057975
-3.1972482897179852
-3.191093817552976
-3.1664759288929645
-3.1295490959029335
-2.778744182497905
-3.2095572340479768
-3.375727982502991
-2.901833625797906
-3.049540957757918
-3.191093817552976
-3.184939345387966
-3.191093817552976
-3.191093817552976
-3.191093817552976
-3.172630401057975
-3.191093817552976
-3.178784873222984
-3.1480125123979352
-3.1110856794079322
-3.117240151572942
-3.092622262912931
-3.424963759823013
-3.424963759823013
-3.1480125123979352
-3.1295490959029335
-3.141858040232953
-3.117240151572942
-3.1049312072429505
-2.2740774649678275
-1.7755652196027594
-2.821825487652891
-3.468045064977998
-3.1972482897179852
-3.1110856794079322
-3.080313318582939
-3.2280206505429785
-4.477378500038154
-4.071183337148093
-3.369573510338009
-3.2218661783779687
-3.1972482897179852
-3.184939345387966
-3.154166984562973
-3.141858040232953
-3.1110856794079322
-3.0864677907479487
-3.080313318582939
-3.0864677907479487
-3.037232013427927
-2.821825487652891
-2.883370209302905
-3.0126141247679152
-3.0310775412629165
-3.055695429922928
-3.043386485592936
-3.043386485592936
-3.055695429922928
-3.080313318582939
-3.0680043742529195
-3.1233946237379517
-3.080313318582939
-3.006459652602933
-3.037232013427927
-3.049540957757918
-3.037232013427927
-3.037232013427927
-3.043386485592936
-3.055695429922928
-3.055695429922928
-3.043386485592936
-3.0680043742529195
-3.074158846417929
-3.049540957757918
-3.0680043742529195
-3.049540957757918
-3.074158846417929
-3.055695429922928
-2.9572238752829105
-2.8095165433228986
-3.0249230690979347
-3.0618499020879373
-3.0680043742529195
-3.043386485592936
-3.043386485592936
-3.0864677907479487
-3.055695429922928
-3.049540957757918
-3.037232013427927
-3.049540957757918
-3.037232013427927
-3.018768596932925
-2.932605986622927
-2.932605986622927
-3.1664759288929645
-1.7694107474377496
-2.871061264972913
-2.96953281961293
-2.981841763942921
-3.0987767350779407
-4.16965489178811
-3.788077617558061
-3.2034027618829675
-3.1233946237379517
-3.0864677907479487
-3.037232013427927
-2.994150708272913
-3.0618499020879373
-3.1049312072429505
-3.0126141247679152
-3.006459652602933
-3.037232013427927
-2.9879962361079313
-3.0126141247679152
-3.0249230690979347
-3.006459652602933
-2.9633783474479203
-2.944914930952919
-2.96953281961293
-2.9633783474479203
-2.9510694031179288
-2.932605986622927
-3.0310775412629165
-3.006459652602933
-2.994150708272913
-3.0003051804379233
-3.018768596932925
-3.0310775412629165
-3.0126141247679152
-2.9879962361079313
-3.018768596932925
-3.049540957757918
-3.006459652602933
-3.0003051804379233
-2.981841763942921
-2.981841763942921
-3.1295490959029335
-3.049540957757918
-3.0310775412629165
-3.006459652602933
-3.0310775412629165
-3.0249230690979347
-3.0310775412629165
-3.055695429922928
-3.037232013427927
-3.0126141247679152
-2.981841763942921
-2.994150708272913
-2.981841763942921
-2.68642710002287
-2.704890516517872
-2.907988097962916
-2.9510694031179288
-2.932605986622927
-2.932605986622927
-2.9572238752829105
-2.932605986622927
-2.895679153632896
-2.446402685587851
-2.994150708272913
-3.3326466773480057
-3.049540957757918
-2.9879962361079313
-3.178784873222984
-3.344955621677997
-3.092622262912931
-3.0249230690979347
-3.0126141247679152
-3.0003051804379233
-3.018768596932925
-3.006459652602933
-3.0126141247679152
-3.049540957757918
-3.0310775412629165
-3.0249230690979347
-3.0003051804379233
-2.9510694031179288
-2.907988097962916
-3.1480125123979352
-2.9633783474479203
-2.9202970422929075
-2.981841763942921
-2.96953281961293
-2.9879962361079313
-2.9879962361079313
-2.994150708272913
-3.074158846417929
-3.0003051804379233
-2.9633783474479203
-2.994150708272913
-2.9572238752829105
-2.7848986546628876
-2.501792935072855
-2.883370209302905
-2.975687291777912
-2.9633783474479203
-2.975687291777912
-2.994150708272913
-3.0126141247679152
-2.9879962361079313
-3.0003051804379233
-3.0126141247679152
-3.0126141247679152
-3.049540957757918
-2.994150708272913
-3.1049312072429505
-3.517280842298021
-3.2218661783779687
-3.0680043742529195
-3.037232013427927
-3.043386485592936
-3.037232013427927
-3.0126141247679152
-3.0249230690979347
-3.037232013427927
-3.0126141247679152
-2.723353933012873
-2.04020752269779
-3.7696142010630598
-3.560362147453033
-3.1233946237379517
-3.184939345387966
-3.1295490959029335
-3.0987767350779407
-3.080313318582939
-3.080313318582939
-3.0618499020879373
-3.055695429922928
-3.074158846417929
-3.055695429922928
-3.037232013427927
-3.0680043742529195
-3.080313318582939
-3.1049312072429505
-3.141858040232953
-3.1480125123979352
-3.1295490959029335
-3.074158846417929
-3.074158846417929
-3.0987767350779407
-3.0987767350779407
-3.0618499020879373
-3.080313318582939
-3.117240151572942
-3.0987767350779407
-3.055695429922928
-3.043386485592936
-3.055695429922928
-3.080313318582939
-3.1664759288929645
-3.074158846417929
-3.0864677907479487
-3.074158846417929
-3.092622262912931
-3.0987767350779407
-3.1110856794079322
-3.1049312072429505
-3.0864677907479487
-3.074158846417929
-3.0864677907479487
-3.074158846417929
-3.0126141247679152
-2.9387604587879093
-3.0987767350779407
-3.055695429922928
-3.0249230690979347
-3.018768596932925
-3.049540957757918
-3.0618499020879373
-3.049540957757918
-3.0249230690979347
-3.0003051804379233
-3.049540957757918
-3.043386485592936
-3.0126141247679152
-2.944914930952919
-3.080313318582939
-3.308028788687994
-3.0864677907479487
-2.975687291777912
-2.575646601052861
-3.080313318582939
-3.449581648482997
-3.1972482897179852
-3.1233946237379517
-3.1233946237379517
-3.1049312072429505
-3.080313318582939
-3.0987767350779407
-3.043386485592936
-2.907988097962916
-2.883370209302905
-2.9633783474479203
-3.0126141247679152
-3.043386485592936
-3.043386485592936
-3.018768596932925
-3.049540957757918
-3.0680043742529195
-3.055695429922928
-3.055695429922928
-3.092622262912931
-3.0618499020879373
-3.0249230690979347
-2.9572238752829105
-2.981841763942921
-3.018768596932925
-2.944914930952919
-2.932605986622927
-2.9572238752829105
-2.994150708272913
-3.0126141247679152
-3.006459652602933
-3.0003051804379233
-3.0126141247679152
-3.0249230690979347
-3.018768596932925
-2.9879962361079313
-2.9879962361079313
-3.055695429922928
-3.055695429922928
-3.055695429922928
-3.0618499020879373
-3.0680043742529195
-3.055695429922928
-3.006459652602933
-3.0310775412629165
-3.049540957757918
-3.037232013427927
-3.074158846417929
-3.1110856794079322
-3.0680043742529195
-3.0126141247679152
-2.994150708272913
-3.074158846417929
-3.074158846417929
-3.055695429922928
-3.055695429922928
-2.760280766002876
-1.9355814958927628
-2.563337656722869
-2.877215737137895
-3.0003051804379233
-3.141858040232953
-3.117240151572942
-2.520256351567857
-3.2711019556979917
-3.258793011367972
-3.117240151572942
-3.080313318582939
-3.0680043742529195
-3.4988174258030194
-4.41583377838814
-3.529589786628012
-3.1972482897179852
-3.1972482897179852
-3.1972482897179852
-3.1664759288929645
-3.1295490959029335
-3.141858040232953
-3.154166984562973
-3.172630401057975
-3.154166984562973
-3.1233946237379517
-3.160321456727955
-3.184939345387966
-3.191093817552976
-3.191093817552976
-3.25263853920299
-3.25263853920299
-3.2034027618829675
-3.2034027618829675
-3.2218661783779687
-3.215711706212987
-3.141858040232953
-2.9264515144579173
-3.0864677907479487
-3.1357035680679433
-3.1480125123979352
-3.1664759288929645
-3.184939345387966
-3.184939345387966
-3.178784873222984
-3.2034027618829675
-3.1972482897179852
-3.191093817552976
-3.1972482897179852
-3.1972482897179852
-3.184939345387966
-3.2957198443579747
-3.394191398997992
-3.2034027618829675
-3.2034027618829675
-3.191093817552976
-3.1664759288929645
-3.154166984562973
-3.141858040232953
-3.154166984562973
-3.1480125123979352
-3.1295490959029335
-3.1295490959029335
-3.154166984562973
-3.1664759288929645
-3.154166984562973
-3.2957198443579747
-3.264947483532982
-3.25263853920299
-2.723353933012873
-3.1049312072429505
-3.5418987309580316
-3.277256427862973
-3.2280206505429785
-3.215711706212987
-3.2034027618829675
-3.2034027618829675
-3.160321456727955
-3.1233946237379517
-3.1295490959029335
-3.2403295948729705
-3.184939345387966
-3.1664759288929645
-3.172630401057975
-3.172630401057975
-3.1480125123979352
-3.1295490959029335
-3.1295490959029335
-3.160321456727955
-3.1664759288929645
-3.141858040232953
-3.1664759288929645
-3.1664759288929645
-3.0864677907479487
-3.1664759288929645
-3.2218661783779687
-3.2034027618829675
-3.2218661783779687
-3.2034027618829675
-3.178784873222984
-3.2095572340479768
-3.2034027618829675
-3.172630401057975
-3.160321456727955
-3.1972482897179852
-3.215711706212987
-3.0987767350779407
-3.1295490959029335
-3.172630401057975
-3.1972482897179852
-3.172630401057975
-3.1664759288929645
-3.184939345387966
-3.172630401057975
-3.1972482897179852
-3.2034027618829675
-3.1664759288929645
-3.1233946237379517
-3.1295490959029335
-3.1295490959029335
-3.117240151572942
-3.1049312072429505
-2.754126293837894
-1.9786628010477763
-4.268126446428129
-3.597288980443037
-3.24648406703798
-3.2095572340479768
-3.172630401057975
-3.191093817552976
-3.215711706212987
-2.760280766002876
-3.178784873222984
-3.449581648482997
-3.1664759288929645
-3.080313318582939
-3.074158846417929
-3.178784873222984
-3.1480125123979352
-3.154166984562973
-3.1480125123979352
-3.1233946237379517
-3.1233946237379517
-3.154166984562973
-3.1357035680679433
-3.1233946237379517
-3.1357035680679433
-3.154166984562973
-3.154166984562973
-3.0680043742529195
-3.043386485592936
-3.2403295948729705
-3.141858040232953
-3.092622262912931
-3.074158846417929
-3.1110856794079322
-3.1480125123979352
-3.1295490959029335
-3.1295490959029335
-3.1664759288929645
-3.178784873222984
-3.191093817552976
-3.215711706212987
-3.154166984562973
-3.1110856794079322
-3.2341751227079882
-3.2280206505429785
-3.2341751227079882
-3.2218661783779687
-3.154166984562973
-3.191093817552976
-3.215711706212987
-3.2218661783779687
-3.2095572340479768
-3.1972482897179852
-3.1972482897179852
-3.2034027618829675
-3.178784873222984
-2.8402889041478923
-2.655654739197877
-3.080313318582939
-3.178784873222984
-3.172630401057975
-3.1664759288929645
-3.1972482897179852
-3.172630401057975
-2.772589710332896
-3.184939345387966
-3.504971897968029
-3.2403295948729705
-3.178784873222984
-3.1357035680679433
-3.400345871163002
-3.732687368073057
-3.3203377330179857
-3.2095572340479768
-3.2280206505429785
-3.264947483532982
-3.24648406703798
-3.2280206505429785
-3.258793011367972
-3.2711019556979917
-3.2403295948729705
-3.1972482897179852
-3.2095572340479768
-3.2034027618829675
-3.141858040232953
-3.0680043742529195
-3.1972482897179852
-3.2034027618829675
-3.184939345387966
-3.172630401057975
-3.184939345387966
-3.184939345387966
-3.2034027618829675
-3.1972482897179852
-3.1480125123979352
-3.2034027618829675
-3.184939345387966
-3.117240151572942
-3.1972482897179852
-3.3511100938430074
-3.264947483532982
-3.2341751227079882
-3.191093817552976
-3.2218661783779687
-3.2034027618829675
-3.191093817552976
-3.2095572340479768
-3.215711706212987
-3.24648406703798
-3.2034027618829675
-3.184939345387966
-3.1972482897179852
-3.0987767350779407
-2.4587116299178424
-2.8279799598179
-3.141858040232953
-3.215711706212987
-3.2218661783779687
-3.1972482897179852
-3.2403295948729705
-3.2095572340479768
-3.2403295948729705
-2.9264515144579173
-2.089443300017785
-2.754126293837894
-3.049540957757918
-3.184939345387966
-4.354289056738125
-4.945118384578229
-3.7511507845680576
-3.424963759823013
-3.357264566007989
-3.3326466773480057
-3.326492205182996
-3.3511100938430074
-3.357264566007989
-3.344955621677997
-3.326492205182996
-3.326492205182996
-3.301874316522985
-3.2095572340479768
-2.994150708272913
-3.1049312072429505
-3.172630401057975
-3.264947483532982
-3.289565372192993
-3.258793011367972
-3.24648406703798
-3.2403295948729705
-3.264947483532982
-3.2834109000279827
-3.2834109000279827
-3.277256427862973
-3.301874316522985
-3.25263853920299
-3.437272704153005
-3.4865084814730274
-3.308028788687994
-3.326492205182996
-3.308028788687994
-3.264947483532982
-3.2834109000279827
-3.2834109000279827
-3.2711019556979917
-3.264947483532982
-3.2834109000279827
-3.2957198443579747
-3.2711019556979917
-3.2280206505429785
-3.1110856794079322
-3.160321456727955
-3.264947483532982
-3.277256427862973
-3.25263853920299
-3.258793011367972
-3.301874316522985
-3.3141832608529764
-3.3203377330179857
-3.338801149512988
-3.326492205182996
-3.2711019556979917
-3.2280206505429785
-2.766435238167886
-3.264947483532982
-3.7634597288980496
-3.3141832608529764
-2.747971821672884
-3.2403295948729705
-3.6219068691030203
-3.301874316522985
-3.1972482897179852
-3.2403295948729705
-3.2341751227079882
-3.24648406703798
-3.2403295948729705
-3.2711019556979917
-3.2711019556979917
-3.1110856794079322
-2.587955545382853
-2.1325246051727973
-2.655654739197877
-3.0618499020879373
-3.1233946237379517
-3.172630401057975
-3.24648406703798
-3.258793011367972
-4.145037003128099
-4.181963836118102
-3.4803540093080176
-3.344955621677997
-3.25263853920299
-3.289565372192993
-3.554207675288024
-3.369573510338009
-3.24648406703798
-3.1972482897179852
-3.2218661783779687
-3.2280206505429785
-3.2403295948729705
-3.2280206505429785
-3.1972482897179852
-3.2280206505429785
-3.2095572340479768
-3.178784873222984
-3.1972482897179852
-3.178784873222984
-3.178784873222984
-3.2218661783779687
-3.172630401057975
-3.184939345387966
-3.1972482897179852
-3.172630401057975
-3.184939345387966
-3.191093817552976
-3.172630401057975
-3.1480125123979352
-3.1480125123979352
-3.2834109000279827
-3.1972482897179852
-3.080313318582939
-3.160321456727955
-3.375727982502991
-3.178784873222984
-3.178784873222984
-2.797207598992907
-2.212532743317813
-4.298898807253121
-3.529589786628012
-3.25263853920299
-3.2403295948729705
-3.2834109000279827
-3.277256427862973
-3.258793011367972
-3.2095572340479768
-3.141858040232953
-3.2711019556979917
-3.215711706212987
-3.2095572340479768
-3.2280206505429785
-3.2218661783779687
-3.178784873222984
-3.184939345387966
-3.1664759288929645
-3.191093817552976
-3.184939345387966
-3.178784873222984
-3.191093817552976
-3.117240151572942
-3.055695429922928
-3.2341751227079882
-3.215711706212987
-3.2403295948729705
-3.24648406703798
-3.24648406703798
-3.24648406703798
-3.264947483532982
-3.308028788687994
-3.277256427862973
-3.277256427862973
-3.3141832608529764
-3.289565372192993
-3.184939345387966
-3.092622262912931
-3.25263853920299
-3.301874316522985
-3.258793011367972
-3.24648406703798
-3.2403295948729705
-3.2280206505429785
-3.2218661783779687
-3.2403295948729705
-3.258793011367972
-3.301874316522985
-3.2403295948729705
-3.2341751227079882
-3.2341751227079882
-3.289565372192993
-3.4188092876580036
-3.344955621677997
-3.2957198443579747
-3.277256427862973
-3.24648406703798
-3.2403295948729705
-3.2341751227079882
-3.258793011367972
-3.2711019556979917
-3.2403295948729705
-3.191093817552976
-2.778744182497905
-3.2711019556979917
-3.406500343328012
-2.9879962361079313
-3.24648406703798
-3.258793011367972
-3.2403295948729705
-3.24648406703798
-3.264947483532982
-3.2834109000279827
-3.2280206505429785
-3.2095572340479768
-3.2095572340479768
-3.2095572340479768
-3.191093817552976
-3.1664759288929645
-3.277256427862973
-3.5726710917830253
-3.38803692683301
-3.258793011367972
-3.2341751227079882
-3.277256427862973
-3.2834109000279827
-3.277256427862973
-3.264947483532982
-3.289565372192993
-3.258793011367972
-3.2034027618829675
-3.2341751227079882
-3.25263853920299
-3.2280206505429785
-3.258793011367972
-3.308028788687994
-3.258793011367972
-3.2711019556979917
-3.258793011367972
-3.215711706212987
-3.25263853920299
-3.2218661783779687
-3.2341751227079882
-3.2341751227079882
-3.2280206505429785
-3.2711019556979917
-3.289565372192993
-3.2280206505429785
-3.2095572340479768
-3.301874316522985
-2.9387604587879093
-3.277256427862973
-3.554207675288024
-3.381882454668
-3.369573510338009
-3.326492205182996
-3.2957198443579747
-3.3326466773480057
-3.338801149512988
-3.264947483532982
-3.277256427862973
-2.975687291777912
-2.1017522443478045
-2.8464433763129016
-3.117240151572942
-3.258793011367972
-4.0958012258081045
-4.428142722718159
-3.5911345082780266
-3.4188092876580036
-3.406500343328012
-3.381882454668
-3.308028788687994
-3.3141832608529764
-3.369573510338009
-3.25263853920299
-3.2403295948729705
-3.437272704153005
-3.3203377330179857
-3.308028788687994
-3.308028788687994
-3.326492205182996
-3.3141832608529764
-3.3203377330179857
-3.338801149512988
-3.3203377330179857
-3.344955621677997
-3.369573510338009
-3.326492205182996
-3.2711019556979917
-3.2341751227079882
-3.344955621677997
-3.3203377330179857
-3.2957198443579747
-3.3141832608529764
-3.344955621677997
-3.308028788687994
-3.25263853920299
-3.2834109000279827
-3.338801149512988
-3.3203377330179857
-3.2957198443579747
-3.277256427862973
-3.2957198443579747
-3.2834109000279827
-3.4865084814730274
-3.363419038172999
-3.301874316522985
-3.2957198443579747
-3.258793011367972
-3.2403295948729705
-3.277256427862973
-3.2834109000279827
-3.277256427862973
-3.191093817552976
-2.501792935072855
-2.2063782711528033
-2.2740774649678275
-2.3971669082678284
-2.618727906207874
-2.778744182497905
-2.8649067928079033
-2.981841763942921
-3.160321456727955
-3.172630401057975
-2.723353933012873
-3.1664759288929645
-3.517280842298021
-3.2341751227079882
-3.141858040232953
-3.0618499020879373
-2.9572238752829105
-2.9572238752829105
-3.043386485592936
-2.981841763942921
-2.9633783474479203
-3.006459652602933
-3.006459652602933
-3.0618499020879373
-3.1110856794079322
-3.184939345387966
-3.184939345387966
-3.160321456727955
-3.1664759288929645
-3.172630401057975
-3.141858040232953
-2.994150708272913
-2.9202970422929075
-2.9387604587879093
-2.8464433763129016
-2.8095165433228986
-2.797207598992907
-2.797207598992907
-2.624882378372884
-2.471020574247862
-2.347931130947833
-2.347931130947833
-2.4648661020828517
-2.471020574247862
-2.4648661020828517
-2.3540856031128428
-2.2433051041428067
-2.286386409297819
-2.3233132422878215
-2.3540856031128428
-2.4587116299178424
-2.4894839907428636
-2.477175046412844
-2.5387197680628573
-2.5941100175478624
-2.680272627857888
-2.7910531268278973
-2.797207598992907
-2.7910531268278973
-2.797207598992907
-2.8279799598179
-2.9387604587879093
-2.9510694031179288
-3.055695429922928
-3.1295490959029335
-3.2218661783779687
-3.2957198443579747
-3.338801149512988
-3.006459652602933
-1.8801912464077586
-3.0310775412629165
-3.363419038172999
-3.609597924773028
-3.6219068691030203
-3.6465247577630313
-3.5726710917830253
-3.812695506218072
-4.80971999694821
-4.4835329722031645
-3.8188499783830547
-3.6711426464230414
-3.560362147453033
-3.4865084814730274
-3.492662953638009
-3.474199537143008
-3.4434271763180146
-3.4311182319879947
-3.381882454668
-3.357264566007989
-3.511126370133011
-3.474199537143008
-3.437272704153005
-3.3326466773480057
-1.89865466290276
-2.4525571577528327
-3.474199537143008
-3.609597924773028
-3.38803692683301
-3.308028788687994
-3.326492205182996
-3.634215813433039
-4.625085831998166
-3.806541034053064
-3.517280842298021
-3.449581648482997
-3.4311182319879947
-3.406500343328012
-3.400345871163002
-3.461890592813016
-3.344955621677997
-3.3511100938430074
-3.344955621677997
-3.369573510338009
-3.437272704153005
-3.4311182319879947
-3.369573510338009
-3.172630401057975
-2.9510694031179288
-3.3203377330179857
-3.406500343328012
