4.181963836118102
4.169654891788083
4.200427252613103
4.200427252613103
4.200427252613103
4.1942727804480935
4.200427252613103
4.1942727804480935
4.181963836118102
4.169654891788083
4.1758093639530935
4.188118308283084
4.188118308283084
4.188118308283084
4.188118308283084
4.188118308283084
4.181963836118102
4.188118308283084
4.188118308283084
4.188118308283084
4.188118308283084
4.1942727804480935
4.188118308283084
4.1942727804480935
4.188118308283084
4.1942727804480935
4.200427252613103
4.200427252613103
4.200427252613103
4.200427252613103
4.2065817247780855
4.212736196943095
4.212736196943095
4.218890669108104
4.218890669108104
4.212736196943095
4.212736196943095
4.1942727804480935
4.218890669108104
4.218890669108104
4.1942727804480935
4.181963836118102
4.1942727804480935
4.1942727804480935
4.1942727804480935
4.1942727804480935
4.200427252613103
4.2065817247780855
4.200427252613103
4.1942727804480935
4.1942727804480935
4.1942727804480935
4.1942727804480935
4.188118308283084
4.157345947458091
4.138882530963089
4.151191475293081
4.1942727804480935
4.255817502098108
4.348134584573115
4.428142722718132
4.446606139213133
4.440451667048122
4.37890694539811
4.2681264464281
4.163500419623101
4.101955697973087
4.101955697973087
4.12657358663307
4.151191475293081
4.169654891788083
4.188118308283084
4.1942727804480935
4.2065817247780855
4.200427252613103
4.2065817247780855
4.212736196943095
4.2065817247780855
4.2065817247780855
4.212736196943095
4.218890669108104
4.212736196943095
4.212736196943095
4.212736196943095
4.212736196943095
4.218890669108104
4.218890669108104
4.212736196943095
4.212736196943095
4.218890669108104
4.218890669108104
4.225045141273086
4.231199613438097
4.225045141273086
4.225045141273086
4.231199613438097
4.237354085603107
4.237354085603107
4.237354085603107
4.243508557768089
4.261971974263091
4.2681264464281
4.261971974263091
4.2681264464281
4.2681264464281
4.255817502098108
4.2681264464281
4.2681264464281
4.280435390758092
4.280435390758092
4.2865898629231
4.292744335088111
4.298898807253093
4.298898807253093
4.292744335088111
4.292744335088111
4.305053279418103
4.292744335088111
4.298898807253093
4.2865898629231
4.280435390758092
4.27428091859311
4.261971974263091
4.249663029933098
4.243508557768089
4.231199613438097
4.212736196943095
4.212736196943095
4.200427252613103
4.1942727804480935
4.200427252613103
4.188118308283084
4.181963836118102
4.181963836118102
4.181963836118102
4.181963836118102
4.181963836118102
4.181963836118102
4.1942727804480935
4.188118308283084
4.181963836118102
4.188118308283084
4.200427252613103
4.212736196943095
4.2065817247780855
4.1942727804480935
4.200427252613103
4.188118308283084
4.1758093639530935
4.188118308283084
4.181963836118102
4.188118308283084
4.200427252613103
4.200427252613103
4.1942727804480935
4.1942727804480935
4.200427252613103
4.200427252613103
4.200427252613103
4.188118308283084
4.218890669108104
4.212736196943095
4.212736196943095
4.218890669108104
4.2065817247780855
4.188118308283084
4.188118308283084
4.200427252613103
4.1942727804480935
4.200427252613103
4.2065817247780855
4.200427252613103
4.200427252613103
4.200427252613103
4.2065817247780855
4.200427252613103
4.2065817247780855
4.2065817247780855
4.200427252613103
4.200427252613103
4.200427252613103
4.200427252613103
4.200427252613103
4.200427252613103
4.1942727804480935
4.2065817247780855
4.2065817247780855
4.200427252613103
4.200427252613103
4.212736196943095
4.212736196943095
4.218890669108104
4.218890669108104
4.218890669108104
4.225045141273086
4.218890669108104
4.218890669108104
4.212736196943095
4.212736196943095
4.2065817247780855
4.2065817247780855
4.200427252613103
4.1942727804480935
4.1942727804480935
4.2065817247780855
4.200427252613103
4.200427252613103
4.1942727804480935
4.200427252613103
4.200427252613103
4.1942727804480935
4.200427252613103
4.188118308283084
4.169654891788083
4.145037003128072
4.151191475293081
4.188118308283084
4.249663029933098
4.329671168078114
4.415833778388112
4.434297194883113
4.434297194883113
4.391215889728128
4.305053279418103
4.200427252613103
4.120419114468088
4.101955697973087
4.1327280587980795
4.157345947458091
4.169654891788083
4.1758093639530935
4.181963836118102
4.188118308283084
4.188118308283084
4.188118308283084
4.188118308283084
4.188118308283084
4.188118308283084
4.1942727804480935
4.188118308283084
4.200427252613103
4.200427252613103
4.200427252613103
4.200427252613103
4.200427252613103
4.2065817247780855
4.2065817247780855
4.200427252613103
4.200427252613103
4.200427252613103
4.1942727804480935
4.200427252613103
4.200427252613103
4.2065817247780855
4.212736196943095
4.2065817247780855
4.2065817247780855
4.218890669108104
4.218890669108104
4.218890669108104
4.225045141273086
4.231199613438097
4.237354085603107
4.237354085603107
4.237354085603107
4.243508557768089
4.249663029933098
4.261971974263091
4.261971974263091
4.2681264464281
4.27428091859311
4.27428091859311
4.2681264464281
4.27428091859311
4.2681264464281
4.2681264464281
4.27428091859311
4.261971974263091
4.261971974263091
4.261971974263091
4.243508557768089
4.225045141273086
4.212736196943095
4.200427252613103
4.1942727804480935
4.188118308283084
4.181963836118102
4.1758093639530935
4.169654891788083
4.169654891788083
4.163500419623101
4.163500419623101
4.163500419623101
4.163500419623101
4.163500419623101
4.157345947458091
4.157345947458091
4.157345947458091
4.163500419623101
4.157345947458091
4.163500419623101
4.157345947458091
4.157345947458091
4.163500419623101
4.169654891788083
4.169654891788083
4.163500419623101
4.163500419623101
4.163500419623101
4.163500419623101
4.163500419623101
4.163500419623101
4.1758093639530935
4.163500419623101
4.163500419623101
4.188118308283084
4.181963836118102
4.188118308283084
4.181963836118102
4.181963836118102
4.181963836118102
4.163500419623101
4.151191475293081
4.157345947458091
4.163500419623101
4.169654891788083
4.169654891788083
4.169654891788083
4.1758093639530935
4.1758093639530935
4.169654891788083
4.169654891788083
4.169654891788083
4.1758093639530935
4.169654891788083
4.1758093639530935
4.1758093639530935
4.1758093639530935
4.169654891788083
4.1758093639530935
4.1758093639530935
4.169654891788083
4.1758093639530935
4.1758093639530935
4.1758093639530935
4.1758093639530935
4.1758093639530935
4.181963836118102
4.181963836118102
4.188118308283084
4.188118308283084
4.188118308283084
4.188118308283084
4.188118308283084
4.1942727804480935
4.188118308283084
4.188118308283084
4.1942727804480935
4.188118308283084
4.181963836118102
4.1758093639530935
4.1758093639530935
4.181963836118102
4.188118308283084
4.181963836118102
4.1758093639530935
4.1758093639530935
4.1758093639530935
4.1758093639530935
4.181963836118102
4.1758093639530935
4.1758093639530935
4.169654891788083
4.138882530963089
4.120419114468088
4.12657358663307
4.169654891788083
4.255817502098108
4.341980112408105
4.421988250553122
4.428142722718132
4.421988250553122
4.366598001068117
4.280435390758092
4.1758093639530935
4.101955697973087
4.114264642303079
4.1327280587980795
4.151191475293081
4.163500419623101
4.169654891788083
4.1758093639530935
4.1758093639530935
4.169654891788083
4.1758093639530935
4.181963836118102
4.1758093639530935
4.181963836118102
4.181963836118102
4.181963836118102
4.1758093639530935
4.1758093639530935
4.181963836118102
4.1758093639530935
4.1942727804480935
4.200427252613103
4.188118308283084
4.181963836118102
4.1758093639530935
4.188118308283084
4.181963836118102
4.188118308283084
4.188118308283084
4.188118308283084
4.200427252613103
4.200427252613103
4.200427252613103
4.2065817247780855
4.212736196943095
4.218890669108104
4.225045141273086
4.225045141273086
4.225045141273086
4.231199613438097
4.237354085603107
4.249663029933098
4.255817502098108
4.261971974263091
4.2681264464281
4.27428091859311
4.27428091859311
4.2865898629231
4.280435390758092
4.280435390758092
4.280435390758092
4.2865898629231
4.2865898629231
4.280435390758092
4.2681264464281
4.261971974263091
4.255817502098108
4.243508557768089
4.231199613438097
4.225045141273086
4.200427252613103
4.1942727804480935
4.188118308283084
4.181963836118102
4.1758093639530935
4.1758093639530935
4.169654891788083
4.169654891788083
4.169654891788083
4.169654891788083
4.163500419623101
4.163500419623101
4.169654891788083
4.163500419623101
4.163500419623101
4.1758093639530935
4.163500419623101
4.169654891788083
4.169654891788083
4.163500419623101
4.169654891788083
4.1758093639530935
4.169654891788083
4.1758093639530935
4.1758093639530935
4.169654891788083
4.169654891788083
4.1758093639530935
4.169654891788083
4.1758093639530935
4.169654891788083
4.181963836118102
4.181963836118102
4.1758093639530935
4.1758093639530935
4.188118308283084
4.181963836118102
4.181963836118102
4.188118308283084
4.181963836118102
4.188118308283084
4.188118308283084
4.181963836118102
4.181963836118102
4.188118308283084
4.188118308283084
4.188118308283084
4.1942727804480935
4.1942727804480935
4.188118308283084
4.181963836118102
4.181963836118102
4.181963836118102
4.181963836118102
4.188118308283084
4.181963836118102
4.188118308283084
4.1758093639530935
4.181963836118102
4.188118308283084
4.188118308283084
4.181963836118102
4.188118308283084
4.181963836118102
4.181963836118102
4.188118308283084
4.1942727804480935
4.200427252613103
4.2065817247780855
4.212736196943095
4.200427252613103
4.200427252613103
4.1942727804480935
4.200427252613103
4.188118308283084
4.188118308283084
4.181963836118102
4.188118308283084
4.181963836118102
4.1942727804480935
4.188118308283084
4.1758093639530935
4.1942727804480935
4.200427252613103
4.1942727804480935
4.200427252613103
4.188118308283084
4.188118308283084
4.157345947458091
4.138882530963089
4.114264642303079
4.12657358663307
4.1758093639530935
4.243508557768089
4.335825640243124
4.415833778388112
4.440451667048122
4.434297194883113
4.37890694539811
4.2865898629231
4.188118308283084
4.089646753643067
4.089646753643067
4.1327280587980795
4.145037003128072
4.157345947458091
4.157345947458091
4.169654891788083
4.169654891788083
4.169654891788083
4.1758093639530935
4.181963836118102
4.1758093639530935
4.1758093639530935
4.181963836118102
4.181963836118102
4.181963836118102
4.188118308283084
4.181963836118102
4.188118308283084
4.181963836118102
4.188118308283084
4.181963836118102
4.188118308283084
4.188118308283084
4.188118308283084
4.1942727804480935
4.1942727804480935
4.1942727804480935
4.200427252613103
4.200427252613103
4.2065817247780855
4.2065817247780855
4.212736196943095
4.212736196943095
4.218890669108104
4.225045141273086
4.237354085603107
4.237354085603107
4.243508557768089
4.243508557768089
4.243508557768089
4.255817502098108
4.255817502098108
4.261971974263091
4.2681264464281
4.27428091859311
4.280435390758092
4.280435390758092
4.27428091859311
4.27428091859311
4.27428091859311
4.2681264464281
4.27428091859311
4.2681264464281
4.249663029933098
4.249663029933098
4.231199613438097
4.225045141273086
4.200427252613103
4.188118308283084
4.181963836118102
4.1758093639530935
4.163500419623101
4.157345947458091
4.151191475293081
4.145037003128072
4.151191475293081
4.145037003128072
4.145037003128072
4.145037003128072
4.145037003128072
4.145037003128072
4.145037003128072
4.145037003128072
4.145037003128072
4.145037003128072
4.151191475293081
4.151191475293081
4.151191475293081
4.145037003128072
4.145037003128072
4.138882530963089
4.163500419623101
4.163500419623101
4.163500419623101
4.157345947458091
4.163500419623101
4.157345947458091
4.157345947458091
4.138882530963089
4.145037003128072
4.151191475293081
4.151191475293081
4.151191475293081
4.151191475293081
4.157345947458091
4.157345947458091
4.151191475293081
4.163500419623101
4.163500419623101
4.163500419623101
4.157345947458091
4.145037003128072
4.169654891788083
4.163500419623101
4.145037003128072
4.157345947458091
4.157345947458091
4.163500419623101
4.157345947458091
4.163500419623101
4.163500419623101
4.163500419623101
4.169654891788083
4.169654891788083
4.169654891788083
4.169654891788083
4.157345947458091
4.157345947458091
4.163500419623101
4.169654891788083
4.169654891788083
4.163500419623101
4.169654891788083
4.169654891788083
4.169654891788083
4.169654891788083
4.169654891788083
4.163500419623101
4.181963836118102
4.181963836118102
4.188118308283084
4.188118308283084
4.1942727804480935
4.181963836118102
4.181963836118102
4.1758093639530935
4.169654891788083
4.169654891788083
4.163500419623101
4.163500419623101
4.169654891788083
4.169654891788083
4.163500419623101
4.163500419623101
4.163500419623101
4.163500419623101
4.169654891788083
4.163500419623101
4.169654891788083
4.163500419623101
4.151191475293081
4.12657358663307
4.114264642303079
4.12657358663307
4.181963836118102
4.255817502098108
4.341980112408105
4.40967930622313
4.421988250553122
4.40352483405812
4.335825640243124
4.218890669108104
4.12657358663307
4.065028864983084
4.058874392818074
4.101955697973087
4.12657358663307
4.145037003128072
4.145037003128072
4.151191475293081
4.151191475293081
4.145037003128072
4.157345947458091
4.157345947458091
4.151191475293081
4.163500419623101
4.157345947458091
4.163500419623101
4.157345947458091
4.157345947458091
4.163500419623101
4.157345947458091
4.163500419623101
4.157345947458091
4.163500419623101
4.163500419623101
4.169654891788083
4.163500419623101
4.169654891788083
4.169654891788083
4.169654891788083
4.1758093639530935
4.1758093639530935
4.181963836118102
4.188118308283084
4.188118308283084
4.188118308283084
4.1942727804480935
4.200427252613103
4.200427252613103
4.2065817247780855
4.212736196943095
4.218890669108104
4.218890669108104
4.225045141273086
4.231199613438097
4.243508557768089
4.243508557768089
4.249663029933098
4.255817502098108
4.255817502098108
4.255817502098108
4.255817502098108
4.255817502098108
4.249663029933098
4.249663029933098
4.243508557768089
4.231199613438097
4.225045141273086
4.212736196943095
4.188118308283084
4.181963836118102
4.163500419623101
4.138882530963089
4.157345947458091
4.151191475293081
4.145037003128072
4.145037003128072
4.1327280587980795
4.114264642303079
4.12657358663307
4.12657358663307
4.120419114468088
4.120419114468088
4.1327280587980795
4.1327280587980795
4.120419114468088
4.12657358663307
4.12657358663307
4.12657358663307
4.12657358663307
4.12657358663307
4.1327280587980795
4.1327280587980795
4.1327280587980795
4.1327280587980795
4.138882530963089
4.138882530963089
4.138882530963089
4.138882530963089
4.138882530963089
4.145037003128072
4.138882530963089
4.151191475293081
4.151191475293081
4.145037003128072
4.151191475293081
4.151191475293081
4.145037003128072
4.151191475293081
4.138882530963089
4.145037003128072
4.145037003128072
4.138882530963089
4.145037003128072
4.145037003128072
4.138882530963089
4.145037003128072
4.145037003128072
4.145037003128072
4.145037003128072
4.145037003128072
4.145037003128072
4.145037003128072
4.145037003128072
4.138882530963089
4.138882530963089
4.138882530963089
4.138882530963089
4.138882530963089
4.138882530963089
4.145037003128072
4.145037003128072
4.138882530963089
4.138882530963089
4.145037003128072
4.145037003128072
4.145037003128072
4.151191475293081
4.138882530963089
4.151191475293081
4.151191475293081
4.145037003128072
4.157345947458091
4.163500419623101
4.163500419623101
4.157345947458091
4.157345947458091
4.157345947458091
4.163500419623101
4.151191475293081
4.151191475293081
4.145037003128072
4.138882530963089
4.145037003128072
4.138882530963089
4.145037003128072
4.157345947458091
4.145037003128072
4.151191475293081
4.145037003128072
4.151191475293081
4.145037003128072
4.145037003128072
4.151191475293081
4.145037003128072
4.12657358663307
4.089646753643067
4.089646753643067
4.12657358663307
4.188118308283084
4.2681264464281
4.354289056738125
4.385061417563119
4.391215889728128
4.354289056738125
4.2681264464281
4.1758093639530935
4.077337809313075
4.0465654484880815
4.077337809313075
4.095801225808078
4.114264642303079
4.12657358663307
4.1327280587980795
4.138882530963089
4.138882530963089
4.1327280587980795
4.1327280587980795
4.145037003128072
4.151191475293081
4.138882530963089
4.151191475293081
4.151191475293081
4.145037003128072
4.1327280587980795
4.145037003128072
4.145037003128072
4.151191475293081
4.151191475293081
4.157345947458091
4.151191475293081
4.151191475293081
4.145037003128072
4.157345947458091
4.151191475293081
4.157345947458091
4.151191475293081
4.163500419623101
4.163500419623101
4.163500419623101
4.163500419623101
4.169654891788083
4.1758093639530935
4.169654891788083
4.181963836118102
4.188118308283084
4.1942727804480935
4.1942727804480935
4.1942727804480935
4.212736196943095
4.212736196943095
4.218890669108104
4.225045141273086
4.231199613438097
4.225045141273086
4.225045141273086
4.231199613438097
4.231199613438097
4.231199613438097
4.225045141273086
4.212736196943095
4.2065817247780855
4.200427252613103
4.188118308283084
4.169654891788083
4.163500419623101
4.151191475293081
4.138882530963089
4.1327280587980795
4.12657358663307
4.120419114468088
4.114264642303079
4.095801225808078
4.114264642303079
4.114264642303079
4.114264642303079
4.114264642303079
4.108110170138069
4.108110170138069
4.101955697973087
4.095801225808078
4.101955697973087
4.101955697973087
4.108110170138069
4.114264642303079
4.114264642303079
4.114264642303079
4.114264642303079
4.114264642303079
4.114264642303079
4.114264642303079
4.114264642303079
4.114264642303079
4.120419114468088
4.120419114468088
4.1327280587980795
4.1327280587980795
4.12657358663307
4.138882530963089
4.138882530963089
4.138882530963089
4.138882530963089
4.1327280587980795
4.138882530963089
4.138882530963089
4.138882530963089
4.145037003128072
4.138882530963089
4.138882530963089
4.1327280587980795
4.138882530963089
4.1327280587980795
4.145037003128072
4.145037003128072
4.145037003128072
4.145037003128072
4.145037003128072
4.145037003128072
4.145037003128072
4.138882530963089
4.138882530963089
4.151191475293081
4.151191475293081
4.145037003128072
4.151191475293081
4.145037003128072
4.145037003128072
4.151191475293081
4.151191475293081
4.145037003128072
4.145037003128072
4.157345947458091
4.151191475293081
4.157345947458091
4.157345947458091
4.157345947458091
4.151191475293081
4.157345947458091
4.157345947458091
4.157345947458091
4.163500419623101
4.169654891788083
4.1758093639530935
4.169654891788083
4.169654891788083
4.163500419623101
4.151191475293081
4.181963836118102
4.1758093639530935
4.169654891788083
4.145037003128072
4.138882530963089
4.145037003128072
4.151191475293081
4.145037003128072
4.145037003128072
4.151191475293081
4.145037003128072
4.145037003128072
4.151191475293081
4.151191475293081
4.145037003128072
4.145037003128072
4.120419114468088
4.095801225808078
4.089646753643067
4.114264642303079
4.1758093639530935
4.243508557768089
4.335825640243124
4.385061417563119
4.391215889728128
4.3727524732331275
4.305053279418103
4.200427252613103
4.101955697973087
4.052719920653064
4.077337809313075
4.101955697973087
4.12657358663307
4.1327280587980795
4.1327280587980795
4.1327280587980795
4.138882530963089
4.1327280587980795
4.1327280587980795
4.138882530963089
4.1327280587980795
4.138882530963089
4.145037003128072
4.138882530963089
4.138882530963089
4.138882530963089
4.138882530963089
4.145037003128072
4.145037003128072
4.145037003128072
4.145037003128072
4.151191475293081
4.151191475293081
4.157345947458091
4.151191475293081
4.151191475293081
4.157345947458091
4.163500419623101
4.163500419623101
4.163500419623101
4.1758093639530935
4.1758093639530935
4.169654891788083
4.181963836118102
4.188118308283084
4.188118308283084
4.1942727804480935
4.200427252613103
4.200427252613103
4.212736196943095
4.212736196943095
4.218890669108104
4.231199613438097
4.231199613438097
4.237354085603107
4.237354085603107
4.243508557768089
4.243508557768089
4.243508557768089
4.249663029933098
4.237354085603107
4.237354085603107
4.231199613438097
4.225045141273086
4.2065817247780855
4.1942727804480935
4.181963836118102
4.181963836118102
4.163500419623101
4.151191475293081
4.151191475293081
4.138882530963089
4.138882530963089
4.138882530963089
4.12657358663307
4.12657358663307
4.12657358663307
4.12657358663307
4.12657358663307
4.12657358663307
4.120419114468088
4.12657358663307
4.120419114468088
4.120419114468088
4.120419114468088
4.12657358663307
4.1327280587980795
4.12657358663307
4.1327280587980795
4.12657358663307
4.138882530963089
4.138882530963089
4.1327280587980795
4.12657358663307
4.1327280587980795
4.1327280587980795
4.138882530963089
4.1327280587980795
4.1327280587980795
4.1327280587980795
4.1327280587980795
4.12657358663307
4.145037003128072
4.151191475293081
4.151191475293081
4.145037003128072
4.151191475293081
4.138882530963089
4.12657358663307
4.12657358663307
4.1327280587980795
4.138882530963089
4.145037003128072
4.138882530963089
4.138882530963089
4.138882530963089
4.138882530963089
4.145037003128072
4.145037003128072
4.138882530963089
4.145037003128072
4.138882530963089
4.145037003128072
4.138882530963089
4.145037003128072
4.138882530963089
4.138882530963089
4.145037003128072
4.151191475293081
4.145037003128072
4.151191475293081
4.151191475293081
4.157345947458091
4.151191475293081
4.157345947458091
4.157345947458091
4.157345947458091
4.163500419623101
4.163500419623101
4.163500419623101
4.163500419623101
4.163500419623101
4.163500419623101
4.157345947458091
4.169654891788083
4.169654891788083
4.169654891788083
4.1758093639530935
4.169654891788083
4.1758093639530935
4.169654891788083
4.1758093639530935
4.163500419623101
4.163500419623101
4.151191475293081
4.151191475293081
4.157345947458091
4.151191475293081
4.157345947458091
4.151191475293081
4.151191475293081
4.157345947458091
4.151191475293081
4.151191475293081
4.157345947458091
4.163500419623101
4.145037003128072
4.120419114468088
4.108110170138069
4.114264642303079
4.163500419623101
4.243508557768089
4.335825640243124
4.385061417563119
4.397370361893111
4.37890694539811
4.323516695913104
4.231199613438097
4.120419114468088
4.058874392818074
4.0711833371480655
4.108110170138069
4.12657358663307
4.138882530963089
4.145037003128072
4.145037003128072
4.145037003128072
4.151191475293081
4.151191475293081
4.145037003128072
4.145037003128072
4.151191475293081
4.157345947458091
4.157345947458091
4.151191475293081
4.157345947458091
4.157345947458091
4.163500419623101
4.157345947458091
4.163500419623101
4.157345947458091
4.163500419623101
4.169654891788083
4.163500419623101
4.163500419623101
4.169654891788083
4.1758093639530935
4.169654891788083
4.1758093639530935
4.181963836118102
4.1758093639530935
4.181963836118102
4.188118308283084
4.1942727804480935
4.200427252613103
4.2065817247780855
4.212736196943095
4.200427252613103
4.218890669108104
4.243508557768089
4.243508557768089
4.249663029933098
4.243508557768089
4.212736196943095
4.249663029933098
4.237354085603107
4.243508557768089
4.249663029933098
4.249663029933098
4.249663029933098
4.249663029933098
4.243508557768089
4.243508557768089
4.231199613438097
4.225045141273086
4.2065817247780855
4.200427252613103
4.188118308283084
4.181963836118102
4.169654891788083
4.157345947458091
4.157345947458091
4.145037003128072
4.138882530963089
4.138882530963089
4.1327280587980795
4.138882530963089
4.1327280587980795
4.138882530963089
4.138882530963089
4.145037003128072
4.145037003128072
4.138882530963089
4.145037003128072
4.145037003128072
4.151191475293081
4.138882530963089
4.145037003128072
4.145037003128072
4.151191475293081
4.151191475293081
4.145037003128072
4.151191475293081
4.145037003128072
4.151191475293081
4.157345947458091
4.157345947458091
4.157345947458091
4.151191475293081
4.145037003128072
4.157345947458091
4.157345947458091
4.157345947458091
4.157345947458091
4.157345947458091
4.157345947458091
4.157345947458091
4.151191475293081
4.157345947458091
4.157345947458091
4.163500419623101
4.163500419623101
4.163500419623101
4.163500419623101
4.163500419623101
4.151191475293081
4.157345947458091
4.163500419623101
4.163500419623101
4.157345947458091
4.157345947458091
4.157345947458091
4.163500419623101
4.157345947458091
4.157345947458091
4.169654891788083
4.1758093639530935
4.163500419623101
4.169654891788083
4.169654891788083
4.163500419623101
4.169654891788083
4.163500419623101
4.163500419623101
4.163500419623101
4.169654891788083
4.169654891788083
4.163500419623101
4.169654891788083
4.163500419623101
4.157345947458091
4.157345947458091
4.157345947458091
4.163500419623101
4.163500419623101
4.157345947458091
4.157345947458091
4.163500419623101
4.163500419623101
4.163500419623101
4.169654891788083
4.1758093639530935
4.1758093639530935
4.181963836118102
4.181963836118102
4.169654891788083
4.1758093639530935
4.169654891788083
4.163500419623101
4.163500419623101
4.157345947458091
4.163500419623101
4.163500419623101
4.157345947458091
4.157345947458091
4.151191475293081
4.157345947458091
4.163500419623101
4.163500419623101
4.157345947458091
4.157345947458091
4.138882530963089
4.120419114468088
4.114264642303079
4.1327280587980795
4.188118308283084
4.2865898629231
4.37890694539811
4.415833778388112
4.40967930622313
4.348134584573115
4.280435390758092
4.188118308283084
4.089646753643067
4.052719920653064
4.083492281478085
4.108110170138069
4.12657358663307
4.138882530963089
4.145037003128072
4.145037003128072
4.145037003128072
4.145037003128072
4.157345947458091
4.151191475293081
4.157345947458091
4.157345947458091
4.151191475293081
4.157345947458091
4.163500419623101
4.157345947458091
4.163500419623101
4.157345947458091
4.163500419623101
4.163500419623101
4.157345947458091
4.157345947458091
4.163500419623101
4.157345947458091
4.163500419623101
4.163500419623101
4.169654891788083
4.169654891788083
4.1758093639530935
4.169654891788083
4.181963836118102
4.181963836118102
4.181963836118102
4.1942727804480935
4.1942727804480935
4.1942727804480935
4.212736196943095
4.212736196943095
4.218890669108104
4.225045141273086
4.225045141273086
4.237354085603107
4.231199613438097
4.243508557768089
4.243508557768089
4.249663029933098
4.243508557768089
4.243508557768089
4.255817502098108
4.249663029933098
4.231199613438097
4.237354085603107
4.225045141273086
4.225045141273086
4.212736196943095
4.2065817247780855
4.1942727804480935
4.1758093639530935
4.169654891788083
4.157345947458091
4.145037003128072
4.145037003128072
4.145037003128072
4.138882530963089
4.1327280587980795
4.1327280587980795
4.12657358663307
4.12657358663307
4.1327280587980795
4.12657358663307
4.12657358663307
4.12657358663307
4.1327280587980795
4.12657358663307
4.1327280587980795
4.12657358663307
4.1327280587980795
4.1327280587980795
4.12657358663307
4.138882530963089
4.138882530963089
4.1327280587980795
4.145037003128072
4.145037003128072
4.145037003128072
4.138882530963089
4.138882530963089
4.145037003128072
4.157345947458091
4.157345947458091
4.145037003128072
4.145037003128072
4.151191475293081
4.145037003128072
4.157345947458091
4.151191475293081
4.145037003128072
4.151191475293081
4.151191475293081
4.151191475293081
4.145037003128072
4.151191475293081
4.145037003128072
4.145037003128072
4.157345947458091
4.151191475293081
4.145037003128072
4.157345947458091
4.157345947458091
4.157345947458091
4.151191475293081
4.138882530963089
4.12657358663307
4.163500419623101
4.157345947458091
4.157345947458091
4.157345947458091
4.157345947458091
4.163500419623101
4.157345947458091
4.145037003128072
4.145037003128072
4.151191475293081
4.151191475293081
4.157345947458091
4.151191475293081
4.151191475293081
4.157345947458091
4.157345947458091
4.151191475293081
4.163500419623101
4.157345947458091
4.157345947458091
4.163500419623101
4.163500419623101
4.163500419623101
4.163500419623101
4.169654891788083
4.169654891788083
4.163500419623101
4.181963836118102
4.181963836118102
4.181963836118102
4.1758093639530935
4.1758093639530935
4.181963836118102
4.169654891788083
4.169654891788083
4.169654891788083
4.163500419623101
4.169654891788083
4.163500419623101
4.169654891788083
4.163500419623101
4.163500419623101
4.163500419623101
4.157345947458091
4.157345947458091
4.163500419623101
4.163500419623101
4.163500419623101
4.151191475293081
4.120419114468088
4.114264642303079
4.138882530963089
4.1942727804480935
4.27428091859311
4.360443528903107
4.40352483405812
4.40967930622313
4.37890694539811
4.3112077515831135
4.2065817247780855
4.101955697973087
4.058874392818074
4.065028864983084
4.1327280587980795
4.157345947458091
4.163500419623101
4.157345947458091
4.169654891788083
4.157345947458091
4.157345947458091
4.145037003128072
4.145037003128072
4.151191475293081
4.157345947458091
4.163500419623101
4.163500419623101
4.157345947458091
4.169654891788083
4.163500419623101
4.163500419623101
4.163500419623101
4.169654891788083
4.169654891788083
4.1758093639530935
4.169654891788083
4.169654891788083
4.169654891788083
4.1758093639530935
4.1758093639530935
4.181963836118102
4.1758093639530935
4.181963836118102
4.181963836118102
4.188118308283084
4.181963836118102
4.1942727804480935
4.188118308283084
4.1942727804480935
4.2065817247780855
4.212736196943095
4.2065817247780855
4.212736196943095
4.218890669108104
4.225045141273086
4.231199613438097
4.243508557768089
4.243508557768089
4.249663029933098
4.249663029933098
4.255817502098108
4.255817502098108
4.249663029933098
4.249663029933098
4.255817502098108
4.243508557768089
4.237354085603107
4.231199613438097
4.212736196943095
4.2065817247780855
4.1942727804480935
4.1758093639530935
4.169654891788083
4.1758093639530935
4.1758093639530935
4.145037003128072
4.1327280587980795
4.145037003128072
4.145037003128072
4.145037003128072
4.151191475293081
4.138882530963089
4.138882530963089
4.138882530963089
4.138882530963089
4.138882530963089
4.145037003128072
4.145037003128072
4.138882530963089
4.145037003128072
4.145037003128072
4.145037003128072
4.138882530963089
4.145037003128072
4.145037003128072
4.138882530963089
4.145037003128072
4.145037003128072
4.145037003128072
4.145037003128072
4.151191475293081
4.151191475293081
4.157345947458091
4.151191475293081
4.157345947458091
4.163500419623101
4.163500419623101
4.157345947458091
4.163500419623101
4.157345947458091
4.163500419623101
4.163500419623101
4.157345947458091
4.163500419623101
4.157345947458091
4.163500419623101
4.163500419623101
4.157345947458091
4.163500419623101
4.157345947458091
4.157345947458091
4.157345947458091
4.163500419623101
4.163500419623101
4.163500419623101
4.163500419623101
4.169654891788083
4.169654891788083
4.163500419623101
4.169654891788083
4.169654891788083
4.169654891788083
4.169654891788083
4.1758093639530935
4.1758093639530935
4.169654891788083
4.1758093639530935
4.181963836118102
4.1758093639530935
4.1758093639530935
4.1758093639530935
4.1758093639530935
4.1758093639530935
4.1758093639530935
4.181963836118102
4.188118308283084
4.181963836118102
4.188118308283084
4.188118308283084
4.181963836118102
4.1942727804480935
4.200427252613103
4.2065817247780855
4.1942727804480935
4.200427252613103
4.1942727804480935
4.200427252613103
4.200427252613103
4.1942727804480935
4.1942727804480935
4.181963836118102
4.181963836118102
4.188118308283084
4.188118308283084
4.188118308283084
4.188118308283084
4.181963836118102
4.188118308283084
4.188118308283084
4.181963836118102
4.188118308283084
4.181963836118102
4.1758093639530935
4.151191475293081
4.1327280587980795
4.157345947458091
4.212736196943095
4.280435390758092
4.3727524732331275
4.421988250553122
4.428142722718132
4.40967930622313
4.323516695913104
4.225045141273086
4.12657358663307
4.0711833371480655
4.101955697973087
4.12657358663307
4.157345947458091
4.169654891788083
4.169654891788083
4.1758093639530935
4.169654891788083
4.169654891788083
4.163500419623101
4.188118308283084
4.181963836118102
4.181963836118102
4.181963836118102
4.1758093639530935
4.163500419623101
4.163500419623101
4.169654891788083
4.1758093639530935
4.169654891788083
4.181963836118102
4.181963836118102
4.181963836118102
4.181963836118102
4.181963836118102
4.188118308283084
4.188118308283084
4.188118308283084
4.1942727804480935
4.1942727804480935
4.200427252613103
4.1942727804480935
4.200427252613103
4.200427252613103
4.2065817247780855
4.218890669108104
4.225045141273086
4.225045141273086
4.225045141273086
4.237354085603107
4.243508557768089
4.243508557768089
4.255817502098108
4.261971974263091
4.2681264464281
4.261971974263091
4.27428091859311
4.2681264464281
4.27428091859311
4.2681264464281
4.2681264464281
4.27428091859311
4.27428091859311
4.2681264464281
4.255817502098108
4.249663029933098
4.231199613438097
4.218890669108104
4.218890669108104
4.2065817247780855
4.188118308283084
4.188118308283084
4.181963836118102
4.1758093639530935
4.169654891788083
4.169654891788083
4.163500419623101
4.157345947458091
4.163500419623101
4.163500419623101
4.151191475293081
4.157345947458091
4.157345947458091
4.163500419623101
4.157345947458091
4.157345947458091
4.157345947458091
4.163500419623101
4.157345947458091
4.163500419623101
4.163500419623101
4.157345947458091
4.157345947458091
4.169654891788083
4.169654891788083
4.163500419623101
4.169654891788083
4.163500419623101
4.163500419623101
4.1758093639530935
4.1758093639530935
4.1758093639530935
4.1758093639530935
4.169654891788083
4.1758093639530935
4.169654891788083
4.169654891788083
4.169654891788083
4.169654891788083
4.169654891788083
4.1758093639530935
4.169654891788083
4.1758093639530935
4.169654891788083
4.163500419623101
4.169654891788083
4.169654891788083
4.169654891788083
4.163500419623101
4.169654891788083
4.169654891788083
4.1758093639530935
4.1758093639530935
4.1758093639530935
4.169654891788083
4.169654891788083
4.169654891788083
4.169654891788083
4.1758093639530935
4.1758093639530935
4.169654891788083
4.1758093639530935
4.1758093639530935
4.169654891788083
4.181963836118102
4.181963836118102
4.1758093639530935
4.181963836118102
4.1758093639530935
4.181963836118102
4.1758093639530935
4.163500419623101
4.1758093639530935
4.169654891788083
4.169654891788083
4.169654891788083
4.188118308283084
4.188118308283084
4.188118308283084
4.1758093639530935
4.169654891788083
4.169654891788083
4.188118308283084
4.188118308283084
4.1758093639530935
4.181963836118102
4.169654891788083
4.1758093639530935
4.151191475293081
4.145037003128072
4.157345947458091
4.151191475293081
4.157345947458091
4.163500419623101
4.169654891788083
4.163500419623101
4.169654891788083
4.151191475293081
4.12657358663307
4.108110170138069
4.120419114468088
4.169654891788083
4.237354085603107
4.335825640243124
4.40352483405812
4.397370361893111
4.40352483405812
4.341980112408105
4.243508557768089
4.1327280587980795
4.0711833371480655
4.077337809313075
4.108110170138069
4.1327280587980795
4.138882530963089
4.145037003128072
4.157345947458091
4.157345947458091
4.151191475293081
4.151191475293081
4.157345947458091
4.157345947458091
4.163500419623101
4.157345947458091
4.163500419623101
4.169654891788083
4.169654891788083
4.163500419623101
4.163500419623101
4.163500419623101
4.169654891788083
4.1758093639530935
4.1758093639530935
4.163500419623101
4.163500419623101
4.169654891788083
4.169654891788083
4.1758093639530935
4.181963836118102
4.1758093639530935
4.1758093639530935
4.181963836118102
4.181963836118102
4.188118308283084
4.1942727804480935
4.2065817247780855
4.2065817247780855
4.200427252613103
4.212736196943095
4.212736196943095
4.218890669108104
4.225045141273086
4.231199613438097
4.237354085603107
4.237354085603107
4.243508557768089
4.249663029933098
4.249663029933098
4.255817502098108
4.255817502098108
4.261971974263091
4.261971974263091
4.261971974263091
4.255817502098108
4.237354085603107
4.231199613438097
4.218890669108104
4.2065817247780855
4.200427252613103
4.188118308283084
4.181963836118102
4.169654891788083
4.157345947458091
4.151191475293081
4.138882530963089
4.145037003128072
4.145037003128072
4.138882530963089
4.145037003128072
4.145037003128072
4.138882530963089
4.138882530963089
4.151191475293081
4.145037003128072
4.145037003128072
4.151191475293081
4.145037003128072
4.151191475293081
4.151191475293081
4.157345947458091
4.151191475293081
4.151191475293081
4.157345947458091
4.145037003128072
4.1758093639530935
4.1758093639530935
4.163500419623101
4.163500419623101
4.138882530963089
4.151191475293081
4.151191475293081
4.163500419623101
4.157345947458091
4.163500419623101
4.157345947458091
4.157345947458091
4.157345947458091
4.163500419623101
4.157345947458091
4.163500419623101
4.157345947458091
4.163500419623101
4.157345947458091
4.169654891788083
4.163500419623101
4.169654891788083
4.169654891788083
4.169654891788083
4.163500419623101
4.169654891788083
4.157345947458091
4.157345947458091
4.157345947458091
4.163500419623101
4.163500419623101
4.163500419623101
4.163500419623101
4.169654891788083
4.163500419623101
4.163500419623101
4.169654891788083
4.163500419623101
4.169654891788083
4.169654891788083
4.169654891788083
4.163500419623101
4.163500419623101
4.163500419623101
4.169654891788083
4.1758093639530935
4.169654891788083
4.169654891788083
4.181963836118102
4.181963836118102
4.188118308283084
4.188118308283084
4.188118308283084
4.188118308283084
4.188118308283084
4.1942727804480935
4.181963836118102
4.188118308283084
4.1758093639530935
4.169654891788083
4.169654891788083
4.163500419623101
4.157345947458091
4.169654891788083
4.169654891788083
4.169654891788083
4.169654891788083
4.163500419623101
4.1758093639530935
4.163500419623101
4.169654891788083
4.157345947458091
4.138882530963089
4.114264642303079
4.120419114468088
4.163500419623101
4.231199613438097
4.3112077515831135
4.391215889728128
4.40967930622313
4.40352483405812
4.360443528903107
4.255817502098108
4.157345947458091
4.0711833371480655
4.058874392818074
4.095801225808078
4.12657358663307
4.145037003128072
4.145037003128072
4.151191475293081
4.157345947458091
4.157345947458091
4.151191475293081
4.157345947458091
4.151191475293081
4.151191475293081
4.157345947458091
4.163500419623101
4.157345947458091
4.157345947458091
4.157345947458091
4.163500419623101
4.163500419623101
4.169654891788083
4.163500419623101
4.169654891788083
4.169654891788083
4.1758093639530935
4.169654891788083
4.1758093639530935
4.1758093639530935
4.1758093639530935
4.1758093639530935
4.181963836118102
4.188118308283084
4.188118308283084
4.1942727804480935
4.188118308283084
4.200427252613103
4.200427252613103
4.188118308283084
4.225045141273086
4.231199613438097
4.225045141273086
4.231199613438097
4.231199613438097
4.237354085603107
4.231199613438097
4.218890669108104
4.225045141273086
4.237354085603107
4.249663029933098
4.249663029933098
4.243508557768089
4.243508557768089
4.237354085603107
4.243508557768089
4.237354085603107
4.225045141273086
4.218890669108104
4.200427252613103
4.188118308283084
4.181963836118102
4.163500419623101
4.157345947458091
4.151191475293081
4.151191475293081
4.145037003128072
4.138882530963089
4.1327280587980795
4.138882530963089
4.138882530963089
4.1327280587980795
4.12657358663307
4.138882530963089
4.12657358663307
4.1327280587980795
4.12657358663307
4.1327280587980795
4.12657358663307
4.1327280587980795
4.12657358663307
4.12657358663307
4.1327280587980795
4.138882530963089
4.1327280587980795
4.138882530963089
4.1327280587980795
4.1327280587980795
4.145037003128072
4.145037003128072
4.145037003128072
4.138882530963089
4.138882530963089
4.145037003128072
4.145037003128072
4.145037003128072
4.138882530963089
4.145037003128072
4.145037003128072
4.145037003128072
4.138882530963089
4.138882530963089
4.138882530963089
4.145037003128072
4.145037003128072
4.145037003128072
4.138882530963089
4.138882530963089
4.138882530963089
4.138882530963089
4.138882530963089
4.138882530963089
4.138882530963089
4.138882530963089
4.138882530963089
4.1327280587980795
4.1327280587980795
4.120419114468088
4.138882530963089
4.145037003128072
4.151191475293081
4.145037003128072
4.151191475293081
4.151191475293081
4.145037003128072
4.120419114468088
4.12657358663307
4.138882530963089
4.1327280587980795
4.145037003128072
4.138882530963089
4.138882530963089
4.145037003128072
4.151191475293081
4.157345947458091
4.157345947458091
4.151191475293081
4.151191475293081
4.151191475293081
4.145037003128072
4.151191475293081
4.145037003128072
4.145037003128072
4.1327280587980795
4.138882530963089
4.1327280587980795
4.145037003128072
4.145037003128072
4.138882530963089
4.145037003128072
4.138882530963089
4.145037003128072
4.138882530963089
4.145037003128072
4.138882530963089
4.12657358663307
4.108110170138069
4.095801225808078
4.101955697973087
4.151191475293081
4.212736196943095
4.292744335088111
4.385061417563119
4.391215889728128
4.360443528903107
4.298898807253093
4.2065817247780855
4.101955697973087
4.034256504158063
4.052719920653064
4.083492281478085
4.101955697973087
4.114264642303079
4.12657358663307
4.1327280587980795
4.1327280587980795
4.138882530963089
4.1327280587980795
4.1327280587980795
4.138882530963089
4.138882530963089
4.138882530963089
4.145037003128072
4.138882530963089
4.138882530963089
4.145037003128072
4.138882530963089
4.145037003128072
4.145037003128072
4.151191475293081
4.145037003128072
4.151191475293081
4.151191475293081
4.151191475293081
4.157345947458091
4.157345947458091
4.163500419623101
4.157345947458091
4.163500419623101
4.169654891788083
4.1758093639530935
4.169654891788083
4.1758093639530935
4.1758093639530935
4.188118308283084
4.188118308283084
4.200427252613103
4.200427252613103
4.2065817247780855
4.218890669108104
4.225045141273086
4.225045141273086
4.231199613438097
4.237354085603107
4.243508557768089
4.243508557768089
4.243508557768089
4.243508557768089
4.237354085603107
4.237354085603107
4.237354085603107
4.231199613438097
4.225045141273086
4.2065817247780855
4.200427252613103
4.1942727804480935
4.169654891788083
4.163500419623101
4.151191475293081
4.145037003128072
4.1327280587980795
4.12657358663307
4.120419114468088
4.120419114468088
4.114264642303079
4.120419114468088
4.120419114468088
4.114264642303079
4.120419114468088
4.120419114468088
4.120419114468088
4.114264642303079
4.108110170138069
4.114264642303079
4.114264642303079
4.120419114468088
4.120419114468088
4.120419114468088
4.114264642303079
4.120419114468088
4.120419114468088
4.12657358663307
4.12657358663307
4.120419114468088
4.12657358663307
4.120419114468088
4.120419114468088
4.120419114468088
4.12657358663307
4.12657358663307
4.1327280587980795
4.1327280587980795
4.1327280587980795
4.1327280587980795
4.12657358663307
4.1327280587980795
4.12657358663307
4.1327280587980795
4.12657358663307
4.138882530963089
4.12657358663307
4.138882530963089
4.138882530963089
4.12657358663307
4.1327280587980795
4.12657358663307
4.1327280587980795
4.1327280587980795
4.138882530963089
4.12657358663307
4.12657358663307
4.1327280587980795
4.12657358663307
4.120419114468088
4.145037003128072
4.138882530963089
4.138882530963089
4.138882530963089
4.145037003128072
4.120419114468088
4.12657358663307
4.1327280587980795
4.1327280587980795
4.1327280587980795
4.138882530963089
4.145037003128072
4.151191475293081
4.157345947458091
4.157345947458091
4.151191475293081
4.151191475293081
4.157345947458091
4.151191475293081
4.145037003128072
4.138882530963089
4.1327280587980795
4.1327280587980795
4.145037003128072
4.151191475293081
4.145037003128072
4.138882530963089
4.145037003128072
4.145037003128072
4.138882530963089
4.145037003128072
4.145037003128072
4.138882530963089
4.138882530963089
4.108110170138069
4.089646753643067
4.083492281478085
4.1327280587980795
4.2065817247780855
4.2865898629231
4.3727524732331275
4.391215889728128
4.391215889728128
4.329671168078114
4.225045141273086
4.114264642303079
4.052719920653064
4.028102031993082
4.052719920653064
4.083492281478085
4.108110170138069
4.120419114468088
4.120419114468088
4.1327280587980795
4.1327280587980795
4.138882530963089
4.138882530963089
4.1327280587980795
4.138882530963089
4.138882530963089
4.145037003128072
4.138882530963089
4.138882530963089
4.151191475293081
4.151191475293081
4.151191475293081
4.157345947458091
4.157345947458091
4.151191475293081
4.157345947458091
4.163500419623101
4.157345947458091
4.157345947458091
4.163500419623101
4.163500419623101
4.163500419623101
4.1758093639530935
4.169654891788083
4.181963836118102
4.1758093639530935
4.188118308283084
4.1942727804480935
4.188118308283084
4.200427252613103
4.200427252613103
4.212736196943095
4.212736196943095
4.218890669108104
4.231199613438097
4.237354085603107
4.243508557768089
4.249663029933098
4.249663029933098
4.243508557768089
4.243508557768089
4.249663029933098
4.249663029933098
4.243508557768089
4.249663029933098
4.237354085603107
4.231199613438097
4.225045141273086
4.212736196943095
4.1942727804480935
4.181963836118102
4.169654891788083
4.157345947458091
4.151191475293081
4.138882530963089
4.145037003128072
4.1327280587980795
4.1327280587980795
4.1327280587980795
4.12657358663307
4.12657358663307
4.12657358663307
4.120419114468088
4.120419114468088
4.12657358663307
4.12657358663307
4.114264642303079
4.101955697973087
4.114264642303079
4.120419114468088
4.12657358663307
4.12657358663307
4.120419114468088
4.120419114468088
4.120419114468088
4.120419114468088
4.12657358663307
4.12657358663307
4.12657358663307
4.12657358663307
4.1327280587980795
4.1327280587980795
4.12657358663307
4.12657358663307
4.12657358663307
4.12657358663307
4.1327280587980795
4.12657358663307
4.1327280587980795
4.1327280587980795
4.1327280587980795
4.12657358663307
4.114264642303079
4.138882530963089
4.145037003128072
4.145037003128072
4.138882530963089
4.1327280587980795
4.1327280587980795
4.120419114468088
4.108110170138069
4.120419114468088
4.120419114468088
4.120419114468088
4.12657358663307
4.12657358663307
4.120419114468088
4.120419114468088
4.12657358663307
4.1327280587980795
4.1327280587980795
4.12657358663307
4.12657358663307
4.1327280587980795
4.12657358663307
4.12657358663307
4.1327280587980795
4.1327280587980795
4.138882530963089
4.138882530963089
4.145037003128072
4.151191475293081
4.151191475293081
4.145037003128072
4.138882530963089
4.138882530963089
4.1327280587980795
4.138882530963089
4.12657358663307
4.1327280587980795
4.120419114468088
4.120419114468088
4.12657358663307
4.120419114468088
4.12657358663307
4.120419114468088
4.1327280587980795
4.1327280587980795
4.1327280587980795
4.1327280587980795
4.1327280587980795
4.108110170138069
4.089646753643067
4.083492281478085
4.101955697973087
4.157345947458091
4.237354085603107
4.323516695913104
4.385061417563119
4.385061417563119
4.366598001068117
4.298898807253093
4.200427252613103
4.089646753643067
4.040410976323072
4.052719920653064
4.089646753643067
4.101955697973087
4.114264642303079
4.12657358663307
4.138882530963089
4.1327280587980795
4.1327280587980795
4.12657358663307
4.1327280587980795
4.1327280587980795
4.1327280587980795
4.1327280587980795
4.138882530963089
4.138882530963089
4.138882530963089
4.145037003128072
4.145037003128072
4.1327280587980795
4.145037003128072
4.145037003128072
4.151191475293081
4.157345947458091
4.151191475293081
4.151191475293081
4.151191475293081
4.157345947458091
4.163500419623101
4.163500419623101
4.163500419623101
4.163500419623101
4.1758093639530935
4.1758093639530935
4.181963836118102
4.1758093639530935
4.2065817247780855
4.2065817247780855
4.2065817247780855
4.200427252613103
4.1942727804480935
4.2065817247780855
4.218890669108104
4.231199613438097
4.237354085603107
4.237354085603107
4.237354085603107
4.237354085603107
4.243508557768089
4.249663029933098
4.249663029933098
4.243508557768089
4.237354085603107
4.225045141273086
4.218890669108104
4.2065817247780855
4.1942727804480935
4.181963836118102
4.169654891788083
4.157345947458091
4.151191475293081
4.145037003128072
4.1327280587980795
4.1327280587980795
4.1327280587980795
4.12657358663307
4.1327280587980795
4.12657358663307
4.12657358663307
4.120419114468088
4.120419114468088
4.120419114468088
4.120419114468088
4.120419114468088
4.120419114468088
4.120419114468088
4.120419114468088
4.12657358663307
4.12657358663307
4.12657358663307
4.1327280587980795
4.1327280587980795
4.1327280587980795
4.1327280587980795
4.1327280587980795
4.145037003128072
4.145037003128072
4.145037003128072
4.145037003128072
4.138882530963089
4.145037003128072
4.138882530963089
4.145037003128072
4.138882530963089
4.138882530963089
4.145037003128072
4.138882530963089
4.145037003128072
4.138882530963089
4.151191475293081
4.151191475293081
4.157345947458091
4.151191475293081
4.151191475293081
4.151191475293081
4.145037003128072
4.151191475293081
4.151191475293081
4.145037003128072
4.151191475293081
4.145037003128072
4.151191475293081
4.151191475293081
4.145037003128072
4.151191475293081
4.145037003128072
4.151191475293081
4.151191475293081
4.151191475293081
4.157345947458091
4.151191475293081
4.151191475293081
4.151191475293081
4.157345947458091
4.157345947458091
4.163500419623101
4.163500419623101
4.1758093639530935
4.169654891788083
4.169654891788083
4.169654891788083
4.163500419623101
4.169654891788083
4.163500419623101
4.157345947458091
4.145037003128072
4.151191475293081
4.151191475293081
4.145037003128072
4.151191475293081
4.151191475293081
4.151191475293081
4.145037003128072
4.145037003128072
4.145037003128072
4.145037003128072
4.151191475293081
4.145037003128072
4.120419114468088
4.089646753643067
4.089646753643067
4.12657358663307
4.1942727804480935
4.280435390758092
4.3727524732331275
4.40352483405812
4.397370361893111
4.360443528903107
4.280435390758092
4.1758093639530935
4.0711833371480655
4.0465654484880815
4.083492281478085
4.108110170138069
4.101955697973087
4.101955697973087
4.114264642303079
4.12657358663307
4.120419114468088
4.1327280587980795
4.138882530963089
4.1327280587980795
4.1327280587980795
4.138882530963089
4.1327280587980795
4.138882530963089
4.1327280587980795
4.138882530963089
4.145037003128072
4.145037003128072
4.151191475293081
4.151191475293081
4.145037003128072
4.138882530963089
4.145037003128072
4.138882530963089
4.151191475293081
4.151191475293081
4.151191475293081
4.145037003128072
4.151191475293081
4.157345947458091
4.157345947458091
4.163500419623101
4.163500419623101
4.169654891788083
4.1758093639530935
4.181963836118102
4.1942727804480935
4.200427252613103
4.2065817247780855
4.212736196943095
4.2065817247780855
4.212736196943095
4.218890669108104
4.231199613438097
4.231199613438097
4.237354085603107
4.237354085603107
4.231199613438097
4.225045141273086
4.231199613438097
4.225045141273086
4.212736196943095
4.2065817247780855
4.1942727804480935
4.181963836118102
4.169654891788083
4.163500419623101
4.145037003128072
4.138882530963089
4.1327280587980795
4.120419114468088
4.12657358663307
4.120419114468088
4.120419114468088
4.108110170138069
4.108110170138069
4.114264642303079
4.108110170138069
4.108110170138069
4.108110170138069
4.101955697973087
4.101955697973087
4.101955697973087
4.108110170138069
4.114264642303079
4.108110170138069
4.114264642303079
4.108110170138069
4.108110170138069
4.114264642303079
4.108110170138069
4.120419114468088
4.120419114468088
4.120419114468088
4.120419114468088
4.120419114468088
4.120419114468088
4.120419114468088
4.101955697973087
4.12657358663307
4.138882530963089
4.138882530963089
4.12657358663307
4.12657358663307
4.12657358663307
4.12657358663307
4.108110170138069
4.108110170138069
4.114264642303079
4.120419114468088
4.12657358663307
4.120419114468088
4.120419114468088
4.12657358663307
4.1327280587980795
4.120419114468088
4.12657358663307
4.120419114468088
4.12657358663307
4.1327280587980795
4.12657358663307
4.12657358663307
4.12657358663307
4.1327280587980795
4.1327280587980795
4.12657358663307
4.120419114468088
4.114264642303079
4.138882530963089
4.12657358663307
4.114264642303079
4.120419114468088
4.120419114468088
4.120419114468088
4.1327280587980795
4.12657358663307
4.138882530963089
4.138882530963089
4.151191475293081
4.151191475293081
4.151191475293081
4.145037003128072
4.145037003128072
4.145037003128072
4.1327280587980795
4.1327280587980795
4.12657358663307
4.138882530963089
4.138882530963089
4.138882530963089
4.12657358663307
4.1327280587980795
4.1327280587980795
4.1327280587980795
4.138882530963089
4.1327280587980795
4.1327280587980795
4.1327280587980795
4.108110170138069
4.083492281478085
4.083492281478085
4.108110170138069
4.188118308283084
4.27428091859311
4.366598001068117
4.40352483405812
4.397370361893111
4.354289056738125
4.2681264464281
4.163500419623101
4.058874392818074
4.034256504158063
4.0711833371480655
4.089646753643067
4.114264642303079
4.120419114468088
4.120419114468088
4.1327280587980795
4.1327280587980795
4.1327280587980795
4.1327280587980795
4.138882530963089
4.145037003128072
4.138882530963089
4.145037003128072
4.138882530963089
4.138882530963089
4.151191475293081
4.145037003128072
4.145037003128072
4.138882530963089
4.151191475293081
4.151191475293081
4.157345947458091
4.151191475293081
4.157345947458091
4.157345947458091
4.163500419623101
4.157345947458091
4.163500419623101
4.163500419623101
4.163500419623101
4.169654891788083
4.1758093639530935
4.181963836118102
4.1758093639530935
4.181963836118102
4.200427252613103
4.2065817247780855
4.212736196943095
4.218890669108104
4.218890669108104
4.231199613438097
4.237354085603107
4.243508557768089
4.237354085603107
4.249663029933098
4.255817502098108
4.255817502098108
4.255817502098108
4.249663029933098
4.243508557768089
4.237354085603107
4.237354085603107
4.231199613438097
4.225045141273086
4.212736196943095
4.1942727804480935
4.181963836118102
4.1758093639530935
4.157345947458091
4.157345947458091
4.145037003128072
4.138882530963089
4.1327280587980795
4.138882530963089
4.1327280587980795
4.1327280587980795
4.1327280587980795
4.1327280587980795
4.12657358663307
4.12657358663307
4.12657358663307
4.12657358663307
4.1327280587980795
4.12657358663307
4.12657358663307
4.12657358663307
4.1327280587980795
4.120419114468088
4.151191475293081
4.145037003128072
4.151191475293081
4.151191475293081
4.1327280587980795
4.120419114468088
4.12657358663307
4.1327280587980795
4.138882530963089
4.1327280587980795
4.1327280587980795
4.138882530963089
4.1327280587980795
4.138882530963089
4.138882530963089
4.138882530963089
4.145037003128072
4.145037003128072
4.145037003128072
4.138882530963089
4.145037003128072
4.145037003128072
4.145037003128072
4.145037003128072
4.138882530963089
4.145037003128072
4.145037003128072
4.151191475293081
4.138882530963089
4.145037003128072
4.145037003128072
4.145037003128072
4.151191475293081
4.151191475293081
4.151191475293081
4.145037003128072
4.145037003128072
4.138882530963089
4.138882530963089
4.151191475293081
4.151191475293081
4.151191475293081
4.151191475293081
4.145037003128072
4.151191475293081
4.145037003128072
4.151191475293081
4.145037003128072
4.157345947458091
4.157345947458091
4.157345947458091
4.163500419623101
4.157345947458091
4.151191475293081
4.157345947458091
4.157345947458091
4.145037003128072
4.138882530963089
4.138882530963089
4.138882530963089
4.138882530963089
4.145037003128072
4.1327280587980795
4.145037003128072
4.145037003128072
4.138882530963089
4.138882530963089
4.138882530963089
4.151191475293081
4.138882530963089
4.1327280587980795
4.101955697973087
4.089646753643067
4.108110170138069
4.157345947458091
4.225045141273086
4.3112077515831135
4.385061417563119
4.391215889728128
4.391215889728128
4.3173622237481215
4.200427252613103
4.101955697973087
4.040410976323072
4.040410976323072
4.0711833371480655
4.089646753643067
4.114264642303079
4.12657358663307
4.1327280587980795
4.138882530963089
4.138882530963089
4.138882530963089
4.138882530963089
4.151191475293081
4.145037003128072
4.151191475293081
4.151191475293081
4.151191475293081
4.151191475293081
4.151191475293081
4.157345947458091
4.151191475293081
4.157345947458091
4.157345947458091
4.163500419623101
4.163500419623101
4.151191475293081
4.151191475293081
4.157345947458091
4.163500419623101
4.163500419623101
4.163500419623101
4.163500419623101
4.163500419623101
4.1758093639530935
4.169654891788083
4.1758093639530935
4.181963836118102
4.1942727804480935
4.188118308283084
4.181963836118102
4.200427252613103
4.212736196943095
4.218890669108104
4.218890669108104
4.225045141273086
4.237354085603107
4.243508557768089
4.243508557768089
4.237354085603107
4.249663029933098
4.249663029933098
4.243508557768089
4.243508557768089
4.231199613438097
4.225045141273086
4.218890669108104
4.2065817247780855
4.2065817247780855
4.1942727804480935
4.1758093639530935
4.1758093639530935
4.157345947458091
4.157345947458091
4.151191475293081
4.145037003128072
4.138882530963089
4.138882530963089
4.138882530963089
4.138882530963089
4.138882530963089
4.138882530963089
4.138882530963089
4.138882530963089
4.138882530963089
4.138882530963089
4.1327280587980795
4.1327280587980795
4.138882530963089
4.1327280587980795
4.114264642303079
4.163500419623101
4.169654891788083
4.157345947458091
4.151191475293081
4.157345947458091
4.157345947458091
4.138882530963089
4.12657358663307
4.1327280587980795
4.138882530963089
4.145037003128072
4.151191475293081
4.151191475293081
4.138882530963089
4.1327280587980795
4.145037003128072
4.145037003128072
4.151191475293081
4.145037003128072
4.151191475293081
4.151191475293081
4.157345947458091
4.157345947458091
4.145037003128072
4.157345947458091
4.157345947458091
4.157345947458091
4.163500419623101
4.157345947458091
4.157345947458091
4.157345947458091
4.157345947458091
4.157345947458091
4.157345947458091
4.157345947458091
4.157345947458091
4.151191475293081
4.157345947458091
4.145037003128072
4.151191475293081
4.145037003128072
4.145037003128072
4.151191475293081
4.145037003128072
4.151191475293081
4.151191475293081
4.157345947458091
4.151191475293081
4.151191475293081
4.157345947458091
4.157345947458091
4.157345947458091
4.157345947458091
4.169654891788083
4.181963836118102
4.1758093639530935
4.181963836118102
4.181963836118102
4.181963836118102
4.1758093639530935
4.169654891788083
4.157345947458091
4.157345947458091
4.157345947458091
4.151191475293081
4.151191475293081
4.157345947458091
4.145037003128072
4.1327280587980795
4.138882530963089
4.138882530963089
4.145037003128072
4.138882530963089
4.145037003128072
4.145037003128072
4.12657358663307
4.114264642303079
4.095801225808078
4.114264642303079
4.163500419623101
4.231199613438097
4.3173622237481215
4.40967930622313
4.40967930622313
4.37890694539811
4.298898807253093
4.212736196943095
4.108110170138069
4.0465654484880815
4.065028864983084
4.101955697973087
4.120419114468088
4.1327280587980795
4.138882530963089
4.138882530963089
4.138882530963089
4.138882530963089
4.145037003128072
4.151191475293081
4.151191475293081
4.151191475293081
4.157345947458091
4.157345947458091
4.163500419623101
4.163500419623101
4.157345947458091
4.163500419623101
4.163500419623101
4.169654891788083
4.163500419623101
4.163500419623101
4.1758093639530935
4.1758093639530935
4.1758093639530935
4.169654891788083
4.1758093639530935
4.181963836118102
4.1758093639530935
4.181963836118102
4.188118308283084
4.1942727804480935
4.188118308283084
4.1942727804480935
4.2065817247780855
4.2065817247780855
4.200427252613103
4.212736196943095
4.218890669108104
4.231199613438097
4.237354085603107
4.243508557768089
4.243508557768089
4.249663029933098
4.261971974263091
4.2681264464281
4.261971974263091
4.2681264464281
4.27428091859311
4.2681264464281
4.261971974263091
4.255817502098108
4.255817502098108
4.243508557768089
4.237354085603107
4.225045141273086
4.212736196943095
4.2065817247780855
4.1942727804480935
4.188118308283084
4.169654891788083
4.163500419623101
4.163500419623101
4.157345947458091
4.157345947458091
4.157345947458091
4.151191475293081
4.157345947458091
4.163500419623101
4.151191475293081
4.151191475293081
4.157345947458091
4.157345947458091
4.163500419623101
4.163500419623101
4.163500419623101
4.163500419623101
4.163500419623101
4.163500419623101
4.157345947458091
4.169654891788083
4.169654891788083
4.169654891788083
4.169654891788083
4.1758093639530935
4.169654891788083
4.1758093639530935
4.181963836118102
4.1758093639530935
4.1758093639530935
4.181963836118102
4.181963836118102
4.181963836118102
4.1758093639530935
4.1758093639530935
4.1758093639530935
4.181963836118102
4.1758093639530935
4.181963836118102
4.1758093639530935
4.1758093639530935
4.1758093639530935
4.1758093639530935
4.181963836118102
4.1758093639530935
4.181963836118102
4.181963836118102
4.1758093639530935
4.1758093639530935
4.181963836118102
4.1758093639530935
4.181963836118102
4.1758093639530935
4.1758093639530935
4.163500419623101
4.188118308283084
4.188118308283084
4.188118308283084
4.1942727804480935
4.1942727804480935
4.1758093639530935
4.169654891788083
4.169654891788083
4.1758093639530935
4.181963836118102
4.188118308283084
4.188118308283084
4.181963836118102
4.188118308283084
4.188118308283084
4.181963836118102
4.188118308283084
4.200427252613103
4.2065817247780855
4.200427252613103
4.1942727804480935
4.1942727804480935
4.188118308283084
4.188118308283084
4.188118308283084
4.181963836118102
4.1758093639530935
4.181963836118102
4.181963836118102
4.181963836118102
4.181963836118102
4.181963836118102
4.181963836118102
4.1758093639530935
4.181963836118102
4.181963836118102
4.188118308283084
4.188118308283084
4.169654891788083
4.138882530963089
4.1327280587980795
4.157345947458091
4.212736196943095
4.2865898629231
4.3727524732331275
4.428142722718132
4.428142722718132
4.40967930622313
4.335825640243124
4.243508557768089
4.145037003128072
4.089646753643067
4.120419114468088
4.138882530963089
4.157345947458091
4.169654891788083
4.1758093639530935
4.169654891788083
4.169654891788083
4.1758093639530935
4.169654891788083
4.1758093639530935
4.169654891788083
4.1758093639530935
4.1758093639530935
4.181963836118102
4.181963836118102
4.181963836118102
4.188118308283084
4.188118308283084
4.181963836118102
4.188118308283084
4.181963836118102
4.181963836118102
4.188118308283084
4.188118308283084
4.181963836118102
4.188118308283084
4.1942727804480935
4.188118308283084
4.188118308283084
4.200427252613103
4.200427252613103
4.1942727804480935
4.200427252613103
4.2065817247780855
4.212736196943095
4.218890669108104
4.212736196943095
4.225045141273086
4.225045141273086
4.231199613438097
4.249663029933098
4.255817502098108
4.255817502098108
4.255817502098108
4.261971974263091
4.261971974263091
4.261971974263091
4.261971974263091
4.261971974263091
4.2681264464281
4.261971974263091
4.255817502098108
4.249663029933098
4.237354085603107
4.225045141273086
4.2065817247780855
4.2065817247780855
4.2065817247780855
4.1942727804480935
4.188118308283084
4.1758093639530935
4.169654891788083
4.151191475293081
4.1327280587980795
4.1327280587980795
4.138882530963089
4.145037003128072
4.145037003128072
4.145037003128072
4.1327280587980795
4.163500419623101
4.145037003128072
4.145037003128072
4.157345947458091
4.151191475293081
4.157345947458091
4.157345947458091
4.157345947458091
4.163500419623101
4.163500419623101
4.157345947458091
4.157345947458091
4.157345947458091
4.157345947458091
4.157345947458091
4.163500419623101
4.163500419623101
4.169654891788083
4.169654891788083
4.163500419623101
4.1758093639530935
4.169654891788083
4.1758093639530935
4.169654891788083
4.169654891788083
4.169654891788083
4.1758093639530935
4.1758093639530935
4.1758093639530935
4.169654891788083
4.169654891788083
4.1758093639530935
4.1758093639530935
4.169654891788083
4.169654891788083
4.169654891788083
4.1758093639530935
4.169654891788083
4.169654891788083
4.169654891788083
4.1758093639530935
4.169654891788083
4.169654891788083
4.169654891788083
4.1758093639530935
4.169654891788083
4.1758093639530935
4.1758093639530935
4.1758093639530935
4.169654891788083
4.169654891788083
4.1758093639530935
4.1758093639530935
4.1758093639530935
4.181963836118102
4.181963836118102
4.188118308283084
4.181963836118102
4.188118308283084
4.188118308283084
4.181963836118102
4.188118308283084
4.188118308283084
4.200427252613103
4.2065817247780855
4.200427252613103
4.200427252613103
4.1942727804480935
4.200427252613103
4.200427252613103
4.1942727804480935
4.188118308283084
4.188118308283084
4.1758093639530935
4.181963836118102
4.188118308283084
4.181963836118102
4.1758093639530935
4.181963836118102
4.181963836118102
4.181963836118102
4.1758093639530935
4.181963836118102
4.163500419623101
4.138882530963089
4.120419114468088
4.1327280587980795
4.1758093639530935
4.255817502098108
4.341980112408105
4.415833778388112
4.428142722718132
4.428142722718132
4.37890694539811
4.2865898629231
4.181963836118102
4.101955697973087
4.114264642303079
4.138882530963089
4.151191475293081
4.163500419623101
4.169654891788083
4.169654891788083
4.1758093639530935
4.1758093639530935
4.169654891788083
4.1758093639530935
4.1758093639530935
4.181963836118102
4.181963836118102
4.169654891788083
4.1758093639530935
4.181963836118102
4.1758093639530935
4.188118308283084
4.188118308283084
4.188118308283084
4.1942727804480935
4.1942727804480935
4.200427252613103
4.188118308283084
4.181963836118102
4.212736196943095
4.212736196943095
4.2065817247780855
4.2065817247780855
4.1942727804480935
4.200427252613103
4.200427252613103
4.2065817247780855
4.212736196943095
4.225045141273086
4.231199613438097
4.231199613438097
4.231199613438097
4.243508557768089
4.243508557768089
4.249663029933098
4.261971974263091
4.2681264464281
4.2681264464281
4.27428091859311
4.27428091859311
4.280435390758092
4.27428091859311
4.27428091859311
4.280435390758092
4.27428091859311
4.280435390758092
4.2681264464281
4.255817502098108
4.243508557768089
4.237354085603107
4.225045141273086
4.218890669108104
4.200427252613103
4.200427252613103
4.188118308283084
4.181963836118102
4.1758093639530935
4.169654891788083
4.163500419623101
4.169654891788083
4.169654891788083
4.163500419623101
4.157345947458091
4.157345947458091
4.157345947458091
4.163500419623101
4.169654891788083
4.169654891788083
4.169654891788083
4.163500419623101
4.163500419623101
4.163500419623101
4.163500419623101
4.163500419623101
4.163500419623101
4.1758093639530935
4.163500419623101
4.169654891788083
4.169654891788083
4.169654891788083
4.163500419623101
4.163500419623101
4.169654891788083
4.169654891788083
4.169654891788083
4.1758093639530935
4.1758093639530935
4.1758093639530935
4.1758093639530935
4.1758093639530935
4.169654891788083
4.1758093639530935
4.1758093639530935
4.1758093639530935
4.1758093639530935
4.1758093639530935
4.169654891788083
4.169654891788083
4.1758093639530935
4.1758093639530935
4.181963836118102
4.1758093639530935
4.169654891788083
4.169654891788083
4.169654891788083
4.1758093639530935
4.169654891788083
4.1758093639530935
4.1758093639530935
4.169654891788083
4.169654891788083
4.1758093639530935
4.1758093639530935
4.181963836118102
4.181963836118102
4.181963836118102
4.188118308283084
4.188118308283084
4.1758093639530935
4.1758093639530935
4.1758093639530935
4.1758093639530935
4.181963836118102
4.181963836118102
4.181963836118102
4.181963836118102
4.181963836118102
4.188118308283084
4.188118308283084
4.1942727804480935
4.181963836118102
4.181963836118102
4.188118308283084
4.1758093639530935
4.1758093639530935
4.169654891788083
4.169654891788083
4.169654891788083
4.163500419623101
4.163500419623101
4.138882530963089
4.181963836118102
4.1758093639530935
4.169654891788083
4.169654891788083
4.169654891788083
4.169654891788083
4.157345947458091
4.12657358663307
4.101955697973087
4.101955697973087
4.12657358663307
4.1942727804480935
4.2681264464281
4.360443528903107
4.40352483405812
4.40967930622313
4.37890694539811
4.305053279418103
4.1942727804480935
4.101955697973087
4.058874392818074
4.095801225808078
4.114264642303079
4.12657358663307
4.1327280587980795
4.145037003128072
4.145037003128072
4.145037003128072
4.145037003128072
4.145037003128072
4.157345947458091
4.145037003128072
4.145037003128072
4.151191475293081
4.151191475293081
4.151191475293081
4.151191475293081
4.151191475293081
4.157345947458091
4.157345947458091
4.163500419623101
4.157345947458091
4.163500419623101
4.151191475293081
4.163500419623101
4.157345947458091
4.163500419623101
4.169654891788083
4.169654891788083
4.1758093639530935
4.1758093639530935
4.1758093639530935
4.188118308283084
4.188118308283084
4.169654891788083
4.2065817247780855
4.218890669108104
4.212736196943095
4.225045141273086
4.225045141273086
4.231199613438097
4.225045141273086
4.225045141273086
4.231199613438097
4.237354085603107
4.249663029933098
4.255817502098108
4.261971974263091
4.249663029933098
4.255817502098108
4.249663029933098
4.255817502098108
4.243508557768089
4.243508557768089
4.231199613438097
4.225045141273086
4.212736196943095
4.200427252613103
4.188118308283084
4.181963836118102
4.169654891788083
4.163500419623101
4.163500419623101
4.163500419623101
4.163500419623101
4.151191475293081
4.151191475293081
4.157345947458091
4.151191475293081
4.151191475293081
4.151191475293081
4.151191475293081
4.145037003128072
4.145037003128072
4.145037003128072
4.151191475293081
4.151191475293081
4.151191475293081
4.157345947458091
4.157345947458091
4.157345947458091
4.145037003128072
4.151191475293081
4.151191475293081
4.151191475293081
4.157345947458091
4.157345947458091
4.151191475293081
4.163500419623101
4.151191475293081
4.163500419623101
4.163500419623101
4.157345947458091
4.157345947458091
4.157345947458091
4.163500419623101
4.157345947458091
4.157345947458091
4.157345947458091
4.157345947458091
4.145037003128072
4.138882530963089
4.163500419623101
4.163500419623101
4.138882530963089
4.12657358663307
4.1327280587980795
4.145037003128072
4.138882530963089
4.138882530963089
4.145037003128072
4.145037003128072
4.145037003128072
4.138882530963089
4.138882530963089
4.145037003128072
4.145037003128072
4.138882530963089
4.138882530963089
4.138882530963089
4.138882530963089
4.138882530963089
4.138882530963089
4.145037003128072
4.145037003128072
4.145037003128072
4.151191475293081
4.138882530963089
4.145037003128072
4.151191475293081
4.151191475293081
4.157345947458091
4.157345947458091
4.151191475293081
4.151191475293081
4.145037003128072
4.151191475293081
4.145037003128072
4.145037003128072
4.138882530963089
4.138882530963089
4.138882530963089
4.1327280587980795
4.12657358663307
4.1327280587980795
4.138882530963089
4.138882530963089
4.138882530963089
4.138882530963089
4.138882530963089
4.1327280587980795
4.120419114468088
4.101955697973087
4.083492281478085
4.089646753643067
4.1327280587980795
4.200427252613103
4.2865898629231
4.3727524732331275
4.37890694539811
4.3727524732331275
4.3112077515831135
4.225045141273086
4.114264642303079
4.034256504158063
4.0465654484880815
4.083492281478085
4.108110170138069
4.108110170138069
4.120419114468088
4.12657358663307
4.114264642303079
4.120419114468088
4.1327280587980795
4.1327280587980795
4.12657358663307
4.1327280587980795
4.12657358663307
4.138882530963089
4.12657358663307
4.1327280587980795
4.1327280587980795
4.1327280587980795
4.1327280587980795
4.1327280587980795
4.138882530963089
4.145037003128072
4.138882530963089
4.145037003128072
4.151191475293081
4.151191475293081
4.145037003128072
4.151191475293081
4.151191475293081
4.157345947458091
4.151191475293081
4.151191475293081
4.163500419623101
4.163500419623101
4.163500419623101
4.163500419623101
4.169654891788083
4.169654891788083
4.1758093639530935
4.188118308283084
4.1942727804480935
4.1942727804480935
4.200427252613103
4.2065817247780855
4.212736196943095
4.218890669108104
4.218890669108104
4.225045141273086
4.225045141273086
4.231199613438097
4.231199613438097
4.218890669108104
4.218890669108104
4.218890669108104
4.200427252613103
4.1942727804480935
4.181963836118102
4.163500419623101
4.145037003128072
4.157345947458091
4.151191475293081
4.138882530963089
4.1327280587980795
4.138882530963089
4.108110170138069
4.101955697973087
4.114264642303079
4.114264642303079
4.114264642303079
4.114264642303079
4.114264642303079
4.120419114468088
4.120419114468088
4.120419114468088
4.120419114468088
4.1327280587980795
4.120419114468088
4.1327280587980795
4.12657358663307
4.12657358663307
4.1327280587980795
4.138882530963089
4.12657358663307
4.1327280587980795
4.1327280587980795
4.12657358663307
4.138882530963089
4.12657358663307
4.12657358663307
4.138882530963089
4.1327280587980795
4.1327280587980795
4.1327280587980795
4.1327280587980795
4.1327280587980795
4.1327280587980795
4.1327280587980795
4.138882530963089
4.138882530963089
4.138882530963089
4.138882530963089
4.1327280587980795
4.138882530963089
4.1327280587980795
4.1327280587980795
4.1327280587980795
4.1327280587980795
4.138882530963089
4.1327280587980795
4.138882530963089
4.138882530963089
4.1327280587980795
4.1327280587980795
4.138882530963089
4.138882530963089
4.1327280587980795
4.1327280587980795
4.1327280587980795
4.138882530963089
4.1327280587980795
4.1327280587980795
4.1327280587980795
4.1327280587980795
4.138882530963089
4.145037003128072
4.145037003128072
4.145037003128072
4.151191475293081
4.151191475293081
4.151191475293081
4.151191475293081
4.145037003128072
4.138882530963089
4.1327280587980795
4.12657358663307
4.12657358663307
4.120419114468088
4.1327280587980795
4.12657358663307
4.1327280587980795
4.1327280587980795
4.120419114468088
4.12657358663307
4.1327280587980795
4.1327280587980795
4.138882530963089
4.1327280587980795
4.108110170138069
4.083492281478085
4.065028864983084
4.095801225808078
4.169654891788083
4.249663029933098
4.360443528903107
4.397370361893111
4.391215889728128
4.366598001068117
4.2681264464281
4.157345947458091
4.052719920653064
4.028102031993082
4.058874392818074
4.083492281478085
4.108110170138069
4.108110170138069
4.114264642303079
4.120419114468088
4.120419114468088
4.114264642303079
4.120419114468088
4.12657358663307
4.12657358663307
4.1327280587980795
4.1327280587980795
4.120419114468088
4.12657358663307
4.1327280587980795
4.1327280587980795
4.12657358663307
4.1327280587980795
4.12657358663307
4.12657358663307
4.108110170138069
4.1327280587980795
4.138882530963089
4.138882530963089
4.138882530963089
4.1327280587980795
4.138882530963089
4.12657358663307
4.1327280587980795
4.1327280587980795
4.138882530963089
4.157345947458091
4.151191475293081
4.163500419623101
4.1758093639530935
4.169654891788083
4.1758093639530935
4.181963836118102
4.1942727804480935
4.2065817247780855
4.2065817247780855
4.212736196943095
4.218890669108104
4.218890669108104
4.218890669108104
4.225045141273086
4.218890669108104
4.218890669108104
4.225045141273086
4.218890669108104
4.212736196943095
4.212736196943095
4.200427252613103
4.188118308283084
4.163500419623101
4.157345947458091
4.151191475293081
4.138882530963089
4.120419114468088
4.120419114468088
4.114264642303079
4.114264642303079
4.108110170138069
4.108110170138069
4.101955697973087
4.101955697973087
4.089646753643067
4.089646753643067
4.095801225808078
4.089646753643067
4.101955697973087
4.101955697973087
4.108110170138069
4.108110170138069
4.101955697973087
4.108110170138069
4.095801225808078
4.108110170138069
4.101955697973087
4.101955697973087
4.108110170138069
4.108110170138069
4.108110170138069
4.095801225808078
4.108110170138069
4.108110170138069
4.108110170138069
4.108110170138069
4.108110170138069
4.108110170138069
4.114264642303079
4.108110170138069
4.114264642303079
4.114264642303079
4.114264642303079
4.114264642303079
4.114264642303079
4.114264642303079
4.114264642303079
4.114264642303079
4.114264642303079
4.120419114468088
4.114264642303079
4.108110170138069
4.120419114468088
4.120419114468088
4.120419114468088
4.114264642303079
4.108110170138069
4.114264642303079
4.114264642303079
4.114264642303079
4.114264642303079
4.120419114468088
4.120419114468088
4.120419114468088
4.114264642303079
4.120419114468088
4.12657358663307
4.12657358663307
4.138882530963089
4.138882530963089
4.1327280587980795
4.138882530963089
4.138882530963089
4.138882530963089
4.12657358663307
4.12657358663307
4.114264642303079
4.114264642303079
4.120419114468088
4.114264642303079
4.120419114468088
4.120419114468088
4.114264642303079
4.114264642303079
4.120419114468088
4.114264642303079
4.12657358663307
4.120419114468088
4.101955697973087
4.101955697973087
4.077337809313075
4.058874392818074
4.083492281478085
4.151191475293081
4.243508557768089
4.354289056738125
4.40352483405812
4.397370361893111
4.360443528903107
4.249663029933098
4.120419114468088
4.028102031993082
3.9911751990030497
4.034256504158063
4.052719920653064
4.077337809313075
4.089646753643067
4.083492281478085
4.083492281478085
4.089646753643067
4.089646753643067
4.101955697973087
4.101955697973087
4.095801225808078
4.095801225808078
4.108110170138069
4.101955697973087
4.101955697973087
4.108110170138069
4.108110170138069
4.108110170138069
4.108110170138069
4.114264642303079
4.120419114468088
4.108110170138069
4.120419114468088
4.120419114468088
4.120419114468088
4.12657358663307
4.12657358663307
4.12657358663307
4.1327280587980795
4.1327280587980795
4.1327280587980795
4.145037003128072
4.151191475293081
4.157345947458091
4.163500419623101
4.163500419623101
4.169654891788083
4.181963836118102
4.188118308283084
4.188118308283084
4.2065817247780855
4.2065817247780855
4.212736196943095
4.218890669108104
4.225045141273086
4.225045141273086
4.231199613438097
4.225045141273086
4.225045141273086
4.237354085603107
4.225045141273086
4.218890669108104
4.212736196943095
4.2065817247780855
4.188118308283084
4.181963836118102
4.169654891788083
4.145037003128072
4.145037003128072
4.138882530963089
4.12657358663307
4.114264642303079
4.114264642303079
4.108110170138069
4.108110170138069
4.101955697973087
4.101955697973087
4.108110170138069
4.101955697973087
4.114264642303079
4.108110170138069
4.114264642303079
4.114264642303079
4.108110170138069
4.114264642303079
4.108110170138069
4.114264642303079
4.114264642303079
4.114264642303079
4.114264642303079
4.114264642303079
4.120419114468088
4.120419114468088
4.114264642303079
4.120419114468088
4.120419114468088
4.12657358663307
4.120419114468088
4.12657358663307
4.12657358663307
4.12657358663307
4.120419114468088
4.12657358663307
4.120419114468088
4.1327280587980795
4.12657358663307
4.1327280587980795
4.12657358663307
4.1327280587980795
4.12657358663307
4.12657358663307
4.1327280587980795
4.120419114468088
4.120419114468088
4.120419114468088
4.12657358663307
4.114264642303079
4.108110170138069
4.1327280587980795
4.1327280587980795
4.12657358663307
4.12657358663307
4.1327280587980795
4.1327280587980795
4.120419114468088
4.120419114468088
4.12657358663307
4.138882530963089
4.1327280587980795
4.1327280587980795
4.145037003128072
4.138882530963089
4.1327280587980795
4.12657358663307
4.120419114468088
4.12657358663307
4.12657358663307
4.12657358663307
4.12657358663307
4.1327280587980795
4.12657358663307
4.120419114468088
4.12657358663307
4.12657358663307
4.12657358663307
4.12657358663307
4.1327280587980795
4.114264642303079
4.089646753643067
4.065028864983084
4.0711833371480655
4.114264642303079
4.2065817247780855
4.3173622237481215
4.421988250553122
4.446606139213133
4.434297194883113
4.366598001068117
4.231199613438097
4.108110170138069
4.034256504158063
4.009638615498079
4.052719920653064
4.083492281478085
4.101955697973087
4.108110170138069
4.114264642303079
4.12657358663307
4.120419114468088
4.120419114468088
4.12657358663307
4.1327280587980795
4.1327280587980795
4.138882530963089
4.138882530963089
4.1327280587980795
4.1327280587980795
4.1327280587980795
4.12657358663307
4.12657358663307
4.138882530963089
4.145037003128072
4.151191475293081
4.151191475293081
4.157345947458091
4.145037003128072
4.145037003128072
4.12657358663307
4.145037003128072
4.169654891788083
4.1758093639530935
4.169654891788083
4.169654891788083
4.1758093639530935
4.169654891788083
4.163500419623101
4.1758093639530935
4.1942727804480935
4.1942727804480935
4.1942727804480935
4.2065817247780855
4.212736196943095
4.218890669108104
4.231199613438097
4.231199613438097
4.249663029933098
4.243508557768089
4.249663029933098
4.255817502098108
4.255817502098108
4.255817502098108
4.249663029933098
4.255817502098108
4.237354085603107
4.231199613438097
4.225045141273086
4.212736196943095
4.1942727804480935
4.169654891788083
4.163500419623101
4.157345947458091
4.151191475293081
4.1327280587980795
4.138882530963089
4.1327280587980795
4.1327280587980795
4.120419114468088
4.120419114468088
4.114264642303079
4.108110170138069
4.114264642303079
4.12657358663307
4.120419114468088
4.120419114468088
4.120419114468088
4.120419114468088
4.120419114468088
4.120419114468088
4.114264642303079
4.089646753643067
4.12657358663307
4.12657358663307
4.114264642303079
4.120419114468088
4.12657358663307
4.138882530963089
4.138882530963089
4.145037003128072
4.145037003128072
4.1327280587980795
4.1327280587980795
4.138882530963089
4.145037003128072
4.138882530963089
4.138882530963089
4.145037003128072
4.145037003128072
4.145037003128072
4.151191475293081
4.145037003128072
4.138882530963089
4.1327280587980795
4.138882530963089
4.138882530963089
4.138882530963089
4.1327280587980795
4.1327280587980795
4.138882530963089
4.138882530963089
4.1327280587980795
4.1327280587980795
4.1327280587980795
4.138882530963089
4.151191475293081
4.151191475293081
4.157345947458091
4.151191475293081
4.145037003128072
4.145037003128072
4.138882530963089
4.12657358663307
4.12657358663307
4.12657358663307
4.12657358663307
4.083492281478085
4.095801225808078
4.120419114468088
4.120419114468088
4.114264642303079
4.114264642303079
4.120419114468088
4.120419114468088
4.1327280587980795
4.12657358663307
4.114264642303079
4.095801225808078
4.058874392818074
4.0465654484880815
4.089646753643067
4.157345947458091
4.255817502098108
4.354289056738125
4.391215889728128
4.397370361893111
4.348134584573115
4.243508557768089
4.1327280587980795
4.021947559828071
3.9973296711680604
4.015793087663061
4.0465654484880815
4.0711833371480655
4.077337809313075
4.089646753643067
4.089646753643067
4.083492281478085
4.101955697973087
4.095801225808078
4.101955697973087
4.101955697973087
4.101955697973087
4.108110170138069
4.108110170138069
4.108110170138069
4.114264642303079
4.120419114468088
4.114264642303079
4.120419114468088
4.114264642303079
4.120419114468088
4.12657358663307
4.12657358663307
4.1327280587980795
4.138882530963089
4.1327280587980795
4.138882530963089
4.1327280587980795
4.145037003128072
4.138882530963089
4.138882530963089
4.145037003128072
4.157345947458091
4.157345947458091
4.157345947458091
4.163500419623101
4.1758093639530935
4.181963836118102
4.181963836118102
4.188118308283084
4.1942727804480935
4.200427252613103
4.200427252613103
4.2065817247780855
4.212736196943095
4.2065817247780855
4.200427252613103
4.1942727804480935
4.089646753643067
3.9419394216830552
3.855776811373057
3.788077617558033
3.6896060629180156
3.6896060629180156
3.6465247577630033
3.591134508277999
3.548053203123014
3.486508481473
3.4311182319879947
3.400345871162974
3.3880369268329824
3.381882454667973
3.6465247577630033
4.12657358663307
4.188118308283084
4.181963836118102
4.169654891788083
4.1758093639530935
4.169654891788083
4.181963836118102
4.1758093639530935
4.169654891788083
4.1758093639530935
4.1758093639530935
4.1758093639530935
4.1758093639530935
4.169654891788083
4.1758093639530935
4.169654891788083
4.181963836118102
4.188118308283084
4.181963836118102
4.181963836118102
4.1758093639530935
4.1758093639530935
4.1758093639530935
4.1758093639530935
4.1758093639530935
4.1758093639530935
4.1758093639530935
4.181963836118102
4.181963836118102
4.181963836118102
4.181963836118102
4.181963836118102
4.181963836118102
4.1758093639530935
4.1758093639530935
4.1758093639530935
4.1758093639530935
4.1758093639530935
4.181963836118102
4.169654891788083
4.1758093639530935
4.163500419623101
4.169654891788083
4.1758093639530935
4.169654891788083
4.163500419623101
4.1758093639530935
4.181963836118102
4.188118308283084
4.188118308283084
4.181963836118102
4.1758093639530935
4.169654891788083
4.1758093639530935
4.169654891788083
4.169654891788083
4.163500419623101
4.157345947458091
4.157345947458091
4.163500419623101
4.157345947458091
4.157345947458091
4.163500419623101
4.157345947458091
4.163500419623101
4.157345947458091
4.157345947458091
4.101955697973087
3.9357849495180455
3.8065410340530352
3.7080694794130173
3.6219068691030203
3.5972889804430093
3.6219068691030203
3.6896060629180156
3.8188499783830263
4.009638615498079
4.1942727804480935
4.354289056738125
4.397370361893111
4.3173622237481215
4.188118308283084
4.108110170138069
4.114264642303079
4.145037003128072
4.1758093639530935
4.1758093639530935
4.181963836118102
4.181963836118102
4.188118308283084
4.188118308283084
4.181963836118102
4.181963836118102
4.1942727804480935
4.188118308283084
4.1942727804480935
4.188118308283084
4.188118308283084
4.1942727804480935
4.200427252613103
4.2065817247780855
4.2065817247780855
4.2065817247780855
4.2065817247780855
4.200427252613103
4.200427252613103
4.1942727804480935
4.200427252613103
4.200427252613103
4.200427252613103
4.2065817247780855
4.200427252613103
4.2065817247780855
4.2065817247780855
4.212736196943095
4.225045141273086
4.225045141273086
4.237354085603107
4.243508557768089
4.243508557768089
4.255817502098108
4.249663029933098
4.255817502098108
4.27428091859311
4.280435390758092
4.27428091859311
4.280435390758092
4.280435390758092
4.2681264464281
4.298898807253093
4.298898807253093
4.292744335088111
4.2865898629231
4.292744335088111
4.27428091859311
4.255817502098108
4.231199613438097
4.225045141273086
4.212736196943095
4.200427252613103
4.181963836118102
4.169654891788083
4.169654891788083
4.157345947458091
4.157345947458091
4.138882530963089
4.145037003128072
4.138882530963089
4.138882530963089
4.1327280587980795
4.145037003128072
4.1327280587980795
4.1327280587980795
4.138882530963089
4.1327280587980795
4.138882530963089
4.138882530963089
4.1327280587980795
4.138882530963089
4.145037003128072
4.151191475293081
4.145037003128072
4.145037003128072
4.138882530963089
4.138882530963089
4.138882530963089
4.145037003128072
4.138882530963089
4.1327280587980795
4.138882530963089
4.145037003128072
4.138882530963089
4.145037003128072
4.138882530963089
4.1327280587980795
4.1327280587980795
4.138882530963089
4.138882530963089
4.151191475293081
4.145037003128072
4.138882530963089
4.138882530963089
4.145037003128072
4.145037003128072
4.145037003128072
4.151191475293081
4.145037003128072
4.138882530963089
4.151191475293081
4.145037003128072
4.151191475293081
4.145037003128072
4.157345947458091
4.163500419623101
4.163500419623101
4.163500419623101
4.163500419623101
4.163500419623101
4.1758093639530935
4.169654891788083
4.157345947458091
4.157345947458091
4.145037003128072
4.145037003128072
4.151191475293081
4.145037003128072
4.157345947458091
4.163500419623101
4.151191475293081
4.151191475293081
4.157345947458091
4.157345947458091
4.151191475293081
4.157345947458091
4.157345947458091
4.138882530963089
4.089646753643067
4.077337809313075
4.089646753643067
4.163500419623101
4.261971974263091
4.37890694539811
4.452760611378115
4.458915083543125
4.440451667048122
4.335825640243124
4.218890669108104
4.095801225808078
4.028102031993082
4.040410976323072
4.083492281478085
4.108110170138069
4.108110170138069
4.108110170138069
4.138882530963089
4.138882530963089
4.138882530963089
4.12657358663307
4.114264642303079
4.12657358663307
4.12657358663307
4.12657358663307
4.138882530963089
4.138882530963089
4.1327280587980795
4.1327280587980795
4.138882530963089
4.138882530963089
4.145037003128072
4.151191475293081
4.145037003128072
4.157345947458091
4.157345947458091
4.157345947458091
4.163500419623101
4.163500419623101
4.157345947458091
4.169654891788083
4.1758093639530935
4.1758093639530935
4.1758093639530935
4.1758093639530935
4.181963836118102
4.1942727804480935
4.1942727804480935
4.200427252613103
4.200427252613103
4.212736196943095
4.225045141273086
4.218890669108104
4.225045141273086
4.237354085603107
4.243508557768089
4.249663029933098
4.249663029933098
4.255817502098108
4.249663029933098
4.243508557768089
4.249663029933098
4.243508557768089
4.237354085603107
4.225045141273086
4.2065817247780855
4.1942727804480935
4.1758093639530935
4.157345947458091
4.151191475293081
4.138882530963089
4.138882530963089
4.12657358663307
4.120419114468088
4.114264642303079
4.108110170138069
4.108110170138069
4.108110170138069
4.108110170138069
4.108110170138069
4.108110170138069
4.114264642303079
4.120419114468088
4.108110170138069
4.120419114468088
4.114264642303079
4.114264642303079
4.108110170138069
4.108110170138069
4.108110170138069
4.108110170138069
4.120419114468088
4.114264642303079
4.120419114468088
4.120419114468088
4.120419114468088
4.120419114468088
4.120419114468088
4.120419114468088
4.114264642303079
4.120419114468088
4.120419114468088
4.12657358663307
4.12657358663307
4.120419114468088
4.114264642303079
4.114264642303079
4.114264642303079
4.120419114468088
4.12657358663307
4.120419114468088
4.114264642303079
4.114264642303079
4.114264642303079
4.120419114468088
4.12657358663307
4.114264642303079
4.114264642303079
4.120419114468088
4.120419114468088
4.120419114468088
4.12657358663307
4.138882530963089
4.145037003128072
4.1327280587980795
4.12657358663307
4.1327280587980795
4.1327280587980795
4.12657358663307
4.12657358663307
4.114264642303079
4.114264642303079
4.101955697973087
4.120419114468088
4.120419114468088
4.114264642303079
4.108110170138069
4.095801225808078
4.083492281478085
4.108110170138069
4.114264642303079
4.114264642303079
4.114264642303079
4.108110170138069
4.089646753643067
4.034256504158063
4.003484143333068
4.015793087663061
4.083492281478085
4.181963836118102
4.298898807253093
4.40967930622313
4.428142722718132
4.415833778388112
4.323516695913104
4.200427252613103
4.083492281478085
3.9973296711680604
3.9911751990030497
4.034256504158063
4.0711833371480655
4.083492281478085
4.077337809313075
4.089646753643067
4.089646753643067
4.089646753643067
4.095801225808078
4.101955697973087
4.101955697973087
4.101955697973087
4.101955697973087
4.101955697973087
4.101955697973087
4.114264642303079
4.108110170138069
4.101955697973087
4.108110170138069
4.101955697973087
4.114264642303079
4.101955697973087
4.114264642303079
4.120419114468088
4.120419114468088
4.120419114468088
4.120419114468088
4.120419114468088
4.120419114468088
4.12657358663307
4.1327280587980795
4.1327280587980795
4.138882530963089
4.145037003128072
4.145037003128072
4.157345947458091
4.163500419623101
4.1758093639530935
4.169654891788083
4.181963836118102
4.188118308283084
4.188118308283084
4.200427252613103
4.200427252613103
4.2065817247780855
4.2065817247780855
4.218890669108104
4.218890669108104
4.2065817247780855
4.2065817247780855
4.200427252613103
4.1942727804480935
4.181963836118102
4.1758093639530935
4.157345947458091
4.138882530963089
4.12657358663307
4.114264642303079
4.095801225808078
4.089646753643067
4.083492281478085
4.083492281478085
4.077337809313075
4.0711833371480655
4.0711833371480655
4.052719920653064
4.0711833371480655
4.083492281478085
4.077337809313075
4.0711833371480655
4.077337809313075
4.077337809313075
4.083492281478085
4.058874392818074
4.058874392818074
4.058874392818074
4.0711833371480655
4.065028864983084
4.077337809313075
4.077337809313075
4.0711833371480655
4.077337809313075
4.0711833371480655
4.077337809313075
4.0711833371480655
4.0711833371480655
4.077337809313075
4.077337809313075
4.077337809313075
4.083492281478085
4.077337809313075
4.089646753643067
4.089646753643067
4.083492281478085
4.077337809313075
4.083492281478085
4.083492281478085
4.083492281478085
4.077337809313075
4.083492281478085
4.083492281478085
4.0711833371480655
4.058874392818074
4.083492281478085
4.0711833371480655
4.065028864983084
4.077337809313075
4.077337809313075
4.0711833371480655
4.077337809313075
4.077337809313075
4.083492281478085
4.089646753643067
4.095801225808078
4.095801225808078
4.095801225808078
4.101955697973087
4.108110170138069
4.095801225808078
4.095801225808078
4.089646753643067
4.089646753643067
4.077337809313075
4.0711833371480655
4.089646753643067
4.083492281478085
4.077337809313075
4.083492281478085
4.077337809313075
4.083492281478085
4.083492281478085
4.089646753643067
4.077337809313075
4.083492281478085
4.083492281478085
4.0711833371480655
4.034256504158063
3.9973296711680604
4.003484143333068
4.058874392818074
4.157345947458091
4.27428091859311
4.397370361893111
4.434297194883113
4.415833778388112
4.335825640243124
4.218890669108104
4.077337809313075
3.9788662546730578
3.9604028381780574
3.9973296711680604
4.034256504158063
4.040410976323072
4.0465654484880815
4.052719920653064
4.065028864983084
4.0711833371480655
4.058874392818074
4.065028864983084
4.0711833371480655
4.0711833371480655
4.077337809313075
4.0711833371480655
4.077337809313075
4.0711833371480655
4.0711833371480655
4.077337809313075
4.077337809313075
4.077337809313075
4.077337809313075
4.077337809313075
4.077337809313075
4.089646753643067
4.083492281478085
4.089646753643067
4.089646753643067
4.095801225808078
4.089646753643067
4.101955697973087
4.108110170138069
4.108110170138069
4.114264642303079
4.114264642303079
4.12657358663307
4.120419114468088
4.1327280587980795
4.138882530963089
4.145037003128072
4.157345947458091
4.157345947458091
4.169654891788083
4.169654891788083
4.1758093639530935
4.181963836118102
4.188118308283084
4.181963836118102
4.188118308283084
4.181963836118102
4.188118308283084
4.181963836118102
4.1758093639530935
4.169654891788083
4.151191475293081
4.138882530963089
4.12657358663307
4.114264642303079
4.095801225808078
4.083492281478085
4.0711833371480655
4.065028864983084
4.065028864983084
4.058874392818074
4.052719920653064
4.052719920653064
4.052719920653064
4.040410976323072
4.0465654484880815
4.0465654484880815
4.052719920653064
4.052719920653064
4.052719920653064
4.052719920653064
4.0465654484880815
4.040410976323072
4.040410976323072
4.058874392818074
4.065028864983084
4.065028864983084
4.065028864983084
4.052719920653064
4.034256504158063
4.0465654484880815
4.052719920653064
4.052719920653064
4.058874392818074
4.058874392818074
4.058874392818074
4.065028864983084
4.065028864983084
4.065028864983084
4.065028864983084
4.058874392818074
4.065028864983084
4.058874392818074
4.065028864983084
4.065028864983084
4.065028864983084
4.0711833371480655
4.065028864983084
4.058874392818074
4.065028864983084
4.065028864983084
4.058874392818074
4.058874392818074
4.065028864983084
4.065028864983084
4.058874392818074
4.065028864983084
4.0711833371480655
4.058874392818074
4.065028864983084
4.0711833371480655
4.0711833371480655
4.065028864983084
4.077337809313075
4.083492281478085
4.089646753643067
4.089646753643067
4.095801225808078
4.089646753643067
4.089646753643067
4.095801225808078
4.089646753643067
4.083492281478085
4.083492281478085
4.0711833371480655
4.077337809313075
4.0711833371480655
4.077337809313075
4.077337809313075
4.0711833371480655
4.0711833371480655
4.077337809313075
4.077337809313075
4.077337809313075
4.0711833371480655
4.0711833371480655
4.0711833371480655
4.052719920653064
4.009638615498079
3.9850207268380675
4.015793087663061
4.101955697973087
4.2065817247780855
4.335825640243124
4.40967930622313
4.40967930622313
4.385061417563119
4.27428091859311
4.145037003128072
4.021947559828071
3.9542483660130467
3.9727117825080476
4.003484143333068
4.040410976323072
4.052719920653064
4.065028864983084
4.065028864983084
4.065028864983084
4.0711833371480655
4.077337809313075
4.0711833371480655
4.083492281478085
4.083492281478085
4.077337809313075
4.089646753643067
4.077337809313075
4.089646753643067
4.089646753643067
4.083492281478085
4.089646753643067
4.095801225808078
4.095801225808078
4.089646753643067
4.095801225808078
4.101955697973087
4.095801225808078
4.101955697973087
4.108110170138069
4.114264642303079
4.114264642303079
4.108110170138069
4.120419114468088
4.120419114468088
4.120419114468088
4.1327280587980795
4.138882530963089
4.145037003128072
4.145037003128072
4.145037003128072
4.157345947458091
4.163500419623101
4.1758093639530935
4.181963836118102
4.181963836118102
4.181963836118102
4.169654891788083
4.1758093639530935
4.181963836118102
4.188118308283084
4.188118308283084
4.188118308283084
4.181963836118102
4.169654891788083
4.157345947458091
4.138882530963089
4.1327280587980795
4.101955697973087
4.095801225808078
4.089646753643067
4.0711833371480655
4.0711833371480655
4.058874392818074
4.058874392818074
4.052719920653064
4.052719920653064
4.052719920653064
4.0465654484880815
4.052719920653064
4.052719920653064
4.052719920653064
4.0465654484880815
4.0465654484880815
4.0465654484880815
4.052719920653064
4.0465654484880815
4.052719920653064
4.052719920653064
4.021947559828071
4.052719920653064
4.065028864983084
4.065028864983084
4.065028864983084
4.058874392818074
4.0711833371480655
4.065028864983084
4.034256504158063
4.040410976323072
4.0465654484880815
4.052719920653064
4.058874392818074
4.058874392818074
4.065028864983084
4.058874392818074
4.065028864983084
4.058874392818074
4.0711833371480655
4.052719920653064
4.052719920653064
4.058874392818074
4.058874392818074
4.058874392818074
4.0711833371480655
4.065028864983084
4.0711833371480655
4.0711833371480655
4.077337809313075
4.077337809313075
4.077337809313075
4.0711833371480655
4.077337809313075
4.083492281478085
4.083492281478085
4.083492281478085
4.077337809313075
4.083492281478085
4.077337809313075
4.077337809313075
4.089646753643067
4.083492281478085
4.083492281478085
4.089646753643067
4.095801225808078
4.101955697973087
4.108110170138069
4.108110170138069
4.101955697973087
4.108110170138069
4.108110170138069
4.101955697973087
4.089646753643067
4.089646753643067
4.083492281478085
4.089646753643067
4.089646753643067
4.089646753643067
4.089646753643067
4.095801225808078
4.089646753643067
4.095801225808078
4.089646753643067
4.083492281478085
4.095801225808078
4.089646753643067
4.0711833371480655
4.034256504158063
4.021947559828071
4.040410976323072
4.095801225808078
4.188118308283084
4.292744335088111
4.385061417563119
4.40352483405812
4.391215889728128
4.3112077515831135
4.181963836118102
4.065028864983084
3.9850207268380675
3.9788662546730578
4.003484143333068
4.040410976323072
4.058874392818074
4.065028864983084
4.077337809313075
4.077337809313075
4.083492281478085
4.089646753643067
4.089646753643067
4.077337809313075
4.095801225808078
4.101955697973087
4.101955697973087
4.077337809313075
4.089646753643067
4.089646753643067
4.101955697973087
4.095801225808078
4.101955697973087
4.108110170138069
4.114264642303079
4.114264642303079
4.114264642303079
4.120419114468088
4.114264642303079
4.120419114468088
4.12657358663307
4.12657358663307
4.12657358663307
4.1327280587980795
4.1327280587980795
4.145037003128072
4.138882530963089
4.151191475293081
4.151191475293081
4.151191475293081
4.157345947458091
4.169654891788083
4.181963836118102
4.188118308283084
4.188118308283084
4.1942727804480935
4.200427252613103
4.200427252613103
4.200427252613103
4.2065817247780855
4.2065817247780855
4.200427252613103
4.200427252613103
4.200427252613103
4.200427252613103
4.181963836118102
4.169654891788083
4.157345947458091
4.145037003128072
4.12657358663307
4.120419114468088
4.114264642303079
4.108110170138069
4.101955697973087
4.089646753643067
4.083492281478085
4.083492281478085
4.083492281478085
4.083492281478085
4.0711833371480655
4.077337809313075
4.0711833371480655
4.0711833371480655
4.077337809313075
4.077337809313075
4.0711833371480655
4.0711833371480655
4.0711833371480655
4.0711833371480655
4.077337809313075
4.077337809313075
4.077337809313075
4.077337809313075
4.077337809313075
4.077337809313075
4.077337809313075
4.0711833371480655
4.077337809313075
4.077337809313075
4.077337809313075
4.077337809313075
4.083492281478085
4.083492281478085
4.089646753643067
4.089646753643067
4.089646753643067
4.083492281478085
4.089646753643067
4.089646753643067
4.083492281478085
4.077337809313075
4.0711833371480655
4.0711833371480655
4.077337809313075
4.0711833371480655
4.0711833371480655
4.065028864983084
4.065028864983084
4.077337809313075
4.0711833371480655
4.0711833371480655
4.0711833371480655
4.0711833371480655
4.065028864983084
4.077337809313075
4.0711833371480655
4.077337809313075
4.083492281478085
4.089646753643067
4.089646753643067
4.077337809313075
4.089646753643067
4.101955697973087
4.101955697973087
4.101955697973087
4.101955697973087
4.108110170138069
4.095801225808078
4.101955697973087
4.108110170138069
4.095801225808078
4.095801225808078
4.089646753643067
4.095801225808078
4.095801225808078
4.089646753643067
4.114264642303079
4.108110170138069
4.101955697973087
4.108110170138069
4.101955697973087
4.101955697973087
4.083492281478085
4.083492281478085
4.083492281478085
4.058874392818074
4.028102031993082
4.028102031993082
4.083492281478085
4.163500419623101
4.2681264464281
4.354289056738125
4.385061417563119
4.37890694539811
4.329671168078114
4.231199613438097
4.120419114468088
4.009638615498079
3.9973296711680604
4.028102031993082
4.058874392818074
4.0711833371480655
4.083492281478085
4.089646753643067
4.095801225808078
4.095801225808078
4.089646753643067
4.095801225808078
4.095801225808078
4.101955697973087
4.095801225808078
4.095801225808078
4.095801225808078
4.095801225808078
4.095801225808078
4.101955697973087
4.101955697973087
4.101955697973087
4.101955697973087
4.108110170138069
4.114264642303079
4.108110170138069
4.108110170138069
4.114264642303079
4.114264642303079
4.114264642303079
4.120419114468088
4.114264642303079
4.114264642303079
4.12657358663307
4.12657358663307
4.1327280587980795
4.138882530963089
4.145037003128072
4.151191475293081
4.157345947458091
4.157345947458091
4.163500419623101
4.169654891788083
4.181963836118102
4.181963836118102
4.188118308283084
4.188118308283084
4.1942727804480935
4.200427252613103
4.1942727804480935
4.200427252613103
4.1942727804480935
4.1942727804480935
4.188118308283084
4.181963836118102
4.163500419623101
4.145037003128072
4.1327280587980795
4.1327280587980795
4.120419114468088
4.101955697973087
4.095801225808078
4.083492281478085
4.077337809313075
4.0711833371480655
4.0711833371480655
4.077337809313075
4.077337809313075
4.065028864983084
4.0711833371480655
4.065028864983084
4.065028864983084
4.065028864983084
4.0711833371480655
4.065028864983084
4.065028864983084
4.065028864983084
4.077337809313075
4.077337809313075
4.058874392818074
4.058874392818074
4.089646753643067
4.089646753643067
4.077337809313075
4.077337809313075
4.083492281478085
4.095801225808078
4.083492281478085
4.065028864983084
4.0711833371480655
4.077337809313075
4.083492281478085
4.077337809313075
4.083492281478085
4.083492281478085
4.089646753643067
4.083492281478085
4.089646753643067
4.095801225808078
4.089646753643067
4.083492281478085
4.0711833371480655
4.095801225808078
4.0711833371480655
4.077337809313075
4.089646753643067
4.083492281478085
4.083492281478085
4.083492281478085
4.089646753643067
4.095801225808078
4.095801225808078
4.095801225808078
4.089646753643067
4.089646753643067
4.095801225808078
4.101955697973087
4.095801225808078
4.095801225808078
4.095801225808078
4.101955697973087
4.095801225808078
4.095801225808078
4.101955697973087
4.114264642303079
4.114264642303079
4.120419114468088
4.12657358663307
4.114264642303079
4.120419114468088
4.120419114468088
4.114264642303079
4.101955697973087
4.095801225808078
4.095801225808078
4.095801225808078
4.089646753643067
4.089646753643067
4.095801225808078
4.089646753643067
4.089646753643067
4.095801225808078
4.089646753643067
4.095801225808078
4.095801225808078
4.089646753643067
4.089646753643067
4.058874392818074
4.034256504158063
4.028102031993082
4.077337809313075
4.157345947458091
4.249663029933098
4.354289056738125
4.397370361893111
4.40352483405812
4.354289056738125
4.255817502098108
4.145037003128072
4.021947559828071
4.003484143333068
4.028102031993082
4.052719920653064
4.077337809313075
4.077337809313075
4.089646753643067
4.095801225808078
4.101955697973087
4.095801225808078
4.095801225808078
4.101955697973087
4.108110170138069
4.101955697973087
4.114264642303079
4.108110170138069
4.108110170138069
4.114264642303079
4.108110170138069
4.114264642303079
4.114264642303079
4.120419114468088
4.120419114468088
4.120419114468088
4.12657358663307
4.12657358663307
4.120419114468088
4.12657358663307
4.12657358663307
4.12657358663307
4.12657358663307
4.138882530963089
4.138882530963089
4.145037003128072
4.157345947458091
4.163500419623101
4.151191475293081
4.163500419623101
4.169654891788083
4.1758093639530935
4.188118308283084
4.200427252613103
4.200427252613103
4.2065817247780855
4.218890669108104
4.218890669108104
4.225045141273086
4.231199613438097
4.231199613438097
4.225045141273086
4.225045141273086
4.225045141273086
4.218890669108104
4.2065817247780855
4.200427252613103
4.188118308283084
4.1758093639530935
4.163500419623101
4.151191475293081
4.145037003128072
4.12657358663307
4.120419114468088
4.120419114468088
4.108110170138069
4.083492281478085
4.114264642303079
4.114264642303079
4.114264642303079
4.101955697973087
4.083492281478085
4.095801225808078
4.095801225808078
4.095801225808078
4.101955697973087
4.108110170138069
4.101955697973087
4.101955697973087
4.108110170138069
4.114264642303079
4.114264642303079
4.108110170138069
4.114264642303079
4.114264642303079
4.114264642303079
4.114264642303079
4.120419114468088
4.120419114468088
4.120419114468088
4.114264642303079
4.120419114468088
4.120419114468088
4.120419114468088
4.114264642303079
4.114264642303079
4.12657358663307
4.120419114468088
4.120419114468088
4.12657358663307
4.120419114468088
4.120419114468088
4.12657358663307
4.120419114468088
4.12657358663307
4.12657358663307
4.12657358663307
4.120419114468088
4.120419114468088
4.120419114468088
4.120419114468088
4.120419114468088
4.12657358663307
4.12657358663307
4.120419114468088
4.12657358663307
4.120419114468088
4.120419114468088
4.12657358663307
4.120419114468088
4.12657358663307
4.12657358663307
4.12657358663307
4.12657358663307
4.120419114468088
4.12657358663307
4.1327280587980795
4.12657358663307
4.120419114468088
4.1327280587980795
4.145037003128072
4.138882530963089
4.145037003128072
4.145037003128072
4.145037003128072
4.145037003128072
4.138882530963089
4.1327280587980795
4.120419114468088
4.114264642303079
4.114264642303079
4.114264642303079
4.114264642303079
4.120419114468088
4.114264642303079
4.114264642303079
4.114264642303079
4.114264642303079
4.114264642303079
4.108110170138069
4.114264642303079
4.095801225808078
4.0711833371480655
4.0465654484880815
4.0465654484880815
4.101955697973087
4.169654891788083
4.27428091859311
4.366598001068117
4.40352483405812
4.397370361893111
4.354289056738125
4.243508557768089
4.1327280587980795
4.021947559828071
4.009638615498079
4.034256504158063
4.065028864983084
4.077337809313075
4.083492281478085
4.095801225808078
4.095801225808078
4.101955697973087
4.089646753643067
4.095801225808078
4.101955697973087
4.101955697973087
4.101955697973087
4.108110170138069
4.108110170138069
4.108110170138069
4.108110170138069
4.108110170138069
4.114264642303079
4.12657358663307
4.12657358663307
4.114264642303079
4.114264642303079
4.108110170138069
4.138882530963089
4.151191475293081
4.1327280587980795
4.1327280587980795
4.138882530963089
4.145037003128072
4.0711833371480655
3.2526385392029624
1.7324839144477464
1.1170366979476598
1.1539635309376628
1.2278171969176688
1.3078253350626845
1.3693700567126987
1.4432237226927047
1.504768444342719
1.5663131659927332
1.6278578876427194
1.683248137127724
1.7324839144477464
1.7755652196027594
1.8248009969227539
1.861727829912757
1.91096360723278
1.9478904402227823
1.990971745377768
2.015589634037779
2.0586709391927913
2.083288827852803
2.114061188677796
2.138679077337807
2.1571424938328088
2.1694514381628007
2.187914854657802
2.2063782711528033
2.224841687647805
2.255614048472826
2.2740774649678275
2.298695353627811
2.323313242287822
2.347931130947833
2.372549019607845
2.409475852597848
2.4279392690928487
2.4525571577528327
2.477175046412844
2.483329518577854
2.520256351567857
2.55718318455786
2.581801073217871
2.606418961877855
2.618727906207874
2.6433457948678853
2.674118155692878
2.680272627857888
2.704890516517872
2.729508405177883
2.747971821672884
2.778744182497905
2.8095165433228986
2.8279799598179
2.8402889041478923
2.858752320642893
2.883370209302905
2.907988097962916
2.944914930952919
2.975687291777912
3.0310775412629165
3.1972482897179573
3.4126548154929934
3.548053203123014
3.658833702093023
3.732687368073029
3.788077617558033
3.8434678670430373
3.8988581165280416
3.9357849495180455
3.9788662546730578
4.028102031993082
4.058874392818074
4.101955697973087
4.138882530963089
4.157345947458091
4.188118308283084
4.212736196943095
4.225045141273086
4.243508557768089
4.280435390758092
4.292744335088111
4.3112077515831135
4.335825640243124
4.354289056738125
4.37890694539811
4.385061417563119
4.391215889728128
4.40967930622313
4.428142722718132
4.434297194883113
4.440451667048122
4.471224027873144
4.514305333028129
4.495841916533128
4.483532972203136
4.514305333028129
4.526614277358149
4.54507769385315
4.54507769385315
4.551232166018132
4.557386638183142
4.551232166018132
4.575850054678144
4.575850054678144
4.563541110348153
4.563541110348153
4.5820045268431535
4.5943134711731455
4.575850054678144
4.569695582513134
4.514305333028129
4.563541110348153
4.569695582513134
4.54507769385315
4.618931359833156
4.612776887668146
4.588158999008135
4.551232166018132
4.5327687495231315
4.538923221688139
4.5943134711731455
4.67432160931816
4.766638691793168
4.8528013021031935
4.889728135093197
4.889728135093197
4.828183413443182
4.698939497978172
4.588158999008135
4.526614277358149
4.501996388698137
4.514305333028129
4.538923221688139
4.563541110348153
4.575850054678144
4.5820045268431535
4.5943134711731455
4.588158999008135
4.588158999008135
4.5943134711731455
4.5943134711731455
4.6004679433381535
4.6004679433381535
4.588158999008135
4.5943134711731455
4.588158999008135
4.6004679433381535
4.5943134711731455
4.588158999008135
4.5820045268431535
4.5820045268431535
4.588158999008135
4.5820045268431535
4.5820045268431535
4.5820045268431535
4.5820045268431535
4.5820045268431535
4.5820045268431535
4.575850054678144
4.5820045268431535
4.588158999008135
4.5943134711731455
4.588158999008135
4.588158999008135
4.5820045268431535
4.5943134711731455
4.588158999008135
4.6004679433381535
4.606622415503137
4.606622415503137
4.612776887668146
4.612776887668146
4.606622415503137
4.625085831998166
4.625085831998166
4.625085831998166
4.618931359833156
4.618931359833156
4.606622415503137
4.612776887668146
4.612776887668146
4.6004679433381535
4.6004679433381535
4.5943134711731455
4.575850054678144
4.563541110348153
4.54507769385315
4.5327687495231315
4.5327687495231315
4.520459805193139
4.514305333028129
4.495841916533128
4.483532972203136
4.489687444368147
4.495841916533128
4.465069555708134
4.458915083543125
4.452760611378115
4.465069555708134
4.471224027873144
4.458915083543125
4.446606139213133
4.458915083543125
4.458915083543125
4.440451667048122
4.452760611378115
4.452760611378115
4.446606139213133
4.452760611378115
4.452760611378115
4.440451667048122
4.434297194883113
4.434297194883113
4.440451667048122
4.446606139213133
4.452760611378115
4.440451667048122
4.434297194883113
4.434297194883113
4.434297194883113
4.434297194883113
4.428142722718132
4.434297194883113
4.434297194883113
4.421988250553122
4.421988250553122
4.421988250553122
4.428142722718132
4.421988250553122
4.415833778388112
4.40967930622313
4.40352483405812
4.415833778388112
4.415833778388112
4.415833778388112
4.391215889728128
4.397370361893111
4.40352483405812
4.415833778388112
4.415833778388112
4.40967930622313
4.385061417563119
4.37890694539811
4.3727524732331275
4.37890694539811
4.385061417563119
4.37890694539811
4.385061417563119
4.37890694539811
4.3727524732331275
4.3727524732331275
4.3727524732331275
4.3727524732331275
4.3727524732331275
4.385061417563119
4.391215889728128
4.385061417563119
4.385061417563119
4.37890694539811
4.37890694539811
4.366598001068117
4.37890694539811
4.360443528903107
4.354289056738125
4.354289056738125
4.354289056738125
4.360443528903107
4.335825640243124
4.341980112408105
4.348134584573115
4.354289056738125
4.354289056738125
4.335825640243124
4.329671168078114
4.341980112408105
4.329671168078114
4.298898807253093
4.2865898629231
4.3112077515831135
4.366598001068117
4.446606139213133
4.538923221688139
4.5820045268431535
4.5820045268431535
4.557386638183142
4.501996388698137
4.397370361893111
4.280435390758092
4.212736196943095
4.243508557768089
4.27428091859311
4.305053279418103
4.305053279418103
4.305053279418103
4.3112077515831135
4.3173622237481215
4.329671168078114
4.3112077515831135
4.298898807253093
4.3112077515831135
4.3173622237481215
4.323516695913104
4.323516695913104
4.329671168078114
4.323516695913104
4.323516695913104
4.3173622237481215
4.3173622237481215
4.323516695913104
4.329671168078114
4.323516695913104
4.329671168078114
4.323516695913104
4.323516695913104
4.323516695913104
4.323516695913104
4.3173622237481215
4.329671168078114
4.323516695913104
4.329671168078114
4.329671168078114
4.329671168078114
4.335825640243124
4.341980112408105
4.348134584573115
4.348134584573115
4.341980112408105
4.354289056738125
4.3727524732331275
4.37890694539811
4.3727524732331275
4.37890694539811
4.385061417563119
4.385061417563119
4.385061417563119
4.385061417563119
4.391215889728128
4.385061417563119
4.37890694539811
4.385061417563119
4.3727524732331275
4.366598001068117
4.348134584573115
4.341980112408105
4.329671168078114
4.3112077515831135
4.305053279418103
4.292744335088111
4.2865898629231
4.2865898629231
4.261971974263091
4.243508557768089
4.280435390758092
4.280435390758092
4.280435390758092
4.2681264464281
4.255817502098108
4.237354085603107
4.249663029933098
4.237354085603107
4.243508557768089
4.249663029933098
4.255817502098108
4.255817502098108
4.261971974263091
4.255817502098108
4.255817502098108
4.255817502098108
4.261971974263091
4.2681264464281
4.27428091859311
4.261971974263091
4.261971974263091
4.261971974263091
4.27428091859311
4.2681264464281
4.2681264464281
4.27428091859311
4.2681264464281
4.27428091859311
4.261971974263091
4.2681264464281
4.2681264464281
4.2681264464281
4.2681264464281
4.261971974263091
4.27428091859311
4.2681264464281
4.27428091859311
4.261971974263091
4.261971974263091
4.261971974263091
4.261971974263091
4.2681264464281
4.261971974263091
4.261971974263091
4.261971974263091
4.2681264464281
4.2681264464281
4.261971974263091
4.255817502098108
4.249663029933098
4.255817502098108
4.261971974263091
4.261971974263091
4.255817502098108
4.255817502098108
4.255817502098108
4.255817502098108
4.255817502098108
4.255817502098108
4.2681264464281
4.2681264464281
4.27428091859311
4.27428091859311
4.261971974263091
4.261971974263091
4.261971974263091
4.255817502098108
4.212736196943095
4.188118308283084
4.231199613438097
4.243508557768089
4.243508557768089
4.243508557768089
4.243508557768089
4.237354085603107
4.243508557768089
4.231199613438097
4.225045141273086
4.237354085603107
4.231199613438097
4.237354085603107
4.225045141273086
4.200427252613103
4.169654891788083
4.181963836118102
4.218890669108104
4.298898807253093
4.385061417563119
4.465069555708134
4.489687444368147
4.489687444368147
4.440451667048122
4.348134584573115
4.249663029933098
4.151191475293081
4.145037003128072
4.1758093639530935
4.1942727804480935
4.200427252613103
4.2065817247780855
4.212736196943095
4.212736196943095
4.231199613438097
4.218890669108104
4.218890669108104
4.225045141273086
4.225045141273086
4.231199613438097
4.225045141273086
4.231199613438097
4.237354085603107
4.225045141273086
4.225045141273086
4.231199613438097
4.157345947458091
4.021947559828071
3.9542483660130467
3.9050125886930522
3.8619312835380395
3.8496223392080475
3.837313394878028
3.837313394878028
3.8496223392080475
3.8680857557030492
3.8988581165280416
3.9357849495180455
3.9665573103430654
3.948093893848065
4.138882530963089
4.261971974263091
4.2865898629231
4.292744335088111
4.2865898629231
4.298898807253093
4.3173622237481215
4.3173622237481215
4.323516695913104
4.329671168078114
4.335825640243124
4.335825640243124
4.348134584573115
4.341980112408105
4.341980112408105
4.341980112408105
4.341980112408105
4.335825640243124
4.335825640243124
4.323516695913104
4.305053279418103
4.292744335088111
4.2865898629231
4.2681264464281
4.255817502098108
4.249663029933098
4.243508557768089
4.231199613438097
4.231199613438097
4.225045141273086
4.225045141273086
4.212736196943095
4.212736196943095
4.218890669108104
4.218890669108104
4.212736196943095
4.212736196943095
4.2065817247780855
4.212736196943095
4.212736196943095
4.218890669108104
4.212736196943095
4.218890669108104
4.212736196943095
4.212736196943095
4.218890669108104
4.212736196943095
4.212736196943095
4.212736196943095
4.212736196943095
4.218890669108104
4.212736196943095
4.212736196943095
4.218890669108104
4.218890669108104
4.231199613438097
4.237354085603107
4.231199613438097
4.181963836118102
4.040410976323072
3.9296304773530633
3.8496223392080475
3.8619312835380395
4.145037003128072
4.261971974263091
4.255817502098108
4.261971974263091
4.255817502098108
4.255817502098108
4.237354085603107
4.243508557768089
4.243508557768089
4.243508557768089
4.243508557768089
4.243508557768089
4.237354085603107
4.225045141273086
4.225045141273086
4.225045141273086
4.225045141273086
4.225045141273086
4.218890669108104
4.218890669108104
4.218890669108104
4.218890669108104
4.218890669108104
4.218890669108104
4.212736196943095
4.218890669108104
4.225045141273086
4.225045141273086
4.231199613438097
4.237354085603107
4.231199613438097
4.231199613438097
4.231199613438097
4.231199613438097
4.218890669108104
4.225045141273086
4.225045141273086
4.218890669108104
4.218890669108104
4.225045141273086
4.231199613438097
4.225045141273086
4.231199613438097
4.212736196943095
4.218890669108104
4.237354085603107
4.237354085603107
4.237354085603107
4.212736196943095
4.188118308283084
4.157345947458091
4.1758093639530935
4.225045141273086
4.305053279418103
4.40967930622313
4.471224027873144
4.151191475293081
2.6371913227028756
1.5663131659927332
1.4863050278477177
1.4432237226927047
1.4247603061977032
1.4801505556827075
1.5724676381577152
1.6524757763027311
1.7017115536227536
1.7509473309427481
1.8063375804277528
1.855573357747775
1.9048091350677696
1.9355814958927628
1.9848172732127856
2.0217441062027888
2.064825411357801
2.1017522443478045
2.1325246051727973
2.1756059103278105
2.2063782711528033
2.2433051041428067
2.2740774649678275
2.304849825792821
2.3356221866178415
2.3663945474428347
2.3971669082678284
2.434093741257831
2.4525571577528327
2.483329518577854
2.5141018794028467
2.5387197680628577
2.5694921288878514
2.6002644897128726
2.624882378372884
2.649500267032867
2.680272627857888
2.704890516517872
2.735662877342893
2.760280766002876
2.7848986546628876
2.8156710154879088
2.8464433763129016
2.871061264972913
2.895679153632896
2.9202970422929075
2.9510694031179288
2.96953281961293
2.994150708272913
3.0249230690979347
3.0372320134279267
3.0618499020879373
3.080313318582939
3.092622262912931
3.1049312072429505
3.1295490959029335
3.1357035680679433
3.1480125123979352
3.160321456727955
3.160321456727955
3.160321456727955
3.1726304010579467
3.166475928892937
3.160321456727955
3.178784873222956
3.2034027618829395
3.2095572340479492
3.215711706212959
3.221866178377941
3.234175122707961
3.2464840670379527
3.234175122707961
3.2464840670379527
3.271101955697964
3.277256427862973
3.2957198443579747
3.308028788687967
3.3203377330179586
3.332646677347978
3.3449556216779697
3.357264566007961
3.375727982502963
3.3880369268329824
3.394191398997992
3.4126548154929934
3.424963759822985
3.437272704152977
3.449581648482997
3.461890592812989
3.468045064977998
3.48035400930799
3.4926629536379816
3.4988174258029914
3.5172808422979926
3.5234353144630024
3.529589786627985
3.541898730958004
3.560362147453006
3.560362147453006
3.560362147453006
3.5665166196180156
3.5849800361130173
3.5972889804430093
3.6034434526080172
3.61575239693801
3.628061341268002
3.652679229928013
3.695760535083026
3.7942320897230433
3.9357849495180455
4.034256504158063
4.095801225808078
4.163500419623101
4.231199613438097
4.280435390758092
4.3173622237481215
4.354289056738125
4.397370361893111
4.428142722718132
4.452760611378115
4.483532972203136
4.514305333028129
4.526614277358149
4.54507769385315
4.5820045268431535
4.5943134711731455
4.5820045268431535
4.5943134711731455
4.606622415503137
4.625085831998166
