4.67432160931816
4.649703720658149
4.6004679433381535
4.551232166018132
4.483532972203136
4.428142722718132
4.397370361893111
4.434297194883113
4.526614277358149
4.662012664988168
4.772793163958178
4.840492357773174
4.883573662928187
4.8651102464331855
4.785102108288171
4.67432160931816
4.569695582513134
4.563541110348153
4.6004679433381535
4.625085831998166
4.637394776328158
4.6435492484931675
4.6435492484931675
4.649703720658149
4.631240304163148
4.612776887668146
4.575850054678144
4.526614277358149
4.465069555708134
4.421988250553122
4.385061417563119
4.341980112408105
4.27428091859311
4.298898807253093
4.255817502098108
4.243508557768089
4.231199613438097
4.218890669108104
4.2065817247780855
4.200427252613103
4.1942727804480935
4.188118308283084
4.181963836118102
4.1758093639530935
4.1758093639530935
4.169654891788083
4.169654891788083
4.157345947458091
4.157345947458091
4.151191475293081
4.145037003128072
4.151191475293081
4.145037003128072
4.145037003128072
4.138882530963089
4.138882530963089
4.1327280587980795
4.138882530963089
4.1327280587980795
4.1327280587980795
4.120419114468088
4.120419114468088
4.101955697973087
4.108110170138069
4.169654891788083
4.514305333028129
5.080516772208221
5.160524910353237
5.142061493858235
5.111289133033214
5.092825716538213
5.080516772208221
5.05589888354821
5.018972050558207
4.982045217568204
4.9389639124131905
4.902037079423188
4.8651102464331855
4.834337885608192
4.809719996948181
4.705093970143154
4.231199613438097
3.6896060629180156
3.5234353144630024
3.511126370132983
3.529589786627985
3.548053203123014
3.560362147453006
3.572671091782997
3.578825563948007
3.591134508277999
3.6034434526080172
3.6219068691030203
3.634215813433012
3.6465247577630033
3.652679229928013
3.671142646423015
3.677297118588024
3.6834515907530063
3.6896060629180156
3.7080694794130173
3.7080694794130173
3.720378423743037
3.7265328959080186
3.732687368073029
3.7449963124030208
3.75115078456803
3.75115078456803
3.763459728898022
3.7696142010630322
3.781923145393024
3.781923145393024
3.781923145393024
3.788077617558033
3.8065410340530352
3.8065410340530352
3.8126955062180454
3.8188499783830263
3.831158922713046
3.831158922713046
3.837313394878028
3.8434678670430373
3.8434678670430373
3.855776811373057
3.8619312835380395
3.8680857557030492
3.874240227868059
3.874240227868059
3.874240227868059
3.886549172198051
3.8927036443630603
3.8927036443630603
3.9050125886930522
3.8988581165280416
3.9111670608580615
3.9111670608580615
3.9111670608580615
3.9173215330230438
3.9234760051880535
3.9234760051880535
3.9357849495180455
3.9419394216830552
3.9419394216830552
3.9357849495180455
3.948093893848065
3.9542483660130467
3.9604028381780574
3.9604028381780574
3.9665573103430654
3.9727117825080476
3.9727117825080476
3.9665573103430654
3.9788662546730578
3.9850207268380675
3.9850207268380675
4.009638615498079
4.009638615498079
4.009638615498079
4.003484143333068
3.9850207268380675
3.9911751990030497
3.9973296711680604
3.9911751990030497
3.9911751990030497
3.9911751990030497
3.9973296711680604
4.003484143333068
3.9973296711680604
4.009638615498079
4.003484143333068
4.015793087663061
4.015793087663061
4.009638615498079
4.021947559828071
4.015793087663061
4.009638615498079
3.9911751990030497
3.9911751990030497
4.015793087663061
4.083492281478085
4.151191475293081
4.225045141273086
4.261971974263091
4.255817502098108
4.243508557768089
4.163500419623101
4.052719920653064
3.9727117825080476
3.9296304773530633
3.9357849495180455
3.9665573103430654
3.9911751990030497
4.009638615498079
4.015793087663061
4.015793087663061
4.021947559828071
4.034256504158063
4.028102031993082
4.034256504158063
4.040410976323072
4.040410976323072
4.052719920653064
4.052719920653064
4.052719920653064
4.058874392818074
4.052719920653064
4.040410976323072
4.0711833371480655
4.0711833371480655
4.0711833371480655
4.083492281478085
4.077337809313075
4.077337809313075
4.0711833371480655
4.058874392818074
4.0711833371480655
4.077337809313075
4.083492281478085
4.089646753643067
4.095801225808078
4.108110170138069
4.108110170138069
4.108110170138069
4.120419114468088
4.120419114468088
4.1327280587980795
4.1327280587980795
4.138882530963089
4.151191475293081
4.151191475293081
4.163500419623101
4.169654891788083
4.169654891788083
4.1758093639530935
4.181963836118102
4.188118308283084
4.181963836118102
4.181963836118102
4.188118308283084
4.188118308283084
4.181963836118102
4.181963836118102
4.1758093639530935
4.163500419623101
4.157345947458091
4.138882530963089
4.12657358663307
4.12657358663307
4.120419114468088
4.114264642303079
4.101955697973087
4.095801225808078
4.089646753643067
4.077337809313075
4.077337809313075
4.077337809313075
4.083492281478085
4.0711833371480655
4.077337809313075
4.0711833371480655
4.077337809313075
4.0711833371480655
4.065028864983084
4.065028864983084
4.077337809313075
4.077337809313075
4.083492281478085
4.083492281478085
4.083492281478085
4.083492281478085
4.083492281478085
4.083492281478085
4.095801225808078
4.089646753643067
4.101955697973087
4.089646753643067
4.0711833371480655
4.108110170138069
4.114264642303079
4.108110170138069
4.101955697973087
4.108110170138069
4.108110170138069
4.095801225808078
4.089646753643067
4.083492281478085
4.089646753643067
4.095801225808078
4.101955697973087
4.095801225808078
4.101955697973087
4.101955697973087
4.095801225808078
4.101955697973087
4.101955697973087
4.095801225808078
4.095801225808078
4.101955697973087
4.101955697973087
4.095801225808078
4.101955697973087
4.101955697973087
4.101955697973087
4.101955697973087
4.101955697973087
4.108110170138069
4.108110170138069
4.101955697973087
4.101955697973087
4.101955697973087
4.101955697973087
4.108110170138069
4.108110170138069
4.108110170138069
4.114264642303079
4.108110170138069
4.114264642303079
4.114264642303079
4.114264642303079
4.120419114468088
4.120419114468088
4.12657358663307
4.1327280587980795
4.12657358663307
4.120419114468088
4.12657358663307
4.12657358663307
4.12657358663307
4.120419114468088
4.114264642303079
4.108110170138069
4.114264642303079
4.108110170138069
4.108110170138069
4.114264642303079
4.108110170138069
4.108110170138069
4.101955697973087
4.101955697973087
4.108110170138069
4.108110170138069
4.101955697973087
4.095801225808078
4.0711833371480655
4.077337809313075
4.101955697973087
4.157345947458091
4.225045141273086
4.298898807253093
4.323516695913104
4.323516695913104
4.305053279418103
4.237354085603107
4.145037003128072
4.040410976323072
4.009638615498079
4.028102031993082
4.052719920653064
4.077337809313075
4.083492281478085
4.095801225808078
4.089646753643067
4.089646753643067
4.101955697973087
4.101955697973087
4.101955697973087
4.101955697973087
4.101955697973087
4.101955697973087
4.101955697973087
4.101955697973087
4.101955697973087
4.101955697973087
4.114264642303079
4.108110170138069
4.108110170138069
4.114264642303079
4.120419114468088
4.120419114468088
4.120419114468088
4.114264642303079
4.12657358663307
4.120419114468088
4.120419114468088
4.1327280587980795
4.1327280587980795
4.1327280587980795
4.138882530963089
4.138882530963089
4.145037003128072
4.145037003128072
4.151191475293081
4.157345947458091
4.157345947458091
4.163500419623101
4.169654891788083
4.181963836118102
4.181963836118102
4.1758093639530935
4.200427252613103
4.2065817247780855
4.1942727804480935
4.181963836118102
4.200427252613103
4.2065817247780855
4.1942727804480935
4.200427252613103
4.1942727804480935
4.1942727804480935
4.1758093639530935
4.1758093639530935
4.151191475293081
4.145037003128072
4.138882530963089
4.120419114468088
4.114264642303079
4.108110170138069
4.095801225808078
4.089646753643067
4.089646753643067
4.077337809313075
4.083492281478085
4.083492281478085
4.083492281478085
4.077337809313075
4.077337809313075
4.0711833371480655
4.0711833371480655
4.077337809313075
4.0711833371480655
4.0711833371480655
4.083492281478085
4.077337809313075
4.083492281478085
4.083492281478085
4.077337809313075
4.083492281478085
4.077337809313075
4.083492281478085
4.077337809313075
4.083492281478085
4.083492281478085
4.077337809313075
4.077337809313075
4.077337809313075
4.077337809313075
4.083492281478085
4.083492281478085
4.077337809313075
4.077337809313075
4.083492281478085
4.077337809313075
4.077337809313075
4.083492281478085
4.077337809313075
4.077337809313075
4.083492281478085
4.083492281478085
4.083492281478085
4.077337809313075
4.083492281478085
4.077337809313075
4.083492281478085
4.083492281478085
4.077337809313075
4.083492281478085
4.083492281478085
4.083492281478085
4.083492281478085
4.083492281478085
4.089646753643067
4.089646753643067
4.089646753643067
4.089646753643067
4.089646753643067
4.095801225808078
4.095801225808078
4.089646753643067
4.095801225808078
4.095801225808078
4.101955697973087
4.101955697973087
4.101955697973087
4.101955697973087
4.108110170138069
4.101955697973087
4.101955697973087
4.114264642303079
4.114264642303079
4.114264642303079
4.114264642303079
4.114264642303079
4.108110170138069
4.114264642303079
4.108110170138069
4.095801225808078
4.095801225808078
4.089646753643067
4.089646753643067
4.083492281478085
4.083492281478085
4.083492281478085
4.095801225808078
4.083492281478085
4.077337809313075
4.089646753643067
4.089646753643067
4.095801225808078
4.089646753643067
4.083492281478085
4.065028864983084
4.052719920653064
4.077337809313075
4.120419114468088
4.1942727804480935
4.2681264464281
4.3173622237481215
4.3173622237481215
4.292744335088111
4.243508557768089
4.151191475293081
4.052719920653064
4.003484143333068
4.015793087663061
4.0465654484880815
4.058874392818074
4.058874392818074
4.065028864983084
4.077337809313075
4.0711833371480655
4.077337809313075
4.077337809313075
4.083492281478085
4.083492281478085
4.083492281478085
4.083492281478085
4.095801225808078
4.095801225808078
4.095801225808078
4.095801225808078
4.089646753643067
4.095801225808078
4.095801225808078
4.101955697973087
4.095801225808078
4.108110170138069
4.101955697973087
4.101955697973087
4.108110170138069
4.108110170138069
4.114264642303079
4.114264642303079
4.114264642303079
4.120419114468088
4.114264642303079
4.12657358663307
4.12657358663307
4.12657358663307
4.138882530963089
4.145037003128072
4.145037003128072
4.151191475293081
4.157345947458091
4.169654891788083
4.169654891788083
4.1758093639530935
4.181963836118102
4.1942727804480935
4.200427252613103
4.1942727804480935
4.1942727804480935
4.200427252613103
4.2065817247780855
4.200427252613103
4.2065817247780855
4.1942727804480935
4.188118308283084
4.181963836118102
4.169654891788083
4.151191475293081
4.138882530963089
4.1327280587980795
4.120419114468088
4.101955697973087
4.101955697973087
4.095801225808078
4.089646753643067
4.083492281478085
4.083492281478085
4.083492281478085
4.083492281478085
4.083492281478085
4.077337809313075
4.077337809313075
4.077337809313075
4.077337809313075
4.077337809313075
4.077337809313075
4.077337809313075
4.083492281478085
4.083492281478085
4.083492281478085
4.083492281478085
4.077337809313075
4.083492281478085
4.083492281478085
4.083492281478085
4.083492281478085
4.089646753643067
4.083492281478085
4.089646753643067
4.089646753643067
4.089646753643067
4.083492281478085
4.083492281478085
4.095801225808078
4.089646753643067
4.095801225808078
4.089646753643067
4.083492281478085
4.083492281478085
4.089646753643067
4.089646753643067
4.095801225808078
4.095801225808078
4.095801225808078
4.095801225808078
4.089646753643067
4.089646753643067
4.089646753643067
4.089646753643067
4.095801225808078
4.089646753643067
4.095801225808078
4.089646753643067
4.089646753643067
4.089646753643067
4.095801225808078
4.095801225808078
4.089646753643067
4.095801225808078
4.089646753643067
4.089646753643067
4.101955697973087
4.089646753643067
4.089646753643067
4.089646753643067
4.101955697973087
4.101955697973087
4.101955697973087
4.095801225808078
4.108110170138069
4.108110170138069
4.108110170138069
4.101955697973087
4.108110170138069
4.114264642303079
4.114264642303079
4.114264642303079
4.12657358663307
4.114264642303079
4.120419114468088
4.114264642303079
4.101955697973087
4.095801225808078
4.095801225808078
4.095801225808078
4.101955697973087
4.101955697973087
4.095801225808078
4.101955697973087
4.095801225808078
4.101955697973087
4.101955697973087
4.095801225808078
4.101955697973087
4.101955697973087
4.095801225808078
4.077337809313075
4.058874392818074
4.0711833371480655
4.101955697973087
4.163500419623101
4.243508557768089
4.323516695913104
4.341980112408105
4.335825640243124
4.298898807253093
4.218890669108104
4.108110170138069
4.009638615498079
3.9911751990030497
4.021947559828071
4.040410976323072
4.058874392818074
4.0711833371480655
4.077337809313075
4.077337809313075
4.083492281478085
4.089646753643067
4.089646753643067
4.089646753643067
4.089646753643067
4.095801225808078
4.095801225808078
4.095801225808078
4.101955697973087
4.095801225808078
4.095801225808078
4.101955697973087
4.108110170138069
4.108110170138069
4.101955697973087
4.101955697973087
4.101955697973087
4.108110170138069
4.101955697973087
4.108110170138069
4.114264642303079
4.114264642303079
4.120419114468088
4.120419114468088
4.114264642303079
4.120419114468088
4.12657358663307
4.1327280587980795
4.145037003128072
4.145037003128072
4.157345947458091
4.157345947458091
4.157345947458091
4.169654891788083
4.1758093639530935
4.181963836118102
4.1942727804480935
4.1942727804480935
4.2065817247780855
4.200427252613103
4.2065817247780855
4.212736196943095
4.212736196943095
4.218890669108104
4.218890669108104
4.2065817247780855
4.2065817247780855
4.1942727804480935
4.181963836118102
4.169654891788083
4.157345947458091
4.145037003128072
4.1327280587980795
4.120419114468088
4.114264642303079
4.108110170138069
4.101955697973087
4.095801225808078
4.089646753643067
4.095801225808078
4.095801225808078
4.089646753643067
4.095801225808078
4.095801225808078
4.083492281478085
4.089646753643067
4.077337809313075
4.095801225808078
4.101955697973087
4.101955697973087
4.089646753643067
4.077337809313075
4.083492281478085
4.089646753643067
4.089646753643067
4.089646753643067
4.101955697973087
4.095801225808078
4.095801225808078
4.095801225808078
4.101955697973087
4.095801225808078
4.108110170138069
4.108110170138069
4.101955697973087
4.108110170138069
4.101955697973087
4.101955697973087
4.108110170138069
4.108110170138069
4.114264642303079
4.101955697973087
4.114264642303079
4.108110170138069
4.101955697973087
4.120419114468088
4.114264642303079
4.120419114468088
4.114264642303079
4.114264642303079
4.108110170138069
4.108110170138069
4.108110170138069
4.114264642303079
4.120419114468088
4.114264642303079
4.120419114468088
4.114264642303079
4.120419114468088
4.108110170138069
4.108110170138069
4.108110170138069
4.114264642303079
4.114264642303079
4.114264642303079
4.120419114468088
4.12657358663307
4.120419114468088
4.12657358663307
4.12657358663307
4.12657358663307
4.12657358663307
4.1327280587980795
4.1327280587980795
4.138882530963089
4.138882530963089
4.1327280587980795
4.1327280587980795
4.1327280587980795
4.12657358663307
4.1327280587980795
4.12657358663307
4.120419114468088
4.101955697973087
4.120419114468088
4.12657358663307
4.120419114468088
4.120419114468088
4.114264642303079
4.114264642303079
4.114264642303079
4.089646753643067
4.101955697973087
4.101955697973087
4.101955697973087
4.095801225808078
4.077337809313075
4.065028864983084
4.095801225808078
4.151191475293081
4.225045141273086
4.305053279418103
4.335825640243124
4.335825640243124
4.3173622237481215
4.243508557768089
4.1327280587980795
4.0465654484880815
4.003484143333068
4.009638615498079
4.034256504158063
4.065028864983084
4.077337809313075
4.083492281478085
4.095801225808078
4.095801225808078
4.101955697973087
4.095801225808078
4.101955697973087
4.108110170138069
4.108110170138069
4.108110170138069
4.114264642303079
4.114264642303079
4.120419114468088
4.120419114468088
4.114264642303079
4.120419114468088
4.120419114468088
4.120419114468088
4.120419114468088
4.120419114468088
4.12657358663307
4.12657358663307
4.12657358663307
4.12657358663307
4.1327280587980795
4.1327280587980795
4.120419114468088
4.157345947458091
4.157345947458091
4.157345947458091
4.163500419623101
4.163500419623101
4.163500419623101
4.163500419623101
4.151191475293081
4.163500419623101
4.1758093639530935
4.188118308283084
4.1942727804480935
4.2065817247780855
4.212736196943095
4.212736196943095
4.218890669108104
4.218890669108104
4.218890669108104
4.218890669108104
4.218890669108104
4.218890669108104
4.212736196943095
4.2065817247780855
4.200427252613103
4.1942727804480935
4.1758093639530935
4.163500419623101
4.151191475293081
4.145037003128072
4.1327280587980795
4.1327280587980795
4.12657358663307
4.120419114468088
4.114264642303079
4.101955697973087
4.101955697973087
4.101955697973087
4.101955697973087
4.095801225808078
4.101955697973087
4.095801225808078
4.095801225808078
4.095801225808078
4.089646753643067
4.089646753643067
4.089646753643067
4.095801225808078
4.101955697973087
4.101955697973087
4.101955697973087
4.101955697973087
4.101955697973087
4.108110170138069
4.095801225808078
4.101955697973087
4.108110170138069
4.101955697973087
4.108110170138069
4.101955697973087
4.108110170138069
4.101955697973087
4.101955697973087
4.101955697973087
4.114264642303079
4.108110170138069
4.108110170138069
4.114264642303079
4.108110170138069
4.120419114468088
4.114264642303079
4.108110170138069
4.108110170138069
4.108110170138069
4.120419114468088
4.114264642303079
4.114264642303079
4.114264642303079
4.120419114468088
4.120419114468088
4.12657358663307
4.12657358663307
4.12657358663307
4.12657358663307
4.12657358663307
4.120419114468088
4.12657358663307
4.1327280587980795
4.12657358663307
4.12657358663307
4.1327280587980795
4.12657358663307
4.138882530963089
4.1327280587980795
4.138882530963089
4.145037003128072
4.145037003128072
4.138882530963089
4.145037003128072
4.151191475293081
4.145037003128072
4.151191475293081
4.157345947458091
4.151191475293081
4.151191475293081
4.151191475293081
4.145037003128072
4.145037003128072
4.1327280587980795
4.12657358663307
4.120419114468088
4.114264642303079
4.114264642303079
4.114264642303079
4.108110170138069
4.114264642303079
4.101955697973087
4.101955697973087
4.108110170138069
4.101955697973087
4.108110170138069
4.138882530963089
4.157345947458091
4.101955697973087
4.083492281478085
4.077337809313075
4.108110170138069
4.1758093639530935
4.261971974263091
4.323516695913104
4.329671168078114
4.335825640243124
4.298898807253093
4.292744335088111
4.323516695913104
4.3173622237481215
4.360443528903107
4.434297194883113
4.501996388698137
4.538923221688139
4.5820045268431535
4.606622415503137
4.625085831998166
4.6435492484931675
4.662012664988168
4.68047608148317
4.692785025813162
4.711248442308165
4.723557386638155
4.7297118588031655
4.735866330968175
4.754329747463175
4.760484219628157
4.778947636123188
4.785102108288171
4.785102108288171
4.797411052618189
4.803565524783171
4.797411052618189
4.803565524783171
4.803565524783171
4.735866330968175
4.6004679433381535
4.526614277358149
4.465069555708134
4.434297194883113
4.391215889728128
4.354289056738125
4.329671168078114
4.3173622237481215
4.292744335088111
4.27428091859311
4.261971974263091
4.249663029933098
4.249663029933098
4.237354085603107
4.231199613438097
4.237354085603107
4.2065817247780855
3.8680857557030492
3.178784873222956
3.0310775412629165
3.049540957757918
3.055695429922928
3.0618499020879373
3.0680043742529195
3.0864677907479487
3.301874316522957
3.886549172198051
4.009638615498079
3.9973296711680604
3.9788662546730578
3.9788662546730578
3.9727117825080476
3.9665573103430654
3.9604028381780574
3.948093893848065
3.948093893848065
3.9419394216830552
3.9973296711680604
4.181963836118102
4.298898807253093
4.3727524732331275
4.428142722718132
4.471224027873144
4.508150860863147
4.538923221688139
4.569695582513134
4.6004679433381535
4.606622415503137
4.618931359833156
4.631240304163148
4.649703720658149
4.662012664988168
4.668167137153151
4.692785025813162
4.711248442308165
4.717402914473173
4.717402914473173
4.588158999008135
3.9911751990030497
3.738841840238039
3.75730525673304
3.763459728898022
3.781923145393024
3.788077617558033
3.800386561888025
3.8065410340530352
3.8126955062180454
3.825004450548036
3.825004450548036
3.837313394878028
3.8434678670430373
3.8434678670430373
3.8496223392080475
3.855776811373057
3.8496223392080475
3.8619312835380395
3.8680857557030492
3.8680857557030492
3.874240227868059
3.874240227868059
3.874240227868059
3.874240227868059
3.8680857557030492
3.8927036443630603
3.8988581165280416
3.8988581165280416
3.8927036443630603
3.8988581165280416
3.9050125886930522
3.948093893848065
4.095801225808078
4.218890669108104
4.292744335088111
4.341980112408105
4.385061417563119
4.440451667048122
4.446606139213133
4.477378500038126
4.520459805193139
4.551232166018132
4.569695582513134
4.5820045268431535
4.6004679433381535
4.612776887668146
4.612776887668146
4.631240304163148
4.655858192823159
4.67432160931816
4.686630553648152
4.705093970143154
4.711248442308165
4.717402914473173
4.717402914473173
4.723557386638155
4.7297118588031655
4.7297118588031655
4.735866330968175
4.735866330968175
4.7420208031331565
4.7420208031331565
4.760484219628157
4.754329747463175
4.766638691793168
4.760484219628157
4.766638691793168
4.778947636123188
4.772793163958178
4.778947636123188
4.778947636123188
4.760484219628157
4.748175275298167
4.748175275298167
4.7912565804531795
4.8651102464331855
4.9389639124131905
5.012817578393197
5.037435467053208
5.031280994888199
4.9881996897332135
4.895882607258178
4.7912565804531795
4.68047608148317
4.68047608148317
4.711248442308165
4.7297118588031655
4.748175275298167
4.754329747463175
4.766638691793168
4.760484219628157
4.766638691793168
4.760484219628157
4.760484219628157
4.760484219628157
4.760484219628157
4.760484219628157
4.754329747463175
4.748175275298167
4.754329747463175
4.748175275298167
4.7420208031331565
4.748175275298167
4.7420208031331565
4.748175275298167
4.748175275298167
4.7420208031331565
4.735866330968175
4.7420208031331565
4.748175275298167
4.735866330968175
4.7420208031331565
4.735866330968175
4.735866330968175
4.735866330968175
4.7420208031331565
4.7420208031331565
4.735866330968175
4.7297118588031655
4.735866330968175
4.735866330968175
4.7420208031331565
4.748175275298167
4.754329747463175
4.754329747463175
4.748175275298167
4.754329747463175
4.754329747463175
4.754329747463175
4.754329747463175
4.760484219628157
4.760484219628157
4.748175275298167
4.754329747463175
4.7420208031331565
4.7420208031331565
4.735866330968175
4.717402914473173
4.698939497978172
4.692785025813162
4.668167137153151
4.662012664988168
4.637394776328158
4.631240304163148
4.612776887668146
4.6004679433381535
4.575850054678144
4.5820045268431535
4.569695582513134
4.563541110348153
4.569695582513134
4.557386638183142
4.557386638183142
4.538923221688139
4.526614277358149
4.508150860863147
4.452760611378115
4.292744335088111
3.6834515907530063
2.9264515144579173
2.8218254876528905
2.8464433763129016
2.871061264972913
2.895679153632896
2.932605986622927
2.9510694031179288
2.9818417639429216
2.994150708272913
3.0249230690979347
3.043386485592936
3.055695429922928
3.074158846417929
3.092622262912931
3.1110856794079322
3.1357035680679433
3.154166984562945
3.1726304010579467
3.191093817552948
3.2280206505429514
3.2464840670379527
3.271101955697964
3.2957198443579747
3.308028788687967
3.3141832608529764
3.3264922051829684
3.35111009384298
3.375727982502963
3.35111009384298
3.3388011495129604
3.3388011495129604
3.35111009384298
3.35111009384298
3.357264566007961
3.3695735103379807
3.381882454667973
3.3880369268329824
3.406500343327984
3.4126548154929934
3.424963759822985
3.424963759822985
3.4434271763179867
3.449581648482997
3.461890592812989
3.4741995371429804
3.4741995371429804
3.4926629536379816
3.4988174258029914
3.511126370132983
3.511126370132983
3.5234353144630024
3.5357442587929944
3.541898730958004
3.560362147453006
3.5665166196180156
3.5665166196180156
3.5849800361130173
3.591134508277999
3.5972889804430093
3.6034434526080172
3.61575239693801
3.634215813433012
3.640370285598021
3.6465247577630033
3.652679229928013
3.6649881742580046
3.671142646423015
3.6649881742580046
3.6649881742580046
3.671142646423015
3.677297118588024
3.6834515907530063
3.6834515907530063
3.695760535083026
3.695760535083026
3.701915007248036
3.7080694794130173
3.720378423743037
3.720378423743037
3.7265328959080186
3.732687368073029
3.732687368073029
3.732687368073029
3.7080694794130173
3.7142239515780275
3.7449963124030208
3.8065410340530352
3.8803947000330408
3.9727117825080476
4.028102031993082
4.034256504158063
4.028102031993082
3.9604028381780574
3.855776811373057
3.75115078456803
3.701915007248036
3.7080694794130173
3.738841840238039
3.7757686732280415
3.788077617558033
3.8126955062180454
3.8188499783830263
3.825004450548036
3.831158922713046
3.837313394878028
3.837313394878028
3.837313394878028
3.8434678670430373
3.8496223392080475
3.8434678670430373
3.8680857557030492
3.8803947000330408
3.8803947000330408
3.8680857557030492
3.8619312835380395
3.886549172198051
3.8927036443630603
3.8927036443630603
3.8927036443630603
3.8988581165280416
3.9111670608580615
3.9234760051880535
3.9296304773530633
3.9234760051880535
3.9296304773530633
3.9357849495180455
3.9419394216830552
3.948093893848065
3.9604028381780574
3.9665573103430654
3.9665573103430654
3.9788662546730578
3.9788662546730578
3.9850207268380675
4.003484143333068
4.003484143333068
4.021947559828071
4.028102031993082
4.040410976323072
4.040410976323072
4.040410976323072
4.052719920653064
4.058874392818074
4.058874392818074
4.058874392818074
4.058874392818074
4.058874392818074
4.065028864983084
4.065028864983084
4.058874392818074
4.0465654484880815
4.034256504158063
4.021947559828071
4.009638615498079
4.003484143333068
3.9973296711680604
3.9911751990030497
3.9788662546730578
3.9788662546730578
3.9665573103430654
3.9665573103430654
3.9665573103430654
3.9604028381780574
3.9604028381780574
3.9604028381780574
3.9665573103430654
3.9665573103430654
3.9727117825080476
3.9727117825080476
3.9727117825080476
3.9727117825080476
3.9788662546730578
3.9727117825080476
3.9788662546730578
3.9850207268380675
3.9911751990030497
3.9911751990030497
3.9911751990030497
3.9973296711680604
3.9973296711680604
3.9973296711680604
4.009638615498079
4.015793087663061
4.021947559828071
4.021947559828071
4.015793087663061
4.021947559828071
4.015793087663061
4.028102031993082
4.028102031993082
4.021947559828071
4.015793087663061
4.015793087663061
4.0465654484880815
4.040410976323072
4.034256504158063
4.028102031993082
4.028102031993082
4.028102031993082
4.015793087663061
4.009638615498079
4.015793087663061
4.028102031993082
4.021947559828071
4.034256504158063
4.034256504158063
4.034256504158063
4.034256504158063
4.028102031993082
4.028102031993082
4.040410976323072
4.034256504158063
4.034256504158063
4.034256504158063
4.040410976323072
4.034256504158063
4.040410976323072
4.040410976323072
4.034256504158063
4.0465654484880815
4.052719920653064
4.040410976323072
4.052719920653064
4.052719920653064
4.0465654484880815
4.052719920653064
4.0465654484880815
4.065028864983084
4.0711833371480655
4.065028864983084
4.0711833371480655
4.058874392818074
4.083492281478085
4.083492281478085
4.077337809313075
4.0711833371480655
4.058874392818074
4.065028864983084
4.052719920653064
4.040410976323072
4.0465654484880815
4.0465654484880815
4.052719920653064
4.052719920653064
4.052719920653064
4.058874392818074
4.065028864983084
4.058874392818074
4.052719920653064
4.0465654484880815
4.040410976323072
4.021947559828071
4.040410976323072
4.0711833371480655
4.138882530963089
4.212736196943095
4.27428091859311
4.2865898629231
4.2865898629231
4.255817502098108
4.1758093639530935
4.065028864983084
3.9850207268380675
3.9665573103430654
3.9911751990030497
4.021947559828071
4.0465654484880815
4.052719920653064
4.052719920653064
4.065028864983084
4.058874392818074
4.0711833371480655
4.065028864983084
4.077337809313075
4.077337809313075
4.077337809313075
4.077337809313075
4.089646753643067
4.212736196943095
4.348134584573115
4.40967930622313
4.458915083543125
4.501996388698137
4.538923221688139
4.569695582513134
4.5820045268431535
4.563541110348153
4.421988250553122
4.108110170138069
4.015793087663061
4.021947559828071
4.028102031993082
4.028102031993082
4.034256504158063
4.040410976323072
4.052719920653064
4.052719920653064
4.058874392818074
4.065028864983084
4.0711833371480655
4.083492281478085
4.089646753643067
4.101955697973087
4.101955697973087
4.120419114468088
4.12657358663307
4.1327280587980795
4.1327280587980795
4.145037003128072
4.145037003128072
4.145037003128072
4.151191475293081
4.157345947458091
4.151191475293081
4.157345947458091
4.151191475293081
4.138882530963089
4.12657358663307
4.114264642303079
4.095801225808078
4.089646753643067
4.083492281478085
4.0711833371480655
4.058874392818074
4.0465654484880815
4.0465654484880815
4.034256504158063
4.034256504158063
4.040410976323072
4.028102031993082
4.028102031993082
4.028102031993082
4.028102031993082
4.028102031993082
4.034256504158063
4.034256504158063
4.028102031993082
4.034256504158063
4.034256504158063
4.034256504158063
4.028102031993082
4.028102031993082
4.034256504158063
4.040410976323072
4.034256504158063
4.0465654484880815
4.0465654484880815
4.040410976323072
4.034256504158063
4.0465654484880815
4.0465654484880815
4.040410976323072
4.0465654484880815
4.028102031993082
4.052719920653064
4.0465654484880815
4.034256504158063
4.040410976323072
4.0465654484880815
4.0465654484880815
4.040410976323072
4.040410976323072
4.0465654484880815
4.040410976323072
4.040410976323072
4.040410976323072
4.0465654484880815
4.040410976323072
4.040410976323072
4.034256504158063
4.040410976323072
4.0465654484880815
4.034256504158063
4.040410976323072
4.028102031993082
4.034256504158063
4.040410976323072
4.040410976323072
4.034256504158063
4.034256504158063
4.034256504158063
4.040410976323072
4.034256504158063
4.034256504158063
4.034256504158063
4.0465654484880815
4.040410976323072
4.0465654484880815
4.040410976323072
4.040410976323072
4.040410976323072
4.0465654484880815
4.052719920653064
4.0465654484880815
4.0465654484880815
4.052719920653064
4.058874392818074
4.052719920653064
4.052719920653064
4.058874392818074
4.077337809313075
4.0711833371480655
4.077337809313075
4.077337809313075
4.065028864983084
4.065028864983084
4.058874392818074
4.058874392818074
4.058874392818074
4.0465654484880815
4.0465654484880815
4.0465654484880815
4.052719920653064
4.0465654484880815
4.052719920653064
4.058874392818074
4.0465654484880815
4.052719920653064
4.052719920653064
4.058874392818074
4.052719920653064
4.0465654484880815
4.028102031993082
4.015793087663061
4.034256504158063
4.083492281478085
4.157345947458091
4.231199613438097
4.2865898629231
4.2865898629231
4.280435390758092
4.243508557768089
4.163500419623101
4.052719920653064
3.9665573103430654
3.9850207268380675
4.003484143333068
4.028102031993082
4.0465654484880815
4.052719920653064
4.052719920653064
4.058874392818074
4.058874392818074
4.058874392818074
4.065028864983084
4.065028864983084
4.0711833371480655
4.077337809313075
4.077337809313075
4.0711833371480655
4.077337809313075
4.0711833371480655
4.083492281478085
4.089646753643067
4.089646753643067
4.089646753643067
4.114264642303079
4.188118308283084
4.329671168078114
4.40967930622313
4.465069555708134
4.501996388698137
4.54507769385315
4.575850054678144
4.6004679433381535
4.631240304163148
4.649703720658149
4.668167137153151
4.686630553648152
4.662012664988168
4.575850054678144
4.2865898629231
4.034256504158063
4.040410976323072
4.052719920653064
4.052719920653064
4.089646753643067
4.095801225808078
4.095801225808078
4.108110170138069
4.108110170138069
4.101955697973087
4.114264642303079
4.145037003128072
4.280435390758092
4.40967930622313
4.483532972203136
4.5327687495231315
4.569695582513134
4.5943134711731455
4.612776887668146
4.631240304163148
4.637394776328158
4.6435492484931675
4.655858192823159
4.662012664988168
4.668167137153151
4.67432160931816
4.68047608148317
4.698939497978172
4.705093970143154
4.711248442308165
4.705093970143154
4.520459805193139
3.9788662546730578
3.8126955062180454
3.8434678670430373
3.8496223392080475
3.8496223392080475
3.8619312835380395
3.874240227868059
3.874240227868059
3.8619312835380395
3.8680857557030492
3.874240227868059
3.886549172198051
3.886549172198051
3.8988581165280416
3.8988581165280416
3.9050125886930522
3.9111670608580615
3.9111670608580615
3.9111670608580615
3.9173215330230438
3.9111670608580615
3.9234760051880535
3.9234760051880535
3.9234760051880535
3.9234760051880535
3.9357849495180455
3.9357849495180455
3.9357849495180455
3.9357849495180455
3.9419394216830552
3.9604028381780574
4.0711833371480655
4.212736196943095
4.292744335088111
4.348134584573115
4.391215889728128
4.434297194883113
4.465069555708134
4.489687444368147
4.508150860863147
4.520459805193139
4.458915083543125
4.292744335088111
4.1758093639530935
4.015793087663061
3.9050125886930522
3.8680857557030492
3.8803947000330408
3.8803947000330408
3.886549172198051
3.8988581165280416
3.8988581165280416
3.9050125886930522
3.9111670608580615
3.9173215330230438
3.9173215330230438
3.9234760051880535
3.9234760051880535
3.9357849495180455
3.9357849495180455
3.9419394216830552
3.9419394216830552
3.9542483660130467
3.948093893848065
3.9542483660130467
3.9727117825080476
3.9727117825080476
3.9973296711680604
4.009638615498079
4.015793087663061
4.028102031993082
4.028102031993082
4.040410976323072
4.0465654484880815
4.0465654484880815
4.040410976323072
4.034256504158063
4.015793087663061
4.009638615498079
3.9911751990030497
3.9850207268380675
3.9788662546730578
3.9727117825080476
3.9788662546730578
3.9788662546730578
3.9727117825080476
3.9788662546730578
3.9788662546730578
3.9788662546730578
3.9850207268380675
3.9850207268380675
3.9850207268380675
3.9788662546730578
3.9665573103430654
3.9665573103430654
3.9542483660130467
3.948093893848065
3.9727117825080476
4.040410976323072
4.114264642303079
4.1942727804480935
4.249663029933098
4.261971974263091
4.243508557768089
4.188118308283084
4.089646753643067
3.9850207268380675
3.9234760051880535
3.9419394216830552
3.9665573103430654
3.9911751990030497
4.003484143333068
4.015793087663061
4.015793087663061
4.021947559828071
4.015793087663061
4.021947559828071
4.028102031993082
4.028102031993082
4.040410976323072
4.034256504158063
4.034256504158063
4.0465654484880815
4.0465654484880815
4.0465654484880815
4.052719920653064
4.052719920653064
4.058874392818074
4.065028864983084
4.065028864983084
4.065028864983084
4.065028864983084
4.0711833371480655
4.0711833371480655
4.065028864983084
4.0711833371480655
4.0711833371480655
4.077337809313075
4.077337809313075
4.077337809313075
4.083492281478085
4.089646753643067
4.095801225808078
4.095801225808078
4.108110170138069
4.108110170138069
4.120419114468088
4.12657358663307
4.12657358663307
4.12657358663307
4.138882530963089
4.151191475293081
4.157345947458091
4.157345947458091
4.157345947458091
4.163500419623101
4.151191475293081
4.163500419623101
4.169654891788083
4.169654891788083
4.163500419623101
4.157345947458091
4.138882530963089
4.12657358663307
4.114264642303079
4.108110170138069
4.089646753643067
4.089646753643067
4.077337809313075
4.065028864983084
4.058874392818074
4.052719920653064
4.058874392818074
4.052719920653064
4.0465654484880815
4.052719920653064
4.0465654484880815
4.052719920653064
4.0465654484880815
4.052719920653064
4.052719920653064
4.0465654484880815
4.0465654484880815
4.052719920653064
4.052719920653064
4.0465654484880815
4.0465654484880815
4.052719920653064
4.058874392818074
4.052719920653064
4.058874392818074
4.065028864983084
4.065028864983084
4.065028864983084
4.058874392818074
4.065028864983084
4.058874392818074
4.0711833371480655
4.065028864983084
4.065028864983084
4.0711833371480655
4.0711833371480655
4.065028864983084
4.065028864983084
4.065028864983084
4.0711833371480655
4.0711833371480655
4.077337809313075
4.0711833371480655
4.0711833371480655
4.077337809313075
4.077337809313075
4.0711833371480655
4.077337809313075
4.077337809313075
4.058874392818074
4.089646753643067
4.089646753643067
4.077337809313075
4.058874392818074
4.065028864983084
4.065028864983084
4.065028864983084
4.0711833371480655
4.0711833371480655
4.065028864983084
4.065028864983084
4.0711833371480655
4.0711833371480655
4.0711833371480655
4.0711833371480655
4.077337809313075
4.077337809313075
4.077337809313075
4.083492281478085
4.083492281478085
4.0711833371480655
4.083492281478085
4.083492281478085
4.077337809313075
4.077337809313075
4.077337809313075
4.077337809313075
4.083492281478085
4.083492281478085
4.083492281478085
4.089646753643067
4.089646753643067
4.089646753643067
4.089646753643067
4.095801225808078
4.089646753643067
4.101955697973087
4.101955697973087
4.108110170138069
4.108110170138069
4.101955697973087
4.101955697973087
4.101955697973087
4.089646753643067
4.083492281478085
4.089646753643067
4.083492281478085
4.083492281478085
4.083492281478085
4.077337809313075
4.083492281478085
4.089646753643067
4.077337809313075
4.083492281478085
4.089646753643067
4.083492281478085
4.077337809313075
4.0711833371480655
4.0465654484880815
4.0465654484880815
4.077337809313075
4.1327280587980795
4.212736196943095
4.298898807253093
4.335825640243124
4.329671168078114
4.305053279418103
4.231199613438097
4.120419114468088
4.015793087663061
3.9788662546730578
3.9973296711680604
4.021947559828071
4.052719920653064
4.058874392818074
4.065028864983084
4.083492281478085
4.077337809313075
4.083492281478085
4.083492281478085
4.083492281478085
4.089646753643067
4.083492281478085
4.089646753643067
4.089646753643067
4.095801225808078
4.089646753643067
4.095801225808078
4.095801225808078
4.089646753643067
4.095801225808078
4.095801225808078
4.095801225808078
4.101955697973087
4.108110170138069
4.108110170138069
4.095801225808078
4.089646753643067
4.114264642303079
4.120419114468088
4.120419114468088
4.1327280587980795
4.12657358663307
4.12657358663307
4.12657358663307
4.120419114468088
4.1327280587980795
4.138882530963089
4.151191475293081
4.151191475293081
4.163500419623101
4.169654891788083
4.1758093639530935
4.188118308283084
4.188118308283084
4.200427252613103
4.1942727804480935
4.1942727804480935
4.1942727804480935
4.200427252613103
4.1942727804480935
4.188118308283084
4.200427252613103
4.2065817247780855
4.188118308283084
4.181963836118102
4.163500419623101
4.151191475293081
4.12657358663307
4.108110170138069
4.114264642303079
4.108110170138069
4.101955697973087
4.089646753643067
4.083492281478085
4.083492281478085
4.083492281478085
4.077337809313075
4.077337809313075
4.077337809313075
4.077337809313075
4.077337809313075
4.083492281478085
4.083492281478085
4.077337809313075
4.077337809313075
4.089646753643067
4.095801225808078
4.108110170138069
4.120419114468088
4.151191475293081
4.218890669108104
4.249663029933098
4.249663029933098
4.225045141273086
4.1942727804480935
4.188118308283084
4.151191475293081
4.114264642303079
4.101955697973087
4.089646753643067
4.083492281478085
4.077337809313075
4.083492281478085
4.077337809313075
4.077337809313075
4.077337809313075
4.083492281478085
4.089646753643067
4.089646753643067
4.095801225808078
4.120419114468088
4.243508557768089
4.329671168078114
4.3727524732331275
4.40352483405812
4.458915083543125
4.489687444368147
4.508150860863147
4.520459805193139
4.5327687495231315
4.551232166018132
4.551232166018132
4.563541110348153
4.575850054678144
4.5943134711731455
4.5943134711731455
4.606622415503137
4.618931359833156
4.637394776328158
4.649703720658149
4.662012664988168
4.67432160931816
4.67432160931816
4.686630553648152
4.698939497978172
4.705093970143154
4.711248442308165
4.723557386638155
4.7297118588031655
4.735866330968175
4.735866330968175
4.735866330968175
4.7420208031331565
4.748175275298167
4.760484219628157
4.766638691793168
4.766638691793168
4.766638691793168
4.772793163958178
4.785102108288171
4.7912565804531795
4.803565524783171
4.797411052618189
4.7912565804531795
4.797411052618189
4.797411052618189
4.7912565804531795
4.785102108288171
4.785102108288171
4.7912565804531795
4.7912565804531795
4.7912565804531795
4.785102108288171
4.785102108288171
4.785102108288171
4.778947636123188
4.778947636123188
4.778947636123188
4.772793163958178
4.778947636123188
4.760484219628157
4.7420208031331565
4.7297118588031655
4.754329747463175
4.803565524783171
4.8651102464331855
4.945118384578201
4.975890745403193
4.982045217568204
4.957427328908192
4.889728135093197
4.778947636123188
4.668167137153151
4.637394776328158
4.631240304163148
4.6435492484931675
4.68047608148317
4.686630553648152
4.692785025813162
4.698939497978172
4.692785025813162
4.698939497978172
4.692785025813162
4.692785025813162
4.698939497978172
4.686630553648152
4.692785025813162
4.692785025813162
4.686630553648152
4.68047608148317
4.67432160931816
4.68047608148317
4.67432160931816
4.68047608148317
4.67432160931816
4.67432160931816
4.662012664988168
4.655858192823159
4.655858192823159
4.655858192823159
4.662012664988168
4.662012664988168
4.662012664988168
4.662012664988168
4.655858192823159
4.655858192823159
4.655858192823159
4.655858192823159
4.662012664988168
4.662012664988168
4.668167137153151
4.662012664988168
4.668167137153151
4.67432160931816
4.67432160931816
4.68047608148317
4.67432160931816
4.68047608148317
4.68047608148317
4.686630553648152
4.686630553648152
4.68047608148317
4.68047608148317
4.67432160931816
4.668167137153151
4.668167137153151
4.662012664988168
4.6435492484931675
4.637394776328158
4.612776887668146
4.6004679433381535
4.5820045268431535
4.575850054678144
4.557386638183142
4.54507769385315
4.538923221688139
4.5327687495231315
4.526614277358149
4.514305333028129
4.520459805193139
4.514305333028129
4.514305333028129
4.501996388698137
4.501996388698137
4.501996388698137
4.501996388698137
4.501996388698137
4.495841916533128
4.489687444368147
4.495841916533128
4.489687444368147
4.489687444368147
4.483532972203136
4.483532972203136
4.483532972203136
4.483532972203136
4.477378500038126
4.483532972203136
4.471224027873144
4.477378500038126
4.471224027873144
4.465069555708134
4.465069555708134
4.471224027873144
4.458915083543125
4.458915083543125
4.452760611378115
4.440451667048122
4.40967930622313
4.385061417563119
4.354289056738125
4.323516695913104
4.298898807253093
4.2681264464281
4.255817502098108
4.243508557768089
4.212736196943095
4.188118308283084
4.2065817247780855
4.237354085603107
4.27428091859311
4.292744335088111
4.298898807253093
4.323516695913104
4.323516695913104
4.3112077515831135
4.323516695913104
4.323516695913104
4.323516695913104
4.323516695913104
4.3173622237481215
4.3173622237481215
4.323516695913104
4.329671168078114
4.3173622237481215
4.366598001068117
4.3727524732331275
4.366598001068117
4.3727524732331275
4.366598001068117
4.354289056738125
4.360443528903107
4.366598001068117
4.366598001068117
4.37890694539811
4.3727524732331275
4.3727524732331275
4.37890694539811
4.3727524732331275
4.3727524732331275
4.360443528903107
4.354289056738125
4.348134584573115
4.329671168078114
4.305053279418103
4.27428091859311
4.261971974263091
4.218890669108104
4.1758093639530935
4.151191475293081
4.1327280587980795
4.1327280587980795
4.145037003128072
4.138882530963089
4.1327280587980795
4.114264642303079
4.108110170138069
4.101955697973087
4.095801225808078
4.095801225808078
4.101955697973087
4.108110170138069
4.114264642303079
4.114264642303079
4.095801225808078
4.077337809313075
4.0711833371480655
4.089646753643067
4.1327280587980795
4.1942727804480935
4.298898807253093
4.323516695913104
4.305053279418103
4.27428091859311
4.181963836118102
4.0711833371480655
3.9296304773530633
3.874240227868059
3.8988581165280416
3.9173215330230438
3.9111670608580615
3.9050125886930522
3.9357849495180455
3.9788662546730578
3.9973296711680604
4.028102031993082
4.052719920653064
4.083492281478085
4.114264642303079
4.138882530963089
4.151191475293081
4.163500419623101
4.1758093639530935
4.188118308283084
4.1942727804480935
4.200427252613103
4.200427252613103
4.2065817247780855
4.218890669108104
4.231199613438097
4.231199613438097
4.243508557768089
4.237354085603107
4.218890669108104
4.181963836118102
4.108110170138069
4.003484143333068
3.831158922713046
3.3203377330179586
2.631036850537866
2.507947407237865
2.5141018794028467
2.55102871239285
2.5941100175478624
2.624882378372884
2.655654739197877
2.68642710002287
2.729508405177883
2.754126293837894
2.7910531268278973
2.8156710154879088
2.8464433763129016
2.871061264972913
2.895679153632896
2.9202970422929075
2.944914930952919
2.9572238752829105
2.975687291777912
3.0003051804379233
3.018768596932925
3.0249230690979347
3.0372320134279267
3.0372320134279267
3.055695429922928
3.055695429922928
3.055695429922928
3.0618499020879373
3.0680043742529195
3.074158846417929
3.0864677907479487
3.0864677907479487
3.0987767350779407
3.117240151572942
3.1295490959029335
3.1357035680679433
3.1480125123979352
3.141858040232953
3.166475928892937
3.191093817552948
3.2034027618829395
3.2280206505429514
3.2464840670379527
3.258793011367972
3.283410900027955
3.3388011495129604
3.4988174258029914
3.652679229928013
3.763459728898022
3.8434678670430373
3.8988581165280416
3.9604028381780574
3.9973296711680604
4.028102031993082
4.065028864983084
4.095801225808078
4.083492281478085
4.058874392818074
4.052719920653064
3.8988581165280416
3.8619312835380395
3.837313394878028
3.5665166196180156
3.375727982502963
3.3388011495129604
3.35111009384298
3.357264566007961
3.375727982502963
3.381882454667973
3.400345871162974
3.406500343327984
3.424963759822985
3.424963759822985
3.437272704152977
3.4434271763179867
3.461890592812989
3.468045064977998
3.48035400930799
3.486508481473
3.4988174258029914
3.4988174258029914
3.511126370132983
3.5234353144630024
3.5357442587929944
3.541898730958004
3.541898730958004
3.560362147453006
3.5665166196180156
3.578825563948007
3.578825563948007
3.5849800361130173
3.5972889804430093
3.5972889804430093
3.609597924773
3.609597924773
3.6219068691030203
3.634215813433012
3.640370285598021
3.652679229928013
3.652679229928013
3.658833702093023
3.677297118588024
3.6834515907530063
3.6896060629180156
3.701915007248036
3.7080694794130173
3.7080694794130173
3.720378423743037
3.720378423743037
3.7265328959080186
3.7265328959080186
3.732687368073029
3.7265328959080186
3.7265328959080186
3.732687368073029
3.738841840238039
3.7449963124030208
3.7449963124030208
3.7449963124030208
3.75730525673304
3.75730525673304
3.7696142010630322
3.7757686732280415
3.781923145393024
3.7757686732280415
3.7696142010630322
3.75730525673304
3.763459728898022
3.7942320897230433
3.855776811373057
3.9604028381780574
4.1327280587980795
4.3173622237481215
4.40352483405812
4.458915083543125
4.465069555708134
4.40967930622313
4.341980112408105
4.305053279418103
4.335825640243124
4.391215889728128
4.434297194883113
4.452760611378115
4.477378500038126
4.489687444368147
4.501996388698137
4.520459805193139
4.54507769385315
4.563541110348153
4.5820045268431535
4.606622415503137
4.612776887668146
4.637394776328158
4.6435492484931675
4.655858192823159
4.655858192823159
4.668167137153151
4.68047608148317
4.68047608148317
4.67432160931816
4.705093970143154
4.711248442308165
4.711248442308165
4.698939497978172
4.717402914473173
4.723557386638155
4.7297118588031655
4.735866330968175
4.7420208031331565
4.7420208031331565
4.760484219628157
4.754329747463175
4.760484219628157
4.772793163958178
4.778947636123188
4.778947636123188
4.7912565804531795
4.797411052618189
4.803565524783171
4.809719996948181
4.81587446911319
4.81587446911319
4.81587446911319
4.822028941278172
4.828183413443182
4.828183413443182
4.834337885608192
4.828183413443182
4.828183413443182
4.822028941278172
4.822028941278172
4.822028941278172
4.803565524783171
4.797411052618189
4.785102108288171
4.766638691793168
4.754329747463175
4.7420208031331565
4.723557386638155
4.717402914473173
4.711248442308165
4.705093970143154
4.686630553648152
4.692785025813162
4.686630553648152
4.68047608148317
4.67432160931816
4.67432160931816
4.668167137153151
4.668167137153151
4.67432160931816
4.67432160931816
4.668167137153151
4.67432160931816
4.668167137153151
4.668167137153151
4.662012664988168
4.662012664988168
4.668167137153151
4.655858192823159
4.655858192823159
4.662012664988168
4.649703720658149
4.649703720658149
4.649703720658149
4.649703720658149
4.6435492484931675
4.6435492484931675
4.6435492484931675
4.637394776328158
4.637394776328158
4.631240304163148
4.625085831998166
4.618931359833156
4.618931359833156
4.625085831998166
4.618931359833156
4.618931359833156
4.612776887668146
4.612776887668146
4.612776887668146
4.606622415503137
4.6004679433381535
4.6004679433381535
4.6004679433381535
4.6004679433381535
4.5943134711731455
4.5943134711731455
4.5943134711731455
4.5820045268431535
4.5820045268431535
4.5820045268431535
4.575850054678144
4.569695582513134
4.569695582513134
4.575850054678144
4.569695582513134
4.563541110348153
4.557386638183142
4.563541110348153
4.563541110348153
4.551232166018132
4.551232166018132
4.54507769385315
4.54507769385315
4.54507769385315
4.538923221688139
4.538923221688139
4.5327687495231315
4.538923221688139
4.538923221688139
4.5327687495231315
4.508150860863147
4.5327687495231315
4.54507769385315
4.538923221688139
4.5327687495231315
4.5327687495231315
4.526614277358149
4.520459805193139
4.483532972203136
4.471224027873144
4.495841916533128
4.495841916533128
4.489687444368147
4.483532972203136
4.477378500038126
4.465069555708134
4.446606139213133
4.446606139213133
4.458915083543125
4.452760611378115
4.458915083543125
4.452760611378115
4.446606139213133
4.428142722718132
4.397370361893111
4.40967930622313
4.428142722718132
4.489687444368147
4.569695582513134
4.6435492484931675
4.68047608148317
4.668167137153151
4.637394776328158
4.54507769385315
4.428142722718132
4.341980112408105
4.3112077515831135
4.323516695913104
4.354289056738125
4.3727524732331275
4.385061417563119
4.385061417563119
4.391215889728128
4.391215889728128
4.385061417563119
4.391215889728128
4.385061417563119
4.385061417563119
4.37890694539811
4.37890694539811
4.37890694539811
4.37890694539811
4.385061417563119
4.37890694539811
4.37890694539811
4.37890694539811
4.37890694539811
4.37890694539811
4.37890694539811
4.37890694539811
4.385061417563119
4.37890694539811
4.37890694539811
4.37890694539811
4.3727524732331275
4.3727524732331275
4.385061417563119
4.37890694539811
4.3727524732331275
4.385061417563119
4.37890694539811
4.385061417563119
4.397370361893111
4.415833778388112
4.40967930622313
4.415833778388112
4.415833778388112
4.40352483405812
4.397370361893111
4.415833778388112
4.415833778388112
4.421988250553122
4.434297194883113
4.434297194883113
4.440451667048122
4.440451667048122
4.434297194883113
4.434297194883113
4.440451667048122
4.428142722718132
4.421988250553122
4.40967930622313
4.391215889728128
4.3727524732331275
4.366598001068117
4.348134584573115
4.341980112408105
4.335825640243124
4.3173622237481215
4.3112077515831135
4.305053279418103
4.298898807253093
4.292744335088111
4.298898807253093
4.2865898629231
4.2865898629231
4.2865898629231
4.280435390758092
4.2865898629231
4.280435390758092
4.27428091859311
4.27428091859311
4.27428091859311
4.27428091859311
4.2865898629231
4.298898807253093
4.292744335088111
4.292744335088111
4.298898807253093
4.2865898629231
4.2681264464281
4.280435390758092
4.27428091859311
4.27428091859311
4.27428091859311
4.27428091859311
4.280435390758092
4.280435390758092
4.280435390758092
4.280435390758092
4.280435390758092
4.249663029933098
4.27428091859311
4.261971974263091
4.2681264464281
4.27428091859311
4.2681264464281
4.27428091859311
4.27428091859311
4.280435390758092
4.280435390758092
4.27428091859311
4.2681264464281
4.27428091859311
4.2681264464281
4.2681264464281
4.2681264464281
4.2681264464281
4.2681264464281
4.2681264464281
4.2681264464281
4.2681264464281
4.261971974263091
4.261971974263091
4.2681264464281
4.261971974263091
4.2681264464281
4.261971974263091
4.261971974263091
4.255817502098108
4.261971974263091
4.255817502098108
4.261971974263091
4.261971974263091
4.261971974263091
4.261971974263091
4.2681264464281
4.2681264464281
4.2681264464281
4.27428091859311
4.27428091859311
4.27428091859311
4.2681264464281
4.2681264464281
4.261971974263091
4.249663029933098
4.249663029933098
4.249663029933098
4.243508557768089
4.249663029933098
4.237354085603107
4.243508557768089
4.237354085603107
4.243508557768089
4.243508557768089
4.243508557768089
4.231199613438097
4.225045141273086
4.200427252613103
4.1942727804480935
4.212736196943095
4.2681264464281
4.335825640243124
4.415833778388112
4.452760611378115
4.458915083543125
4.440451667048122
4.366598001068117
4.261971974263091
4.1758093639530935
4.12657358663307
4.12657358663307
4.157345947458091
4.1942727804480935
4.2065817247780855
4.218890669108104
4.218890669108104
4.225045141273086
4.225045141273086
4.231199613438097
4.225045141273086
4.231199613438097
4.231199613438097
4.237354085603107
4.231199613438097
4.237354085603107
4.237354085603107
4.237354085603107
4.243508557768089
4.237354085603107
4.243508557768089
4.243508557768089
4.243508557768089
4.243508557768089
4.243508557768089
4.249663029933098
4.249663029933098
4.249663029933098
4.255817502098108
4.255817502098108
4.249663029933098
4.255817502098108
4.255817502098108
4.255817502098108
4.261971974263091
4.2681264464281
4.2681264464281
4.27428091859311
4.27428091859311
4.2865898629231
4.292744335088111
4.305053279418103
4.298898807253093
4.305053279418103
4.3173622237481215
4.323516695913104
4.3173622237481215
4.3173622237481215
4.323516695913104
4.3173622237481215
4.323516695913104
4.3173622237481215
4.305053279418103
4.298898807253093
4.305053279418103
4.298898807253093
4.2865898629231
4.261971974263091
4.237354085603107
4.225045141273086
4.212736196943095
4.212736196943095
4.2065817247780855
4.200427252613103
4.1942727804480935
4.200427252613103
4.188118308283084
4.1942727804480935
4.1942727804480935
4.181963836118102
4.188118308283084
4.188118308283084
4.188118308283084
4.1942727804480935
4.1942727804480935
4.1942727804480935
4.188118308283084
4.188118308283084
4.188118308283084
4.188118308283084
4.1942727804480935
4.1942727804480935
4.188118308283084
4.1942727804480935
4.1942727804480935
4.1942727804480935
4.1942727804480935
4.200427252613103
4.1942727804480935
4.200427252613103
4.2065817247780855
4.2065817247780855
4.2065817247780855
4.2065817247780855
4.212736196943095
4.212736196943095
4.212736196943095
4.2065817247780855
4.212736196943095
4.2065817247780855
4.2065817247780855
4.2065817247780855
4.200427252613103
4.212736196943095
4.212736196943095
4.212736196943095
4.2065817247780855
4.2065817247780855
4.2065817247780855
4.2065817247780855
4.2065817247780855
4.2065817247780855
4.200427252613103
4.188118308283084
4.2065817247780855
4.212736196943095
4.2065817247780855
4.200427252613103
4.2065817247780855
4.2065817247780855
4.1942727804480935
4.188118308283084
4.188118308283084
4.200427252613103
4.1942727804480935
4.200427252613103
4.200427252613103
4.200427252613103
4.2065817247780855
4.2065817247780855
4.212736196943095
4.212736196943095
4.225045141273086
4.225045141273086
4.225045141273086
4.218890669108104
4.212736196943095
4.218890669108104
4.2065817247780855
4.200427252613103
4.200427252613103
4.1942727804480935
4.1942727804480935
4.200427252613103
4.200427252613103
4.1942727804480935
4.200427252613103
4.1942727804480935
4.1942727804480935
4.200427252613103
4.1942727804480935
4.1942727804480935
4.181963836118102
4.169654891788083
4.151191475293081
4.151191475293081
4.181963836118102
4.255817502098108
4.329671168078114
4.40967930622313
4.428142722718132
4.428142722718132
4.391215889728128
4.329671168078114
4.225045141273086
4.120419114468088
4.095801225808078
4.120419114468088
4.151191475293081
4.157345947458091
4.163500419623101
4.169654891788083
4.1758093639530935
4.181963836118102
4.1758093639530935
4.163500419623101
4.188118308283084
4.188118308283084
4.188118308283084
4.1942727804480935
4.1942727804480935
4.188118308283084
4.188118308283084
4.1758093639530935
4.1758093639530935
4.1758093639530935
4.181963836118102
4.188118308283084
4.1942727804480935
4.200427252613103
4.1942727804480935
4.181963836118102
4.1942727804480935
4.200427252613103
4.200427252613103
4.2065817247780855
4.200427252613103
4.212736196943095
4.212736196943095
4.212736196943095
4.218890669108104
4.225045141273086
4.231199613438097
4.237354085603107
4.249663029933098
4.255817502098108
4.255817502098108
4.261971974263091
4.27428091859311
4.27428091859311
4.27428091859311
4.2865898629231
4.2865898629231
4.2865898629231
4.292744335088111
4.2865898629231
4.280435390758092
4.2865898629231
4.280435390758092
4.2681264464281
4.261971974263091
4.243508557768089
4.231199613438097
4.212736196943095
4.200427252613103
4.188118308283084
4.188118308283084
4.169654891788083
4.163500419623101
4.163500419623101
4.163500419623101
4.157345947458091
4.145037003128072
4.151191475293081
4.151191475293081
4.151191475293081
4.145037003128072
4.145037003128072
4.138882530963089
4.151191475293081
4.151191475293081
4.145037003128072
4.151191475293081
4.151191475293081
4.145037003128072
4.151191475293081
4.151191475293081
4.151191475293081
4.157345947458091
4.151191475293081
4.151191475293081
4.151191475293081
4.157345947458091
4.151191475293081
4.151191475293081
4.151191475293081
4.157345947458091
4.157345947458091
4.157345947458091
4.163500419623101
4.157345947458091
4.157345947458091
4.157345947458091
4.157345947458091
4.157345947458091
4.157345947458091
4.163500419623101
4.163500419623101
4.157345947458091
4.163500419623101
4.157345947458091
4.157345947458091
4.163500419623101
4.163500419623101
4.163500419623101
4.157345947458091
4.157345947458091
4.163500419623101
4.157345947458091
4.163500419623101
4.151191475293081
4.157345947458091
4.151191475293081
4.157345947458091
4.157345947458091
4.157345947458091
4.151191475293081
4.151191475293081
4.163500419623101
4.157345947458091
4.163500419623101
4.163500419623101
4.157345947458091
4.163500419623101
4.163500419623101
4.169654891788083
4.1758093639530935
4.163500419623101
4.1942727804480935
4.181963836118102
4.169654891788083
4.151191475293081
4.163500419623101
4.163500419623101
4.151191475293081
4.145037003128072
4.145037003128072
4.151191475293081
4.145037003128072
4.138882530963089
4.138882530963089
4.145037003128072
4.145037003128072
4.157345947458091
4.151191475293081
4.145037003128072
4.151191475293081
4.138882530963089
4.120419114468088
4.101955697973087
4.120419114468088
4.163500419623101
4.243508557768089
4.323516695913104
4.391215889728128
4.397370361893111
4.385061417563119
4.329671168078114
4.237354085603107
4.120419114468088
4.0465654484880815
4.058874392818074
4.083492281478085
4.108110170138069
4.120419114468088
4.12657358663307
4.1327280587980795
4.138882530963089
4.138882530963089
4.1327280587980795
4.145037003128072
4.145037003128072
4.145037003128072
4.145037003128072
4.145037003128072
4.151191475293081
4.145037003128072
4.145037003128072
4.151191475293081
4.151191475293081
4.151191475293081
4.151191475293081
4.157345947458091
4.145037003128072
4.138882530963089
4.138882530963089
4.151191475293081
4.157345947458091
4.151191475293081
4.157345947458091
4.157345947458091
4.163500419623101
4.169654891788083
4.1758093639530935
4.1758093639530935
4.181963836118102
4.181963836118102
4.1942727804480935
4.200427252613103
4.200427252613103
4.2065817247780855
4.225045141273086
4.231199613438097
4.237354085603107
4.237354085603107
4.249663029933098
4.249663029933098
4.255817502098108
4.261971974263091
4.255817502098108
4.261971974263091
4.261971974263091
4.261971974263091
4.255817502098108
4.237354085603107
4.225045141273086
4.212736196943095
4.200427252613103
4.188118308283084
4.1758093639530935
4.163500419623101
4.157345947458091
4.151191475293081
4.145037003128072
4.138882530963089
4.138882530963089
4.1327280587980795
4.138882530963089
4.138882530963089
4.1327280587980795
4.138882530963089
4.1327280587980795
4.12657358663307
4.138882530963089
4.138882530963089
4.1327280587980795
4.138882530963089
4.1327280587980795
4.1327280587980795
4.12657358663307
4.138882530963089
4.1327280587980795
4.1327280587980795
4.1327280587980795
4.145037003128072
4.138882530963089
4.145037003128072
4.138882530963089
4.138882530963089
4.12657358663307
4.157345947458091
4.151191475293081
4.157345947458091
4.151191475293081
4.151191475293081
4.138882530963089
4.120419114468088
4.151191475293081
4.163500419623101
4.163500419623101
4.163500419623101
4.163500419623101
4.163500419623101
4.145037003128072
4.145037003128072
4.145037003128072
4.157345947458091
4.151191475293081
4.157345947458091
4.151191475293081
4.151191475293081
4.157345947458091
4.151191475293081
4.157345947458091
4.157345947458091
4.163500419623101
4.163500419623101
4.163500419623101
4.157345947458091
4.151191475293081
4.157345947458091
4.157345947458091
4.157345947458091
4.157345947458091
4.163500419623101
4.169654891788083
4.1758093639530935
4.163500419623101
4.1758093639530935
4.169654891788083
4.181963836118102
4.188118308283084
4.181963836118102
4.188118308283084
4.188118308283084
4.188118308283084
4.1758093639530935
4.169654891788083
4.169654891788083
4.169654891788083
4.163500419623101
4.163500419623101
4.169654891788083
4.169654891788083
4.163500419623101
4.163500419623101
4.157345947458091
4.157345947458091
4.157345947458091
4.157345947458091
4.157345947458091
4.151191475293081
4.12657358663307
4.114264642303079
4.1327280587980795
4.181963836118102
4.249663029933098
4.335825640243124
4.37890694539811
4.391215889728128
4.391215889728128
4.329671168078114
4.225045141273086
4.120419114468088
4.058874392818074
4.058874392818074
4.077337809313075
4.114264642303079
4.12657358663307
4.138882530963089
4.138882530963089
4.145037003128072
4.151191475293081
4.151191475293081
4.151191475293081
4.145037003128072
4.151191475293081
4.151191475293081
4.145037003128072
4.151191475293081
4.145037003128072
4.138882530963089
4.1327280587980795
4.108110170138069
4.052719920653064
3.738841840238039
2.563337656722869
1.8494188855827651
1.615548943312728
1.5232318608377204
1.5540042216627135
1.6032399989827364
1.6463213041377214
1.6955570814577436
1.7263294422827367
1.7694107474377496
1.8124920525927626
1.8494188855827651
1.892500190737778
1.9294270237277809
1.9786628010477763
2.009435161872797
2.0586709391927913
2.089443300017785
2.138679077337807
2.1756059103278105
2.2063782711528033
2.249459576307816
2.286386409297819
2.3110042979578305
2.3417766587828237
2.360240075277825
2.4156303247628297
2.4217847969278394
2.4648661020828517
2.4894839907428636
2.5141018794028467
2.5325652958978484
2.544874240227868
2.5694921288878514
2.581801073217871
2.581801073217871
2.6002644897128726
2.612573434042864
2.631036850537866
2.6371913227028756
2.655654739197877
2.674118155692878
2.68642710002287
2.711044988682881
2.729508405177883
2.7418173495078744
2.760280766002876
2.778744182497905
2.8095165433228986
2.8218254876528905
2.83413443198291
2.858752320642893
2.877215737137895
2.895679153632896
2.9202970422929075
2.932605986622927
2.9510694031179288
2.975687291777912
2.994150708272913
3.0126141247679152
3.0249230690979347
3.055695429922928
3.080313318582939
3.1233946237379517
3.215711706212959
3.449581648482997
3.609597924773
3.720378423743037
3.800386561888025
3.874240227868059
3.9357849495180455
3.9850207268380675
4.040410976323072
4.077337809313075
4.120419114468088
4.151191475293081
4.181963836118102
4.218890669108104
4.249663029933098
4.27428091859311
4.298898807253093
4.323516695913104
4.341980112408105
4.366598001068117
4.397370361893111
4.40967930622313
4.428142722718132
4.434297194883113
4.452760611378115
4.465069555708134
4.483532972203136
4.495841916533128
4.514305333028129
4.520459805193139
4.526614277358149
4.538923221688139
4.54507769385315
4.54507769385315
4.563541110348153
4.575850054678144
4.5820045268431535
4.6004679433381535
4.606622415503137
4.606622415503137
4.612776887668146
4.618931359833156
4.631240304163148
4.637394776328158
4.6435492484931675
4.662012664988168
4.662012664988168
4.668167137153151
4.668167137153151
4.67432160931816
4.668167137153151
4.67432160931816
4.668167137153151
4.668167137153151
4.662012664988168
4.67432160931816
4.67432160931816
4.668167137153151
4.67432160931816
4.67432160931816
4.67432160931816
4.668167137153151
4.67432160931816
4.68047608148317
4.67432160931816
4.668167137153151
4.655858192823159
4.6435492484931675
4.649703720658149
4.698939497978172
4.766638691793168
4.840492357773174
4.889728135093197
4.908191551588198
4.902037079423188
4.846646829938185
4.760484219628157
4.655858192823159
4.575850054678144
4.5820045268431535
4.612776887668146
4.637394776328158
4.649703720658149
4.6435492484931675
4.67432160931816
4.67432160931816
4.67432160931816
4.668167137153151
4.655858192823159
4.655858192823159
4.655858192823159
4.662012664988168
4.662012664988168
4.655858192823159
4.662012664988168
4.662012664988168
4.649703720658149
4.649703720658149
4.649703720658149
4.649703720658149
4.649703720658149
4.649703720658149
4.649703720658149
4.655858192823159
4.649703720658149
4.655858192823159
4.649703720658149
4.655858192823159
4.655858192823159
4.655858192823159
4.655858192823159
4.655858192823159
4.649703720658149
4.655858192823159
4.655858192823159
4.662012664988168
4.662012664988168
4.67432160931816
4.68047608148317
4.68047608148317
4.686630553648152
4.686630553648152
4.692785025813162
4.698939497978172
4.705093970143154
4.705093970143154
4.698939497978172
4.692785025813162
4.692785025813162
4.686630553648152
4.686630553648152
4.67432160931816
4.662012664988168
4.649703720658149
4.637394776328158
4.618931359833156
4.6004679433381535
4.5943134711731455
4.588158999008135
4.575850054678144
4.563541110348153
4.557386638183142
4.551232166018132
4.54507769385315
4.538923221688139
4.538923221688139
4.526614277358149
4.5327687495231315
4.5327687495231315
4.526614277358149
4.520459805193139
4.520459805193139
4.514305333028129
4.508150860863147
4.514305333028129
4.514305333028129
4.508150860863147
4.508150860863147
4.489687444368147
4.495841916533128
4.514305333028129
4.514305333028129
4.508150860863147
4.501996388698137
4.501996388698137
4.501996388698137
4.477378500038126
4.471224027873144
4.483532972203136
4.477378500038126
4.477378500038126
4.477378500038126
4.477378500038126
4.483532972203136
4.483532972203136
4.471224027873144
4.471224027873144
4.471224027873144
4.471224027873144
4.471224027873144
4.465069555708134
4.471224027873144
4.465069555708134
4.471224027873144
4.458915083543125
4.452760611378115
4.458915083543125
4.458915083543125
4.446606139213133
4.452760611378115
4.446606139213133
4.440451667048122
4.440451667048122
4.440451667048122
4.440451667048122
4.446606139213133
4.440451667048122
4.434297194883113
4.434297194883113
4.428142722718132
4.434297194883113
4.434297194883113
4.428142722718132
4.428142722718132
4.421988250553122
4.397370361893111
4.440451667048122
4.434297194883113
4.434297194883113
4.428142722718132
4.428142722718132
4.421988250553122
4.421988250553122
4.40352483405812
4.415833778388112
4.415833778388112
4.40967930622313
4.40967930622313
4.40967930622313
4.40967930622313
4.40352483405812
4.40352483405812
4.385061417563119
4.391215889728128
4.37890694539811
4.37890694539811
4.385061417563119
4.37890694539811
4.37890694539811
4.3727524732331275
4.3727524732331275
4.37890694539811
4.3727524732331275
4.3727524732331275
4.360443528903107
4.341980112408105
4.329671168078114
4.348134584573115
4.397370361893111
4.458915083543125
4.54507769385315
4.5943134711731455
4.5943134711731455
4.5820045268431535
4.5327687495231315
4.434297194883113
4.329671168078114
4.261971974263091
4.2681264464281
4.298898807253093
4.323516695913104
4.329671168078114
4.335825640243124
4.329671168078114
4.329671168078114
4.335825640243124
4.329671168078114
4.341980112408105
4.335825640243124
4.329671168078114
4.335825640243124
4.335825640243124
4.329671168078114
4.335825640243124
4.335825640243124
4.329671168078114
4.335825640243124
4.329671168078114
4.329671168078114
4.341980112408105
4.329671168078114
4.335825640243124
4.335825640243124
4.341980112408105
4.341980112408105
4.348134584573115
4.335825640243124
4.335825640243124
4.348134584573115
4.348134584573115
4.341980112408105
4.341980112408105
4.348134584573115
4.354289056738125
4.360443528903107
4.360443528903107
4.3727524732331275
4.37890694539811
4.37890694539811
4.391215889728128
4.391215889728128
4.397370361893111
4.40352483405812
4.40967930622313
4.40967930622313
4.40352483405812
4.40967930622313
4.40967930622313
4.397370361893111
4.397370361893111
4.385061417563119
4.385061417563119
4.360443528903107
4.335825640243124
4.27428091859311
4.157345947458091
3.874240227868059
3.080313318582939
1.9294270237277809
1.6340123598077294
1.6586302484677409
1.7078660257877356
1.7509473309427481
1.8063375804277528
1.8432644134177558
1.8863457185727683
1.9294270237277809
1.966353856717784
2.009435161872797
2.0463619948628
2.0709798835227837
2.114061188677796
2.1448335495027893
2.1756059103278105
2.212532743317813
2.2371506319778245
2.2679229928028177
2.2925408814628288
2.3417766587828237
2.372549019607845
2.391012436102846
2.403321380432838
2.434093741257831
2.4648661020828517
2.501792935072855
2.520256351567857
2.544874240227868
2.575646601052861
2.5941100175478624
2.618727906207874
2.6433457948678853
2.667963683527869
2.68642710002287
2.711044988682881
2.729508405177883
2.760280766002876
2.778744182497905
2.8033620711578893
2.8279799598179
2.8402889041478923
2.858752320642893
2.883370209302905
2.901833625797906
2.9141425701278982
2.9264515144579173
2.944914930952919
2.9633783474479203
2.9818417639429216
3.0003051804379233
3.018768596932925
3.0249230690979347
3.043386485592936
3.0618499020879373
3.080313318582939
3.0987767350779407
3.1233946237379517
3.1295490959029335
3.154166984562945
3.166475928892937
3.178784873222956
3.1972482897179573
3.2034027618829395
3.2280206505429514
3.234175122707961
3.2464840670379527
3.264947483532954
3.289565372192965
3.2957198443579747
3.308028788687967
3.3264922051829684
3.332646677347978
3.357264566007961
3.3695735103379807
3.381882454667973
3.400345871162974
3.418809287657976
3.4311182319879947
3.4434271763179867
3.4557361206479786
3.461890592812989
3.468045064977998
3.4988174258029914
3.511126370132983
3.529589786627985
3.5849800361130173
3.763459728898022
3.9357849495180455
4.028102031993082
4.101955697973087
4.157345947458091
4.218890669108104
4.261971974263091
4.3112077515831135
4.348134584573115
4.37890694539811
4.40352483405812
4.421988250553122
4.421988250553122
4.446606139213133
4.508150860863147
4.5943134711731455
4.692785025813162
4.778947636123188
4.828183413443182
4.8528013021031935
4.834337885608192
4.772793163958178
4.686630553648152
4.588158999008135
4.569695582513134
4.612776887668146
4.649703720658149
4.68047608148317
4.692785025813162
4.705093970143154
4.717402914473173
4.7297118588031655
4.7420208031331565
4.7420208031331565
4.748175275298167
4.754329747463175
4.760484219628157
4.760484219628157
4.766638691793168
4.778947636123188
4.778947636123188
4.785102108288171
4.7912565804531795
4.797411052618189
4.797411052618189
4.803565524783171
4.809719996948181
4.803565524783171
4.809719996948181
4.809719996948181
4.809719996948181
4.81587446911319
4.81587446911319
4.809719996948181
4.809719996948181
4.828183413443182
4.840492357773174
4.834337885608192
4.840492357773174
4.834337885608192
4.834337885608192
4.834337885608192
4.846646829938185
4.8528013021031935
4.858955774268176
4.8651102464331855
4.871264718598195
4.883573662928187
4.883573662928187
4.889728135093197
4.877419190763177
4.871264718598195
4.8651102464331855
4.846646829938185
4.803565524783171
4.748175275298167
4.6435492484931675
4.588158999008135
4.557386638183142
4.501996388698137
4.446606139213133
4.40352483405812
4.366598001068117
4.3173622237481215
4.218890669108104
4.163500419623101
4.028102031993082
3.7757686732280415
3.640370285598021
3.548053203123014
3.486508481473
3.486508481473
3.554207675287996
3.363419038172971
3.191093817552948
3.0618499020879373
2.9633783474479203
2.9818417639429216
3.0003051804379233
3.018768596932925
3.0372320134279267
3.055695429922928
3.074158846417929
3.0987767350779407
3.1110856794079322
3.1233946237379517
3.141858040232953
3.160321456727955
3.178784873222956
3.191093817552948
3.215711706212959
3.234175122707961
3.2403295948729705
3.258793011367972
3.277256427862973
3.283410900027955
3.2957198443579747
3.3141832608529764
3.3264922051829684
3.3388011495129604
3.3449556216779697
3.357264566007961
3.3695735103379807
3.381882454667973
3.394191398997992
3.406500343327984
3.4126548154929934
3.4311182319879947
3.4434271763179867
3.4557361206479786
3.468045064977998
3.4741995371429804
3.4926629536379816
3.4988174258029914
3.504971897968001
3.5172808422979926
3.5357442587929944
3.541898730958004
3.548053203123014
3.554207675287996
3.572671091782997
3.578825563948007
3.591134508277999
3.5972889804430093
3.609597924773
3.61575239693801
3.61575239693801
3.6219068691030203
3.634215813433012
3.640370285598021
3.6465247577630033
3.652679229928013
3.671142646423015
3.671142646423015
3.6834515907530063
3.6896060629180156
3.695760535083026
3.7142239515780275
3.7142239515780275
3.720378423743037
3.732687368073029
3.732687368073029
3.75115078456803
3.763459728898022
3.763459728898022
3.7696142010630322
3.7757686732280415
3.781923145393024
3.7942320897230433
3.7942320897230433
3.788077617558033
3.7942320897230433
3.800386561888025
3.8065410340530352
3.8126955062180454
3.8126955062180454
3.7942320897230433
3.825004450548036
3.8126955062180454
3.825004450548036
3.837313394878028
3.8434678670430373
3.8434678670430373
3.837313394878028
3.825004450548036
3.8188499783830263
3.837313394878028
3.874240227868059
3.948093893848065
4.015793087663061
4.083492281478085
4.089646753643067
4.089646753643067
4.058874392818074
3.9604028381780574
3.855776811373057
3.800386561888025
3.800386561888025
3.8126955062180454
3.8434678670430373
3.8803947000330408
3.8988581165280416
3.8988581165280416
3.9173215330230438
3.9357849495180455
3.9911751990030497
4.163500419623101
4.2865898629231
4.366598001068117
4.428142722718132
4.477378500038126
4.520459805193139
4.557386638183142
4.5820045268431535
4.625085831998166
4.649703720658149
4.67432160931816
4.692785025813162
4.711248442308165
4.735866330968175
4.7420208031331565
4.766638691793168
4.778947636123188
4.785102108288171
4.803565524783171
4.822028941278172
4.822028941278172
4.834337885608192
4.8528013021031935
4.858955774268176
4.8651102464331855
4.883573662928187
4.895882607258178
4.895882607258178
4.91434602375318
4.92050049591819
4.9389639124131905
4.951272856743211
4.951272856743211
4.963581801073202
4.975890745403193
4.975890745403193
4.9881996897332135
4.994354161898196
4.9881996897332135
4.994354161898196
5.000508634063205
5.000508634063205
4.9881996897332135
4.994354161898196
4.975890745403193
4.975890745403193
4.963581801073202
4.945118384578201
4.932809440248209
4.9266549680832
4.91434602375318
4.902037079423188
4.895882607258178
4.883573662928187
4.883573662928187
4.877419190763177
4.877419190763177
4.8651102464331855
4.858955774268176
4.858955774268176
4.8651102464331855
4.8528013021031935
4.846646829938185
4.846646829938185
4.8528013021031935
4.840492357773174
4.840492357773174
4.840492357773174
4.840492357773174
4.840492357773174
4.828183413443182
4.834337885608192
4.834337885608192
4.828183413443182
4.822028941278172
4.822028941278172
4.822028941278172
4.81587446911319
4.809719996948181
4.81587446911319
4.803565524783171
4.809719996948181
4.803565524783171
4.797411052618189
4.797411052618189
4.7912565804531795
4.785102108288171
4.778947636123188
4.778947636123188
4.772793163958178
4.772793163958178
4.766638691793168
4.748175275298167
4.772793163958178
4.772793163958178
4.760484219628157
4.748175275298167
4.735866330968175
4.7420208031331565
4.7420208031331565
4.748175275298167
4.7420208031331565
4.735866330968175
4.7297118588031655
4.7297118588031655
4.7297118588031655
4.723557386638155
4.723557386638155
4.717402914473173
4.723557386638155
4.717402914473173
4.717402914473173
4.711248442308165
4.705093970143154
4.692785025813162
4.686630553648152
4.698939497978172
4.698939497978172
4.692785025813162
4.686630553648152
4.686630553648152
4.686630553648152
4.68047608148317
4.68047608148317
4.67432160931816
4.68047608148317
4.67432160931816
4.668167137153151
4.67432160931816
4.662012664988168
4.662012664988168
4.662012664988168
4.662012664988168
4.668167137153151
4.662012664988168
4.655858192823159
4.6435492484931675
4.6435492484931675
4.6435492484931675
4.631240304163148
4.625085831998166
4.618931359833156
4.618931359833156
4.618931359833156
4.606622415503137
4.606622415503137
4.6004679433381535
4.6004679433381535
4.5943134711731455
4.588158999008135
4.588158999008135
4.575850054678144
4.569695582513134
4.551232166018132
4.526614277358149
4.514305333028129
4.551232166018132
4.612776887668146
4.67432160931816
4.7420208031331565
4.766638691793168
4.766638691793168
4.735866330968175
4.655858192823159
4.557386638183142
4.452760611378115
4.434297194883113
4.465069555708134
4.489687444368147
4.501996388698137
4.508150860863147
4.514305333028129
4.514305333028129
4.514305333028129
4.520459805193139
4.514305333028129
4.508150860863147
4.514305333028129
4.514305333028129
4.514305333028129
4.514305333028129
4.514305333028129
4.501996388698137
4.489687444368147
4.520459805193139
4.520459805193139
4.514305333028129
4.508150860863147
4.514305333028129
4.514305333028129
4.495841916533128
4.483532972203136
4.495841916533128
4.495841916533128
4.501996388698137
4.495841916533128
4.495841916533128
4.501996388698137
4.495841916533128
4.508150860863147
4.508150860863147
4.508150860863147
4.514305333028129
4.508150860863147
4.514305333028129
4.520459805193139
4.520459805193139
4.5327687495231315
4.538923221688139
4.538923221688139
4.551232166018132
4.54507769385315
4.551232166018132
4.551232166018132
4.520459805193139
4.557386638183142
4.563541110348153
4.551232166018132
4.54507769385315
4.5327687495231315
4.520459805193139
4.508150860863147
4.471224027873144
4.458915083543125
4.446606139213133
4.446606139213133
4.428142722718132
4.421988250553122
4.40967930622313
4.40967930622313
4.40967930622313
4.40967930622313
4.40352483405812
4.397370361893111
4.40352483405812
4.391215889728128
4.391215889728128
4.391215889728128
4.397370361893111
4.385061417563119
4.385061417563119
4.391215889728128
4.385061417563119
4.37890694539811
4.385061417563119
4.37890694539811
4.385061417563119
4.37890694539811
4.37890694539811
4.3727524732331275
4.37890694539811
4.37890694539811
4.3727524732331275
4.3727524732331275
4.37890694539811
4.37890694539811
4.3727524732331275
4.3727524732331275
4.366598001068117
4.3727524732331275
4.3727524732331275
4.366598001068117
4.366598001068117
4.360443528903107
4.360443528903107
4.360443528903107
4.360443528903107
4.360443528903107
4.366598001068117
4.360443528903107
4.354289056738125
4.354289056738125
4.354289056738125
4.354289056738125
4.360443528903107
4.360443528903107
4.360443528903107
4.354289056738125
4.360443528903107
4.354289056738125
4.348134584573115
4.348134584573115
4.348134584573115
4.348134584573115
4.354289056738125
4.341980112408105
4.348134584573115
4.341980112408105
4.348134584573115
4.341980112408105
4.335825640243124
4.335825640243124
4.329671168078114
4.323516695913104
4.335825640243124
4.329671168078114
4.323516695913104
4.329671168078114
4.329671168078114
4.335825640243124
4.329671168078114
4.335825640243124
4.341980112408105
4.341980112408105
4.335825640243124
4.335825640243124
4.341980112408105
4.329671168078114
4.3173622237481215
4.329671168078114
4.348134584573115
4.341980112408105
4.341980112408105
4.341980112408105
4.329671168078114
4.329671168078114
4.323516695913104
4.3173622237481215
4.3173622237481215
4.305053279418103
4.3112077515831135
4.305053279418103
4.298898807253093
4.298898807253093
4.292744335088111
4.292744335088111
4.218890669108104
3.0618499020879373
1.757101803107758
1.7078660257877356
1.7632562752727399
1.8001831082627426
1.855573357747775
1.91096360723278
2.009435161872797
2.114061188677796
2.212532743317813
2.329467714452832
2.3663945474428347
2.3663945474428347
2.3417766587828237
2.2740774649678275
2.200223798987821
2.1694514381628007
2.212532743317813
2.2740774649678275
2.323313242287822
2.3663945474428347
2.391012436102846
2.4217847969278394
2.4525571577528327
2.483329518577854
2.507947407237865
2.526410823732866
2.5141018794028467
2.4279392690928487
2.434093741257831
2.4648661020828517
2.507947407237865
2.618727906207874
2.68642710002287
2.7171994608478913
2.747971821672884
2.778744182497905
2.8095165433228986
2.83413443198291
2.8464433763129016
2.883370209302905
2.907988097962916
2.9264515144579173
2.9387604587879093
2.9633783474479203
2.994150708272913
3.0126141247679152
3.0372320134279267
3.049540957757918
3.074158846417929
3.080313318582939
3.1110856794079322
3.141858040232953
3.166475928892937
3.1849393453879378
3.2095572340479492
3.234175122707961
3.2464840670379527
3.271101955697964
3.2957198443579747
3.308028788687967
3.3388011495129604
3.35111009384298
3.3695735103379807
3.381882454667973
3.406500343327984
3.4126548154929934
3.4311182319879947
3.437272704152977
3.4434271763179867
3.449581648482997
3.4434271763179867
3.437272704152977
3.4434271763179867
3.437272704152977
3.437272704152977
3.4434271763179867
3.437272704152977
3.4434271763179867
3.437272704152977
3.4434271763179867
3.4557361206479786
3.4557361206479786
3.461890592812989
3.48035400930799
3.486508481473
3.4988174258029914
3.511126370132983
3.511126370132983
3.5172808422979926
3.5357442587929944
3.5357442587929944
3.548053203123014
3.554207675287996
3.5665166196180156
3.5849800361130173
3.5849800361130173
3.6034434526080172
3.609597924773
3.6219068691030203
3.634215813433012
3.634215813433012
3.6465247577630033
3.652679229928013
3.658833702093023
3.6649881742580046
3.677297118588024
3.6896060629180156
3.6896060629180156
3.701915007248036
3.701915007248036
3.7142239515780275
3.7265328959080186
3.732687368073029
3.738841840238039
3.738841840238039
3.75730525673304
3.8126955062180454
3.9850207268380675
4.120419114468088
4.151191475293081
3.8988581165280416
3.75730525673304
3.763459728898022
3.7757686732280415
3.7757686732280415
3.781923145393024
3.788077617558033
3.7942320897230433
3.800386561888025
3.800386561888025
3.7942320897230433
3.831158922713046
3.831158922713046
3.837313394878028
3.837313394878028
3.837313394878028
3.825004450548036
3.831158922713046
3.837313394878028
3.8496223392080475
3.8496223392080475
3.855776811373057
3.8619312835380395
3.874240227868059
3.874240227868059
3.886549172198051
3.886549172198051
3.886549172198051
3.886549172198051
3.8927036443630603
3.8988581165280416
3.8988581165280416
3.9050125886930522
3.9111670608580615
3.9234760051880535
3.9296304773530633
3.9296304773530633
3.9419394216830552
3.9296304773530633
3.9296304773530633
3.9357849495180455
3.9296304773530633
3.9357849495180455
3.9296304773530633
3.9296304773530633
3.9357849495180455
3.9357849495180455
3.9234760051880535
3.9296304773530633
3.9542483660130467
3.9542483660130467
3.9788662546730578
4.083492281478085
4.237354085603107
4.335825640243124
4.3727524732331275
4.40967930622313
4.458915083543125
4.5327687495231315
4.612776887668146
4.705093970143154
4.803565524783171
4.858955774268176
4.871264718598195
4.871264718598195
4.822028941278172
4.7420208031331565
4.67432160931816
4.655858192823159
4.68047608148317
4.717402914473173
4.754329747463175
4.785102108288171
4.797411052618189
4.809719996948181
4.81587446911319
4.822028941278172
4.834337885608192
4.834337885608192
4.846646829938185
4.858955774268176
4.8651102464331855
4.8651102464331855
4.877419190763177
4.883573662928187
4.883573662928187
4.883573662928187
4.889728135093197
4.889728135093197
4.895882607258178
4.902037079423188
4.902037079423188
4.902037079423188
4.895882607258178
4.895882607258178
4.902037079423188
4.908191551588198
4.908191551588198
4.908191551588198
4.908191551588198
4.91434602375318
4.91434602375318
4.92050049591819
4.9266549680832
4.92050049591819
4.9266549680832
4.932809440248209
4.9389639124131905
4.945118384578201
4.945118384578201
4.945118384578201
4.963581801073202
4.969736273238212
4.963581801073202
4.969736273238212
4.969736273238212
4.969736273238212
4.963581801073202
4.969736273238212
4.957427328908192
4.957427328908192
4.951272856743211
4.932809440248209
4.9266549680832
4.908191551588198
4.889728135093197
4.871264718598195
4.8528013021031935
4.846646829938185
4.828183413443182
4.822028941278172
4.803565524783171
4.778947636123188
4.7912565804531795
4.778947636123188
4.778947636123188
4.778947636123188
4.778947636123188
4.778947636123188
4.778947636123188
4.772793163958178
4.772793163958178
4.766638691793168
4.760484219628157
4.760484219628157
4.760484219628157
4.760484219628157
4.754329747463175
4.754329747463175
4.748175275298167
4.7420208031331565
4.7420208031331565
4.7420208031331565
4.7297118588031655
4.7297118588031655
4.7297118588031655
4.7297118588031655
4.7297118588031655
4.717402914473173
4.723557386638155
4.711248442308165
4.717402914473173
4.705093970143154
4.705093970143154
4.698939497978172
4.698939497978172
4.692785025813162
4.698939497978172
4.686630553648152
4.692785025813162
4.686630553648152
4.68047608148317
4.68047608148317
4.68047608148317
4.67432160931816
4.668167137153151
4.668167137153151
4.668167137153151
4.655858192823159
4.662012664988168
4.655858192823159
4.649703720658149
4.649703720658149
4.649703720658149
4.6435492484931675
4.6435492484931675
4.637394776328158
4.631240304163148
4.625085831998166
4.631240304163148
4.618931359833156
4.618931359833156
4.618931359833156
4.612776887668146
4.612776887668146
4.606622415503137
4.612776887668146
4.606622415503137
4.6004679433381535
4.6004679433381535
4.5943134711731455
4.5943134711731455
4.6004679433381535
4.5943134711731455
4.588158999008135
4.5820045268431535
4.5820045268431535
4.5820045268431535
4.588158999008135
4.588158999008135
4.5820045268431535
4.5820045268431535
4.575850054678144
4.569695582513134
4.569695582513134
4.557386638183142
4.551232166018132
4.54507769385315
4.538923221688139
4.5327687495231315
4.538923221688139
4.5327687495231315
4.5327687495231315
4.526614277358149
4.526614277358149
4.5327687495231315
4.520459805193139
4.514305333028129
4.508150860863147
4.495841916533128
4.465069555708134
4.465069555708134
4.495841916533128
4.557386638183142
4.631240304163148
4.705093970143154
4.748175275298167
4.735866330968175
4.705093970143154
4.625085831998166
4.520459805193139
4.40967930622313
4.3727524732331275
4.40352483405812
4.428142722718132
4.446606139213133
4.446606139213133
4.452760611378115
4.452760611378115
4.458915083543125
4.458915083543125
4.452760611378115
4.446606139213133
4.440451667048122
4.428142722718132
4.452760611378115
4.446606139213133
4.446606139213133
4.440451667048122
4.421988250553122
4.428142722718132
4.434297194883113
4.434297194883113
4.434297194883113
4.434297194883113
4.428142722718132
4.428142722718132
4.428142722718132
4.421988250553122
4.428142722718132
4.428142722718132
4.428142722718132
4.428142722718132
4.434297194883113
4.428142722718132
4.434297194883113
4.428142722718132
4.440451667048122
4.446606139213133
4.440451667048122
4.452760611378115
4.452760611378115
4.458915083543125
4.471224027873144
4.471224027873144
4.471224027873144
4.477378500038126
4.483532972203136
4.483532972203136
4.483532972203136
4.489687444368147
4.495841916533128
4.483532972203136
4.489687444368147
4.489687444368147
4.477378500038126
4.465069555708134
4.452760611378115
4.434297194883113
4.421988250553122
4.40352483405812
4.385061417563119
4.3727524732331275
4.366598001068117
4.354289056738125
4.348134584573115
4.348134584573115
4.329671168078114
4.329671168078114
4.335825640243124
4.335825640243124
4.323516695913104
4.323516695913104
4.3173622237481215
4.3173622237481215
4.3173622237481215
4.3173622237481215
4.3173622237481215
4.3173622237481215
4.323516695913104
4.3173622237481215
4.3112077515831135
4.3112077515831135
4.3112077515831135
4.3112077515831135
4.305053279418103
4.3112077515831135
4.305053279418103
4.298898807253093
4.305053279418103
4.305053279418103
4.305053279418103
4.305053279418103
4.298898807253093
4.298898807253093
4.305053279418103
4.305053279418103
4.298898807253093
4.305053279418103
4.298898807253093
4.298898807253093
4.292744335088111
4.292744335088111
4.292744335088111
4.2865898629231
4.2865898629231
4.292744335088111
4.2865898629231
4.292744335088111
4.2865898629231
4.2865898629231
4.280435390758092
4.280435390758092
4.280435390758092
4.27428091859311
4.280435390758092
4.280435390758092
4.2681264464281
4.2681264464281
4.2681264464281
4.243508557768089
4.280435390758092
4.27428091859311
4.280435390758092
4.27428091859311
4.27428091859311
4.27428091859311
4.261971974263091
4.249663029933098
4.249663029933098
4.261971974263091
4.261971974263091
4.261971974263091
4.2681264464281
4.2681264464281
4.261971974263091
4.255817502098108
4.2865898629231
4.280435390758092
4.280435390758092
4.27428091859311
4.2865898629231
4.2865898629231
4.27428091859311
4.2681264464281
4.2681264464281
4.2681264464281
4.2681264464281
4.2681264464281
4.261971974263091
4.261971974263091
4.255817502098108
4.255817502098108
4.255817502098108
4.249663029933098
4.249663029933098
4.249663029933098
4.243508557768089
4.249663029933098
4.249663029933098
4.249663029933098
4.249663029933098
4.243508557768089
4.218890669108104
4.1942727804480935
4.212736196943095
4.261971974263091
4.329671168078114
4.421988250553122
4.489687444368147
4.508150860863147
4.495841916533128
4.446606139213133
4.348134584573115
4.231199613438097
4.138882530963089
4.138882530963089
4.163500419623101
4.200427252613103
4.212736196943095
4.225045141273086
4.225045141273086
4.231199613438097
4.231199613438097
4.231199613438097
4.231199613438097
4.231199613438097
4.237354085603107
4.243508557768089
4.237354085603107
4.237354085603107
4.243508557768089
4.237354085603107
4.243508557768089
4.237354085603107
4.243508557768089
4.243508557768089
4.243508557768089
4.249663029933098
4.249663029933098
4.255817502098108
4.249663029933098
4.249663029933098
4.255817502098108
4.255817502098108
4.261971974263091
4.261971974263091
4.261971974263091
4.2681264464281
4.27428091859311
4.27428091859311
4.2681264464281
4.280435390758092
4.2865898629231
4.2865898629231
4.298898807253093
4.298898807253093
4.3112077515831135
4.3173622237481215
4.3173622237481215
4.329671168078114
4.335825640243124
4.335825640243124
4.335825640243124
4.335825640243124
4.341980112408105
4.341980112408105
4.329671168078114
4.335825640243124
4.323516695913104
4.305053279418103
4.298898807253093
4.292744335088111
4.27428091859311
4.261971974263091
4.243508557768089
4.237354085603107
4.231199613438097
4.218890669108104
4.212736196943095
4.212736196943095
4.212736196943095
4.200427252613103
4.200427252613103
4.2065817247780855
4.200427252613103
4.200427252613103
4.200427252613103
4.2065817247780855
4.2065817247780855
4.2065817247780855
4.2065817247780855
4.2065817247780855
4.2065817247780855
4.2065817247780855
4.200427252613103
4.2065817247780855
4.200427252613103
4.188118308283084
4.212736196943095
4.2065817247780855
4.1942727804480935
4.1942727804480935
4.200427252613103
4.1942727804480935
4.200427252613103
4.200427252613103
4.200427252613103
4.2065817247780855
4.2065817247780855
4.2065817247780855
4.1942727804480935
4.200427252613103
4.200427252613103
4.1942727804480935
4.1942727804480935
4.1942727804480935
4.1942727804480935
4.1942727804480935
4.200427252613103
4.200427252613103
4.1942727804480935
4.1942727804480935
4.200427252613103
4.1942727804480935
4.1942727804480935
4.200427252613103
4.200427252613103
4.200427252613103
4.1942727804480935
4.1942727804480935
4.1942727804480935
4.1942727804480935
4.1942727804480935
4.1942727804480935
4.200427252613103
4.1942727804480935
4.200427252613103
4.200427252613103
4.212736196943095
4.2065817247780855
4.1942727804480935
4.2065817247780855
4.2065817247780855
4.200427252613103
4.200427252613103
4.2065817247780855
4.212736196943095
4.2065817247780855
4.2065817247780855
4.2065817247780855
4.212736196943095
4.2065817247780855
4.212736196943095
4.212736196943095
4.218890669108104
4.218890669108104
4.218890669108104
4.218890669108104
4.212736196943095
4.2065817247780855
4.200427252613103
4.200427252613103
4.2065817247780855
4.2065817247780855
4.212736196943095
4.2065817247780855
4.200427252613103
4.2065817247780855
4.200427252613103
4.2065817247780855
4.200427252613103
4.200427252613103
4.181963836118102
4.169654891788083
4.151191475293081
4.169654891788083
4.218890669108104
4.280435390758092
4.360443528903107
4.428142722718132
4.434297194883113
4.434297194883113
4.385061417563119
4.2681264464281
4.163500419623101
4.101955697973087
4.083492281478085
4.114264642303079
4.138882530963089
4.163500419623101
4.181963836118102
4.1758093639530935
4.1758093639530935
4.181963836118102
4.188118308283084
4.181963836118102
4.181963836118102
4.188118308283084
4.188118308283084
4.188118308283084
4.188118308283084
4.188118308283084
4.1942727804480935
4.1942727804480935
4.188118308283084
4.200427252613103
4.200427252613103
4.200427252613103
4.200427252613103
4.200427252613103
4.200427252613103
4.200427252613103
4.200427252613103
4.200427252613103
4.2065817247780855
4.2065817247780855
4.2065817247780855
4.212736196943095
4.212736196943095
4.212736196943095
4.237354085603107
4.237354085603107
4.243508557768089
4.249663029933098
4.243508557768089
4.237354085603107
4.243508557768089
4.255817502098108
4.2681264464281
4.2681264464281
4.2865898629231
4.2865898629231
4.2865898629231
4.2865898629231
4.292744335088111
4.2865898629231
4.2865898629231
4.2865898629231
4.27428091859311
4.2681264464281
4.261971974263091
4.249663029933098
4.243508557768089
4.225045141273086
4.212736196943095
4.2065817247780855
4.188118308283084
4.181963836118102
4.1758093639530935
4.169654891788083
4.163500419623101
4.157345947458091
4.157345947458091
4.157345947458091
4.151191475293081
4.145037003128072
4.151191475293081
4.145037003128072
4.145037003128072
4.151191475293081
4.151191475293081
4.151191475293081
4.151191475293081
4.151191475293081
4.145037003128072
4.151191475293081
4.151191475293081
4.151191475293081
4.151191475293081
4.151191475293081
4.151191475293081
4.151191475293081
4.1327280587980795
4.157345947458091
4.163500419623101
4.163500419623101
4.157345947458091
4.163500419623101
4.151191475293081
4.145037003128072
4.1327280587980795
4.1327280587980795
4.1327280587980795
4.138882530963089
4.1327280587980795
4.1327280587980795
4.138882530963089
4.138882530963089
4.1327280587980795
4.138882530963089
4.138882530963089
4.145037003128072
4.145037003128072
4.138882530963089
4.138882530963089
4.138882530963089
4.138882530963089
4.145037003128072
4.138882530963089
4.145037003128072
4.145037003128072
4.151191475293081
4.138882530963089
4.145037003128072
4.151191475293081
4.145037003128072
4.138882530963089
4.145037003128072
4.151191475293081
4.151191475293081
4.145037003128072
4.151191475293081
4.145037003128072
4.157345947458091
4.157345947458091
4.157345947458091
4.157345947458091
4.157345947458091
4.163500419623101
4.157345947458091
4.169654891788083
4.169654891788083
4.1758093639530935
4.169654891788083
4.1758093639530935
4.169654891788083
4.169654891788083
4.1758093639530935
4.163500419623101
4.157345947458091
4.157345947458091
4.157345947458091
4.151191475293081
4.157345947458091
4.151191475293081
4.145037003128072
4.151191475293081
4.151191475293081
4.157345947458091
4.151191475293081
4.151191475293081
4.138882530963089
4.138882530963089
4.12657358663307
4.120419114468088
4.114264642303079
4.138882530963089
4.1942727804480935
4.27428091859311
4.341980112408105
4.385061417563119
4.385061417563119
4.360443528903107
4.305053279418103
4.2065817247780855
4.101955697973087
4.052719920653064
4.083492281478085
4.108110170138069
4.1327280587980795
4.138882530963089
4.151191475293081
4.145037003128072
4.145037003128072
4.151191475293081
4.157345947458091
4.157345947458091
4.157345947458091
4.151191475293081
4.157345947458091
4.157345947458091
4.163500419623101
4.163500419623101
4.157345947458091
4.163500419623101
4.157345947458091
4.157345947458091
4.163500419623101
4.169654891788083
4.169654891788083
4.163500419623101
4.163500419623101
4.1758093639530935
4.1758093639530935
4.1758093639530935
4.1758093639530935
4.181963836118102
4.181963836118102
4.181963836118102
4.181963836118102
4.181963836118102
4.1942727804480935
4.1942727804480935
4.200427252613103
4.2065817247780855
4.2065817247780855
4.212736196943095
4.225045141273086
4.237354085603107
4.237354085603107
4.243508557768089
4.255817502098108
4.255817502098108
4.255817502098108
4.243508557768089
4.261971974263091
4.261971974263091
4.255817502098108
4.255817502098108
4.255817502098108
4.243508557768089
4.231199613438097
4.225045141273086
4.2065817247780855
4.200427252613103
4.181963836118102
4.169654891788083
4.169654891788083
4.157345947458091
4.151191475293081
4.145037003128072
4.145037003128072
4.138882530963089
4.138882530963089
4.12657358663307
4.12657358663307
4.1327280587980795
4.12657358663307
4.138882530963089
4.1327280587980795
4.1327280587980795
4.1327280587980795
4.1327280587980795
4.138882530963089
4.1327280587980795
4.1327280587980795
4.138882530963089
4.138882530963089
4.138882530963089
4.138882530963089
4.145037003128072
4.145037003128072
4.138882530963089
4.138882530963089
4.145037003128072
4.145037003128072
4.145037003128072
4.151191475293081
4.151191475293081
4.151191475293081
4.151191475293081
4.151191475293081
4.151191475293081
4.151191475293081
4.151191475293081
4.157345947458091
4.145037003128072
4.145037003128072
4.145037003128072
4.151191475293081
4.151191475293081
4.145037003128072
4.145037003128072
4.1327280587980795
4.151191475293081
4.145037003128072
4.151191475293081
4.1327280587980795
4.12657358663307
4.1327280587980795
4.1327280587980795
4.145037003128072
4.145037003128072
4.145037003128072
4.138882530963089
4.145037003128072
4.138882530963089
4.138882530963089
4.145037003128072
4.145037003128072
4.151191475293081
4.151191475293081
4.151191475293081
4.145037003128072
4.151191475293081
4.145037003128072
4.145037003128072
4.157345947458091
4.163500419623101
4.157345947458091
4.157345947458091
4.157345947458091
4.163500419623101
4.157345947458091
4.151191475293081
4.145037003128072
4.138882530963089
4.138882530963089
4.1327280587980795
4.1327280587980795
4.138882530963089
4.138882530963089
4.1327280587980795
4.1327280587980795
4.1327280587980795
4.1327280587980795
4.120419114468088
4.1327280587980795
4.12657358663307
4.114264642303079
4.089646753643067
4.083492281478085
4.101955697973087
4.157345947458091
4.225045141273086
4.305053279418103
4.348134584573115
4.360443528903107
4.341980112408105
4.292744335088111
4.188118308283084
4.083492281478085
4.015793087663061
4.0465654484880815
4.0711833371480655
4.101955697973087
4.108110170138069
4.114264642303079
4.120419114468088
4.108110170138069
4.120419114468088
4.120419114468088
4.120419114468088
4.120419114468088
4.12657358663307
4.120419114468088
4.1327280587980795
4.1327280587980795
4.12657358663307
4.138882530963089
4.138882530963089
4.145037003128072
4.138882530963089
4.138882530963089
4.145037003128072
4.145037003128072
4.145037003128072
4.145037003128072
4.145037003128072
4.151191475293081
4.145037003128072
4.145037003128072
4.151191475293081
4.145037003128072
4.157345947458091
4.157345947458091
4.157345947458091
4.163500419623101
4.169654891788083
4.169654891788083
4.181963836118102
4.188118308283084
4.188118308283084
4.188118308283084
4.200427252613103
4.200427252613103
4.212736196943095
4.218890669108104
4.218890669108104
4.212736196943095
4.225045141273086
4.218890669108104
4.218890669108104
4.218890669108104
4.212736196943095
4.2065817247780855
4.200427252613103
4.188118308283084
4.181963836118102
4.163500419623101
4.151191475293081
4.145037003128072
4.1327280587980795
4.120419114468088
4.095801225808078
4.0711833371480655
4.101955697973087
4.114264642303079
4.108110170138069
4.114264642303079
4.108110170138069
4.101955697973087
4.089646753643067
4.089646753643067
4.089646753643067
4.101955697973087
4.101955697973087
4.101955697973087
4.101955697973087
4.095801225808078
4.095801225808078
4.095801225808078
4.101955697973087
4.101955697973087
4.101955697973087
4.108110170138069
4.108110170138069
4.108110170138069
4.108110170138069
4.114264642303079
4.114264642303079
4.114264642303079
4.120419114468088
4.114264642303079
4.120419114468088
4.114264642303079
4.114264642303079
4.114264642303079
4.120419114468088
4.120419114468088
4.120419114468088
4.120419114468088
4.120419114468088
4.120419114468088
4.120419114468088
4.12657358663307
4.12657358663307
4.120419114468088
4.12657358663307
4.12657358663307
4.12657358663307
4.120419114468088
4.12657358663307
4.120419114468088
4.12657358663307
4.120419114468088
4.12657358663307
4.120419114468088
4.12657358663307
4.120419114468088
4.120419114468088
4.12657358663307
4.12657358663307
4.1327280587980795
4.1327280587980795
4.1327280587980795
4.1327280587980795
4.1327280587980795
4.138882530963089
4.145037003128072
4.145037003128072
4.151191475293081
4.151191475293081
4.151191475293081
4.138882530963089
4.138882530963089
4.138882530963089
4.1327280587980795
4.120419114468088
4.12657358663307
4.120419114468088
4.120419114468088
4.114264642303079
4.120419114468088
4.120419114468088
4.114264642303079
4.120419114468088
4.114264642303079
4.114264642303079
4.120419114468088
4.120419114468088
4.108110170138069
4.083492281478085
4.077337809313075
4.089646753643067
4.151191475293081
4.212736196943095
4.3112077515831135
4.360443528903107
4.3727524732331275
4.354289056738125
4.305053279418103
4.200427252613103
4.089646753643067
4.015793087663061
4.028102031993082
4.065028864983084
4.089646753643067
4.101955697973087
4.114264642303079
4.114264642303079
4.114264642303079
4.120419114468088
4.12657358663307
4.12657358663307
4.120419114468088
4.120419114468088
4.120419114468088
4.120419114468088
4.12657358663307
4.138882530963089
4.1327280587980795
4.1327280587980795
4.138882530963089
4.145037003128072
4.145037003128072
4.145037003128072
4.12657358663307
4.163500419623101
4.145037003128072
4.138882530963089
4.151191475293081
4.151191475293081
4.157345947458091
4.163500419623101
4.169654891788083
4.169654891788083
4.169654891788083
4.1758093639530935
4.1758093639530935
4.1758093639530935
4.188118308283084
4.1942727804480935
4.200427252613103
4.200427252613103
4.2065817247780855
4.212736196943095
4.225045141273086
4.225045141273086
4.231199613438097
4.231199613438097
4.237354085603107
4.231199613438097
4.237354085603107
4.237354085603107
4.231199613438097
4.237354085603107
4.231199613438097
4.218890669108104
4.200427252613103
4.200427252613103
4.181963836118102
4.169654891788083
4.157345947458091
4.145037003128072
4.1327280587980795
4.12657358663307
4.120419114468088
4.120419114468088
4.108110170138069
4.101955697973087
4.108110170138069
4.101955697973087
4.095801225808078
4.095801225808078
4.101955697973087
4.095801225808078
4.101955697973087
4.101955697973087
4.095801225808078
4.101955697973087
4.101955697973087
4.095801225808078
4.095801225808078
4.095801225808078
4.095801225808078
4.095801225808078
4.095801225808078
4.095801225808078
4.101955697973087
4.095801225808078
4.101955697973087
4.095801225808078
4.101955697973087
4.095801225808078
4.101955697973087
4.101955697973087
4.101955697973087
4.095801225808078
4.095801225808078
4.095801225808078
4.089646753643067
4.095801225808078
4.089646753643067
4.101955697973087
4.095801225808078
4.095801225808078
4.095801225808078
4.089646753643067
4.089646753643067
4.089646753643067
4.095801225808078
4.101955697973087
4.101955697973087
4.095801225808078
4.095801225808078
4.089646753643067
4.095801225808078
4.101955697973087
4.101955697973087
4.101955697973087
4.101955697973087
4.101955697973087
4.095801225808078
4.095801225808078
4.101955697973087
4.108110170138069
4.101955697973087
4.108110170138069
4.108110170138069
4.101955697973087
4.108110170138069
4.120419114468088
4.120419114468088
4.114264642303079
4.114264642303079
4.108110170138069
4.114264642303079
4.120419114468088
4.101955697973087
4.095801225808078
4.101955697973087
4.101955697973087
4.101955697973087
4.108110170138069
4.108110170138069
4.108110170138069
4.101955697973087
4.108110170138069
4.101955697973087
4.120419114468088
4.120419114468088
4.120419114468088
4.108110170138069
4.083492281478085
4.065028864983084
4.083492281478085
4.138882530963089
4.200427252613103
4.27428091859311
4.341980112408105
4.341980112408105
4.329671168078114
4.27428091859311
4.157345947458091
4.065028864983084
4.015793087663061
4.009638615498079
4.034256504158063
4.058874392818074
4.0711833371480655
3.9050125886930522
2.8402889041478923
1.2339716690826785
1.0124106711426328
1.0924188092876486
1.1662724752676545
1.2339716690826785
1.2955163907326928
1.3509066402176972
1.400142417537692
1.4432237226927047
1.4924595000126994
1.5416952773327222
1.5724676381577152
1.6217034154777374
1.6586302484677409
1.7017115536227536
1.7386383866127564
1.7940286360977609
2.064825411357801
2.483329518577854
2.723353933012873
2.8895246814679143
3.0126141247679152
3.1233946237379517
3.215711706212959
3.308028788687967
3.375727982502963
3.437272704152977
3.504971897968001
3.5665166196180156
3.6219068691030203
3.6649881742580046
3.7142239515780275
3.75730525673304
3.800386561888025
3.837313394878028
3.874240227868059
3.9173215330230438
3.9419394216830552
3.9788662546730578
3.9973296711680604
4.040410976323072
4.052719920653064
4.077337809313075
4.095801225808078
4.095801225808078
4.138882530963089
4.151191475293081
4.163500419623101
4.163500419623101
4.169654891788083
4.169654891788083
4.163500419623101
4.145037003128072
4.151191475293081
4.169654891788083
4.1758093639530935
4.181963836118102
4.188118308283084
4.1942727804480935
4.1942727804480935
4.2065817247780855
4.218890669108104
4.218890669108104
4.225045141273086
4.237354085603107
4.237354085603107
4.243508557768089
4.255817502098108
4.261971974263091
4.27428091859311
4.27428091859311
4.280435390758092
4.280435390758092
4.292744335088111
4.298898807253093
4.298898807253093
4.298898807253093
4.305053279418103
4.323516695913104
4.323516695913104
4.335825640243124
4.329671168078114
4.329671168078114
4.341980112408105
4.341980112408105
4.341980112408105
4.348134584573115
4.348134584573115
4.354289056738125
4.360443528903107
4.354289056738125
4.366598001068117
4.366598001068117
4.360443528903107
4.366598001068117
4.3727524732331275
4.366598001068117
4.366598001068117
4.354289056738125
4.360443528903107
4.366598001068117
4.3727524732331275
4.37890694539811
4.3727524732331275
4.37890694539811
4.37890694539811
4.37890694539811
4.37890694539811
4.3727524732331275
4.37890694539811
4.385061417563119
4.385061417563119
4.37890694539811
4.391215889728128
4.391215889728128
4.385061417563119
4.397370361893111
4.391215889728128
4.397370361893111
4.40352483405812
4.40352483405812
4.40352483405812
4.397370361893111
4.391215889728128
4.397370361893111
4.391215889728128
4.385061417563119
4.385061417563119
4.385061417563119
4.385061417563119
4.37890694539811
4.37890694539811
4.3727524732331275
4.37890694539811
4.3727524732331275
4.37890694539811
4.37890694539811
4.37890694539811
4.3727524732331275
4.354289056738125
4.341980112408105
4.335825640243124
4.360443528903107
4.40352483405812
4.477378500038126
4.54507769385315
4.5820045268431535
4.5820045268431535
4.563541110348153
4.501996388698137
4.391215889728128
4.298898807253093
4.255817502098108
4.27428091859311
4.298898807253093
4.323516695913104
4.329671168078114
4.354289056738125
4.348134584573115
4.341980112408105
4.341980112408105
4.348134584573115
4.348134584573115
4.348134584573115
4.348134584573115
4.348134584573115
4.341980112408105
4.341980112408105
4.341980112408105
4.348134584573115
4.341980112408105
4.341980112408105
4.335825640243124
4.335825640243124
4.341980112408105
4.335825640243124
4.341980112408105
4.335825640243124
4.348134584573115
4.335825640243124
4.341980112408105
4.354289056738125
4.354289056738125
4.354289056738125
4.354289056738125
4.360443528903107
4.360443528903107
4.360443528903107
4.360443528903107
4.366598001068117
4.37890694539811
4.37890694539811
4.37890694539811
4.37890694539811
4.385061417563119
4.397370361893111
4.40352483405812
4.397370361893111
4.397370361893111
4.40352483405812
4.397370361893111
4.397370361893111
4.391215889728128
4.391215889728128
4.37890694539811
4.37890694539811
4.366598001068117
4.354289056738125
4.335825640243124
4.329671168078114
4.3173622237481215
4.298898807253093
4.292744335088111
4.280435390758092
4.27428091859311
4.27428091859311
4.2681264464281
4.261971974263091
4.261971974263091
4.255817502098108
4.243508557768089
4.261971974263091
4.261971974263091
4.249663029933098
4.231199613438097
4.237354085603107
4.243508557768089
4.237354085603107
4.243508557768089
4.237354085603107
4.237354085603107
4.237354085603107
4.243508557768089
4.243508557768089
4.237354085603107
4.237354085603107
4.243508557768089
4.249663029933098
4.249663029933098
4.243508557768089
4.249663029933098
4.249663029933098
4.249663029933098
4.249663029933098
4.249663029933098
4.249663029933098
4.243508557768089
4.243508557768089
4.243508557768089
4.249663029933098
4.243508557768089
4.243508557768089
4.243508557768089
4.243508557768089
4.243508557768089
4.237354085603107
4.237354085603107
4.237354085603107
4.237354085603107
4.237354085603107
4.243508557768089
4.237354085603107
4.243508557768089
4.237354085603107
4.237354085603107
4.237354085603107
4.243508557768089
4.237354085603107
4.231199613438097
4.237354085603107
4.243508557768089
4.237354085603107
4.237354085603107
4.231199613438097
4.231199613438097
4.218890669108104
4.2065817247780855
4.188118308283084
4.181963836118102
4.169654891788083
4.169654891788083
4.163500419623101
4.163500419623101
4.157345947458091
4.169654891788083
4.169654891788083
4.169654891788083
4.181963836118102
4.181963836118102
4.188118308283084
4.1942727804480935
4.188118308283084
4.188118308283084
4.1942727804480935
4.188118308283084
4.1942727804480935
4.1942727804480935
4.1942727804480935
4.200427252613103
4.1942727804480935
4.169654891788083
4.151191475293081
4.138882530963089
4.163500419623101
4.2065817247780855
4.255817502098108
4.2865898629231
4.2681264464281
4.231199613438097
4.163500419623101
4.052719920653064
3.9234760051880535
3.7757686732280415
3.61575239693801
3.4434271763179867
3.449581648482997
3.468045064977998
3.468045064977998
3.4311182319879947
3.3141832608529764
3.3449556216779697
3.418809287657976
3.4926629536379816
3.5357442587929944
3.5849800361130173
3.6219068691030203
3.6465247577630033
3.701915007248036
3.7449963124030208
3.788077617558033
3.825004450548036
3.8619312835380395
3.8988581165280416
3.9111670608580615
3.9296304773530633
3.9604028381780574
3.9850207268380675
3.9973296711680604
4.009638615498079
4.021947559828071
4.040410976323072
4.0465654484880815
4.058874392818074
4.083492281478085
4.095801225808078
4.095801225808078
4.101955697973087
4.108110170138069
4.114264642303079
4.101955697973087
4.12657358663307
4.138882530963089
4.151191475293081
4.151191475293081
4.145037003128072
4.145037003128072
4.145037003128072
4.138882530963089
4.151191475293081
4.138882530963089
4.145037003128072
4.169654891788083
4.188118308283084
4.1942727804480935
4.2065817247780855
4.2065817247780855
4.212736196943095
4.225045141273086
4.231199613438097
4.225045141273086
4.212736196943095
4.218890669108104
4.218890669108104
4.212736196943095
4.212736196943095
4.2065817247780855
4.200427252613103
4.2065817247780855
4.200427252613103
4.1942727804480935
4.188118308283084
4.1758093639530935
4.163500419623101
4.1327280587980795
4.095801225808078
4.089646753643067
4.052719920653064
3.9419394216830552
3.8496223392080475
3.75730525673304
3.61575239693801
3.541898730958004
3.5972889804430093
3.591134508277999
3.5972889804430093
3.572671091782997
3.35111009384298
3.437272704152977
3.560362147453006
3.5972889804430093
3.6465247577630033
3.695760535083026
3.75115078456803
3.8065410340530352
3.837313394878028
3.8803947000330408
3.9111670608580615
3.9419394216830552
3.9665573103430654
3.9911751990030497
4.015793087663061
4.028102031993082
4.028102031993082
4.040410976323072
4.040410976323072
4.034256504158063
4.0465654484880815
4.040410976323072
4.040410976323072
4.0465654484880815
4.0711833371480655
4.108110170138069
4.114264642303079
4.1327280587980795
4.145037003128072
4.163500419623101
4.169654891788083
4.188118308283084
4.188118308283084
4.2065817247780855
4.212736196943095
4.218890669108104
4.225045141273086
4.237354085603107
4.243508557768089
4.249663029933098
4.249663029933098
4.261971974263091
4.2681264464281
4.2681264464281
4.280435390758092
4.280435390758092
4.280435390758092
4.280435390758092
4.298898807253093
4.298898807253093
4.292744335088111
4.292744335088111
4.292744335088111
4.2865898629231
4.280435390758092
4.280435390758092
4.27428091859311
4.2681264464281
4.27428091859311
4.27428091859311
4.2681264464281
4.261971974263091
4.255817502098108
4.249663029933098
4.243508557768089
4.243508557768089
4.231199613438097
4.212736196943095
4.1758093639530935
4.157345947458091
4.077337809313075
4.052719920653064
4.095801225808078
4.169654891788083
4.237354085603107
4.292744335088111
4.298898807253093
4.305053279418103
4.261971974263091
4.1942727804480935
4.108110170138069
4.065028864983084
4.089646753643067
4.12657358663307
4.163500419623101
4.200427252613103
4.2065817247780855
4.2065817247780855
4.225045141273086
4.231199613438097
4.231199613438097
4.237354085603107
4.243508557768089
4.243508557768089
4.249663029933098
4.255817502098108
4.255817502098108
4.261971974263091
4.2681264464281
4.2681264464281
4.27428091859311
4.280435390758092
4.2865898629231
4.280435390758092
4.292744335088111
4.2865898629231
4.292744335088111
4.292744335088111
4.292744335088111
4.298898807253093
4.298898807253093
4.3112077515831135
4.3112077515831135
4.3112077515831135
4.3173622237481215
4.323516695913104
4.329671168078114
4.329671168078114
4.335825640243124
4.341980112408105
4.348134584573115
4.348134584573115
4.354289056738125
4.360443528903107
4.366598001068117
4.3727524732331275
4.3727524732331275
4.3727524732331275
4.3727524732331275
4.37890694539811
4.3727524732331275
4.366598001068117
4.3727524732331275
4.3727524732331275
4.366598001068117
4.348134584573115
4.341980112408105
4.335825640243124
4.3173622237481215
4.305053279418103
4.292744335088111
4.2865898629231
4.27428091859311
4.261971974263091
4.255817502098108
4.255817502098108
4.249663029933098
4.243508557768089
4.243508557768089
4.243508557768089
4.243508557768089
4.243508557768089
4.243508557768089
4.237354085603107
4.237354085603107
4.243508557768089
4.243508557768089
4.237354085603107
4.237354085603107
4.237354085603107
4.243508557768089
4.237354085603107
4.237354085603107
4.237354085603107
4.237354085603107
4.237354085603107
4.231199613438097
4.237354085603107
4.237354085603107
4.243508557768089
4.243508557768089
4.237354085603107
4.231199613438097
4.243508557768089
4.243508557768089
4.237354085603107
4.231199613438097
4.231199613438097
4.231199613438097
4.231199613438097
4.225045141273086
4.225045141273086
4.231199613438097
4.231199613438097
4.212736196943095
4.218890669108104
4.225045141273086
4.225045141273086
4.225045141273086
4.218890669108104
4.200427252613103
4.237354085603107
4.237354085603107
4.225045141273086
4.225045141273086
4.2065817247780855
4.2065817247780855
4.212736196943095
4.218890669108104
4.218890669108104
4.218890669108104
4.218890669108104
4.218890669108104
4.212736196943095
4.218890669108104
4.212736196943095
4.218890669108104
4.225045141273086
4.225045141273086
4.212736196943095
4.218890669108104
4.225045141273086
4.225045141273086
4.231199613438097
4.218890669108104
4.218890669108104
4.218890669108104
4.218890669108104
4.2065817247780855
4.2065817247780855
4.1942727804480935
4.1942727804480935
4.200427252613103
4.1942727804480935
4.188118308283084
4.1942727804480935
4.188118308283084
4.188118308283084
4.181963836118102
4.188118308283084
4.1942727804480935
4.1942727804480935
4.1758093639530935
4.157345947458091
4.151191475293081
4.157345947458091
4.2065817247780855
4.261971974263091
4.335825640243124
4.391215889728128
4.397370361893111
4.397370361893111
4.354289056738125
4.255817502098108
4.151191475293081
4.089646753643067
4.077337809313075
4.101955697973087
4.1327280587980795
4.151191475293081
4.157345947458091
4.163500419623101
4.1758093639530935
4.169654891788083
4.1758093639530935
4.169654891788083
4.169654891788083
4.1758093639530935
4.1758093639530935
4.169654891788083
4.169654891788083
4.181963836118102
4.1758093639530935
4.1758093639530935
4.169654891788083
4.181963836118102
4.181963836118102
4.1758093639530935
4.188118308283084
4.188118308283084
4.181963836118102
4.188118308283084
4.188118308283084
4.169654891788083
4.181963836118102
4.2065817247780855
4.2065817247780855
4.2065817247780855
4.212736196943095
4.212736196943095
4.212736196943095
4.200427252613103
4.200427252613103
4.218890669108104
4.218890669108104
4.231199613438097
4.237354085603107
4.249663029933098
4.249663029933098
4.255817502098108
4.2681264464281
4.261971974263091
4.27428091859311
4.27428091859311
4.27428091859311
4.2681264464281
4.2681264464281
4.2681264464281
4.255817502098108
4.243508557768089
4.243508557768089
4.231199613438097
4.212736196943095
4.2065817247780855
4.1942727804480935
4.181963836118102
4.181963836118102
4.169654891788083
4.169654891788083
4.163500419623101
4.151191475293081
4.151191475293081
4.1327280587980795
4.151191475293081
4.151191475293081
4.157345947458091
4.151191475293081
4.145037003128072
4.145037003128072
4.145037003128072
4.1327280587980795
4.1327280587980795
4.138882530963089
4.138882530963089
4.145037003128072
4.145037003128072
4.157345947458091
4.151191475293081
4.151191475293081
4.151191475293081
4.157345947458091
4.151191475293081
4.157345947458091
4.157345947458091
4.157345947458091
4.157345947458091
4.157345947458091
4.151191475293081
4.157345947458091
4.157345947458091
4.163500419623101
4.163500419623101
4.157345947458091
4.151191475293081
4.157345947458091
4.157345947458091
4.163500419623101
4.163500419623101
4.151191475293081
4.151191475293081
4.163500419623101
4.157345947458091
4.151191475293081
4.157345947458091
4.151191475293081
4.151191475293081
4.157345947458091
4.151191475293081
4.163500419623101
4.163500419623101
4.157345947458091
4.163500419623101
4.157345947458091
4.157345947458091
4.163500419623101
4.157345947458091
4.163500419623101
4.163500419623101
4.163500419623101
4.163500419623101
4.157345947458091
4.157345947458091
4.157345947458091
4.163500419623101
4.163500419623101
4.151191475293081
4.169654891788083
4.169654891788083
4.163500419623101
4.1758093639530935
4.169654891788083
4.169654891788083
4.169654891788083
4.169654891788083
4.188118308283084
4.181963836118102
4.181963836118102
4.181963836118102
4.181963836118102
4.1758093639530935
4.1758093639530935
4.163500419623101
4.169654891788083
4.157345947458091
4.157345947458091
4.151191475293081
4.151191475293081
4.151191475293081
4.151191475293081
4.145037003128072
4.151191475293081
4.151191475293081
4.157345947458091
4.157345947458091
4.145037003128072
4.1327280587980795
4.108110170138069
4.101955697973087
4.1327280587980795
4.200427252613103
4.27428091859311
4.348134584573115
4.37890694539811
4.3727524732331275
4.348134584573115
4.2865898629231
4.188118308283084
4.083492281478085
4.0465654484880815
4.077337809313075
4.108110170138069
4.12657358663307
4.1327280587980795
4.12657358663307
4.1327280587980795
4.138882530963089
4.1327280587980795
4.138882530963089
4.145037003128072
4.151191475293081
4.145037003128072
4.145037003128072
4.151191475293081
4.145037003128072
4.1327280587980795
4.163500419623101
4.157345947458091
4.145037003128072
4.138882530963089
