4.0711833371480655
4.065028864983084
4.0711833371480655
4.083492281478085
4.0711833371480655
4.095801225808078
4.089646753643067
4.083492281478085
4.0711833371480655
4.065028864983084
4.065028864983084
4.065028864983084
4.0711833371480655
4.065028864983084
4.0711833371480655
4.0711833371480655
4.065028864983084
4.065028864983084
4.065028864983084
4.083492281478085
4.083492281478085
4.083492281478085
4.083492281478085
4.065028864983084
4.052719920653064
4.0465654484880815
4.040410976323072
4.040410976323072
4.0465654484880815
4.052719920653064
4.052719920653064
4.040410976323072
4.028102031993082
4.021947559828071
4.028102031993082
4.034256504158063
4.034256504158063
4.0465654484880815
4.052719920653064
4.058874392818074
4.077337809313075
4.058874392818074
4.0465654484880815
4.052719920653064
4.052719920653064
4.065028864983084
4.065028864983084
4.0711833371480655
4.083492281478085
4.083492281478085
4.101955697973087
4.095801225808078
4.108110170138069
4.108110170138069
4.108110170138069
4.12657358663307
4.1327280587980795
4.138882530963089
4.1327280587980795
4.1327280587980795
4.138882530963089
4.138882530963089
4.120419114468088
4.065028864983084
4.114264642303079
4.114264642303079
4.120419114468088
4.12657358663307
4.120419114468088
4.120419114468088
4.114264642303079
4.114264642303079
4.120419114468088
4.114264642303079
4.120419114468088
4.120419114468088
4.120419114468088
4.108110170138069
4.095801225808078
4.108110170138069
4.157345947458091
4.243508557768089
4.323516695913104
4.37890694539811
4.40352483405812
4.391215889728128
4.354289056738125
4.2681264464281
4.138882530963089
4.052719920653064
4.0465654484880815
4.0711833371480655
4.108110170138069
4.12657358663307
4.138882530963089
4.1327280587980795
4.145037003128072
4.151191475293081
4.145037003128072
4.138882530963089
4.138882530963089
4.1327280587980795
4.114264642303079
4.095801225808078
4.077337809313075
4.052719920653064
4.021947559828071
4.015793087663061
4.015793087663061
4.009638615498079
3.9973296711680604
4.009638615498079
4.028102031993082
4.021947559828071
4.034256504158063
4.040410976323072
4.040410976323072
4.0465654484880815
4.052719920653064
4.058874392818074
4.065028864983084
4.065028864983084
4.0711833371480655
4.089646753643067
4.108110170138069
4.108110170138069
4.101955697973087
4.120419114468088
4.1327280587980795
4.1327280587980795
4.151191475293081
4.157345947458091
4.163500419623101
4.169654891788083
4.163500419623101
4.163500419623101
4.181963836118102
4.163500419623101
4.169654891788083
4.1758093639530935
4.169654891788083
4.163500419623101
4.12657358663307
4.077337809313075
4.157345947458091
4.151191475293081
4.12657358663307
4.12657358663307
4.108110170138069
4.095801225808078
4.077337809313075
4.052719920653064
4.058874392818074
4.058874392818074
4.058874392818074
4.065028864983084
4.058874392818074
4.058874392818074
4.058874392818074
4.065028864983084
4.058874392818074
4.058874392818074
4.058874392818074
4.0711833371480655
4.065028864983084
4.052719920653064
4.0465654484880815
4.058874392818074
4.058874392818074
4.052719920653064
4.065028864983084
4.058874392818074
4.058874392818074
4.065028864983084
4.058874392818074
4.0711833371480655
4.0711833371480655
4.083492281478085
4.095801225808078
4.095801225808078
4.089646753643067
4.089646753643067
4.095801225808078
4.089646753643067
4.077337809313075
4.021947559828071
4.108110170138069
4.120419114468088
4.114264642303079
4.095801225808078
4.0711833371480655
4.077337809313075
4.083492281478085
4.089646753643067
4.095801225808078
4.089646753643067
4.089646753643067
4.095801225808078
4.095801225808078
4.095801225808078
4.089646753643067
4.095801225808078
4.095801225808078
4.095801225808078
4.089646753643067
4.083492281478085
4.0711833371480655
4.077337809313075
4.089646753643067
4.089646753643067
4.089646753643067
4.083492281478085
4.083492281478085
4.077337809313075
4.083492281478085
4.089646753643067
4.089646753643067
4.089646753643067
4.095801225808078
4.114264642303079
4.114264642303079
4.108110170138069
4.108110170138069
4.108110170138069
4.114264642303079
4.108110170138069
4.114264642303079
4.120419114468088
4.12657358663307
4.120419114468088
4.120419114468088
4.120419114468088
4.12657358663307
4.114264642303079
4.114264642303079
4.108110170138069
4.101955697973087
4.095801225808078
4.095801225808078
4.108110170138069
4.101955697973087
4.095801225808078
4.095801225808078
4.101955697973087
4.101955697973087
4.101955697973087
4.108110170138069
4.114264642303079
4.089646753643067
4.083492281478085
4.077337809313075
4.108110170138069
4.1758093639530935
4.261971974263091
4.323516695913104
4.360443528903107
4.354289056738125
4.329671168078114
4.249663029933098
4.1327280587980795
4.009638615498079
3.9788662546730578
3.9973296711680604
4.028102031993082
4.052719920653064
4.0711833371480655
4.077337809313075
4.077337809313075
4.077337809313075
4.077337809313075
4.083492281478085
4.089646753643067
4.089646753643067
4.089646753643067
4.089646753643067
4.089646753643067
4.077337809313075
4.089646753643067
4.095801225808078
4.095801225808078
4.101955697973087
4.101955697973087
4.095801225808078
4.095801225808078
4.095801225808078
4.108110170138069
4.101955697973087
4.108110170138069
4.101955697973087
4.095801225808078
4.108110170138069
4.108110170138069
4.108110170138069
4.114264642303079
4.12657358663307
4.1327280587980795
4.145037003128072
4.138882530963089
4.157345947458091
4.157345947458091
4.163500419623101
4.181963836118102
4.1942727804480935
4.1942727804480935
4.200427252613103
4.212736196943095
4.200427252613103
4.1327280587980795
4.231199613438097
4.243508557768089
4.243508557768089
4.237354085603107
4.231199613438097
4.225045141273086
4.218890669108104
4.163500419623101
4.151191475293081
4.157345947458091
4.145037003128072
4.1327280587980795
4.12657358663307
4.120419114468088
4.114264642303079
4.108110170138069
4.114264642303079
4.108110170138069
4.108110170138069
4.101955697973087
4.101955697973087
4.101955697973087
4.108110170138069
4.101955697973087
4.095801225808078
4.108110170138069
4.108110170138069
4.108110170138069
4.101955697973087
4.108110170138069
4.095801225808078
4.101955697973087
4.095801225808078
4.095801225808078
4.095801225808078
4.095801225808078
4.089646753643067
4.089646753643067
4.089646753643067
4.101955697973087
4.101955697973087
4.108110170138069
4.101955697973087
4.108110170138069
4.108110170138069
4.108110170138069
4.101955697973087
4.114264642303079
4.120419114468088
4.114264642303079
4.114264642303079
4.120419114468088
4.114264642303079
4.114264642303079
4.120419114468088
4.114264642303079
4.12657358663307
4.1327280587980795
4.1327280587980795
4.138882530963089
4.138882530963089
4.12657358663307
4.114264642303079
4.1327280587980795
4.1327280587980795
4.138882530963089
4.12657358663307
4.1327280587980795
4.12657358663307
4.12657358663307
4.120419114468088
4.12657358663307
4.1327280587980795
4.1327280587980795
4.138882530963089
4.145037003128072
4.157345947458091
4.145037003128072
4.145037003128072
4.145037003128072
4.151191475293081
4.151191475293081
4.138882530963089
4.138882530963089
4.151191475293081
4.145037003128072
4.145037003128072
4.151191475293081
4.138882530963089
4.120419114468088
4.1327280587980795
4.12657358663307
4.12657358663307
4.108110170138069
4.108110170138069
4.114264642303079
4.114264642303079
4.120419114468088
4.120419114468088
4.114264642303079
4.120419114468088
4.114264642303079
4.120419114468088
4.120419114468088
4.114264642303079
4.114264642303079
4.101955697973087
4.089646753643067
4.089646753643067
4.12657358663307
4.2065817247780855
4.27428091859311
4.335825640243124
4.354289056738125
4.354289056738125
4.323516695913104
4.237354085603107
4.114264642303079
4.034256504158063
4.003484143333068
4.003484143333068
3.9850207268380675
4.083492281478085
4.108110170138069
4.095801225808078
4.077337809313075
4.095801225808078
4.101955697973087
4.108110170138069
4.108110170138069
4.120419114468088
4.120419114468088
4.120419114468088
4.12657358663307
4.1327280587980795
4.12657358663307
4.1327280587980795
4.1327280587980795
4.1327280587980795
4.12657358663307
4.1327280587980795
4.12657358663307
4.1327280587980795
4.138882530963089
4.151191475293081
4.145037003128072
4.145037003128072
4.145037003128072
4.083492281478085
4.1327280587980795
4.181963836118102
4.1758093639530935
4.181963836118102
4.188118308283084
4.181963836118102
4.1758093639530935
4.157345947458091
4.163500419623101
4.1758093639530935
4.181963836118102
4.200427252613103
4.200427252613103
4.212736196943095
4.225045141273086
4.218890669108104
4.225045141273086
4.218890669108104
4.231199613438097
4.231199613438097
4.225045141273086
4.218890669108104
4.2065817247780855
4.1942727804480935
4.1942727804480935
4.1758093639530935
4.163500419623101
4.157345947458091
4.138882530963089
4.12657358663307
4.120419114468088
4.120419114468088
4.114264642303079
4.114264642303079
4.120419114468088
4.108110170138069
4.108110170138069
4.114264642303079
4.108110170138069
4.108110170138069
4.114264642303079
4.108110170138069
4.108110170138069
4.108110170138069
4.114264642303079
4.114264642303079
4.114264642303079
4.120419114468088
4.12657358663307
4.1327280587980795
4.138882530963089
4.1327280587980795
4.1327280587980795
4.12657358663307
4.12657358663307
4.12657358663307
4.1327280587980795
4.1327280587980795
4.12657358663307
4.1327280587980795
4.1327280587980795
4.12657358663307
4.108110170138069
4.114264642303079
4.120419114468088
4.120419114468088
4.114264642303079
4.12657358663307
4.120419114468088
4.120419114468088
4.120419114468088
4.120419114468088
4.120419114468088
4.120419114468088
4.120419114468088
4.12657358663307
4.1327280587980795
4.120419114468088
4.12657358663307
4.1327280587980795
4.12657358663307
4.12657358663307
4.12657358663307
4.12657358663307
4.138882530963089
4.1327280587980795
4.138882530963089
4.1327280587980795
4.1327280587980795
4.145037003128072
4.1327280587980795
4.1327280587980795
4.138882530963089
4.108110170138069
4.065028864983084
4.151191475293081
4.157345947458091
4.151191475293081
4.157345947458091
4.145037003128072
4.138882530963089
4.120419114468088
4.114264642303079
4.1327280587980795
4.1327280587980795
4.138882530963089
4.151191475293081
4.145037003128072
4.151191475293081
4.151191475293081
4.151191475293081
4.151191475293081
4.157345947458091
4.151191475293081
4.151191475293081
4.151191475293081
4.138882530963089
4.145037003128072
4.151191475293081
4.138882530963089
4.151191475293081
4.145037003128072
4.138882530963089
4.138882530963089
4.138882530963089
4.145037003128072
4.138882530963089
4.1327280587980795
4.108110170138069
4.108110170138069
4.138882530963089
4.200427252613103
4.2681264464281
4.348134584573115
4.37890694539811
4.37890694539811
4.360443528903107
4.3112077515831135
4.200427252613103
4.083492281478085
4.028102031993082
4.058874392818074
4.083492281478085
4.108110170138069
4.114264642303079
4.120419114468088
4.1327280587980795
4.120419114468088
4.12657358663307
4.138882530963089
4.138882530963089
4.138882530963089
4.138882530963089
4.138882530963089
4.138882530963089
4.138882530963089
4.1327280587980795
4.138882530963089
4.163500419623101
4.1758093639530935
4.169654891788083
4.169654891788083
4.169654891788083
4.169654891788083
4.169654891788083
4.151191475293081
4.157345947458091
4.157345947458091
4.163500419623101
4.1758093639530935
4.1758093639530935
4.169654891788083
4.151191475293081
4.163500419623101
4.163500419623101
4.181963836118102
4.1942727804480935
4.200427252613103
4.2065817247780855
4.225045141273086
4.243508557768089
4.249663029933098
4.249663029933098
4.2681264464281
4.261971974263091
4.27428091859311
4.2681264464281
4.2681264464281
4.2681264464281
4.261971974263091
4.261971974263091
4.249663029933098
4.243508557768089
4.231199613438097
4.218890669108104
4.2065817247780855
4.188118308283084
4.181963836118102
4.163500419623101
4.163500419623101
4.151191475293081
4.138882530963089
4.12657358663307
4.12657358663307
4.12657358663307
4.120419114468088
4.12657358663307
4.12657358663307
4.1327280587980795
4.1327280587980795
4.120419114468088
4.120419114468088
4.1327280587980795
4.138882530963089
4.138882530963089
4.120419114468088
4.065028864983084
4.138882530963089
4.138882530963089
4.114264642303079
4.120419114468088
4.12657358663307
4.120419114468088
4.1327280587980795
4.12657358663307
4.12657358663307
4.12657358663307
4.12657358663307
4.12657358663307
4.12657358663307
4.138882530963089
4.1327280587980795
4.138882530963089
4.145037003128072
4.138882530963089
4.138882530963089
4.145037003128072
4.145037003128072
4.145037003128072
4.145037003128072
4.145037003128072
4.138882530963089
4.1327280587980795
4.151191475293081
4.151191475293081
4.145037003128072
4.145037003128072
4.145037003128072
4.151191475293081
4.145037003128072
4.138882530963089
4.138882530963089
4.151191475293081
4.145037003128072
4.145037003128072
4.145037003128072
4.151191475293081
4.138882530963089
4.145037003128072
4.145037003128072
4.145037003128072
4.145037003128072
4.151191475293081
4.157345947458091
4.151191475293081
4.145037003128072
4.145037003128072
4.157345947458091
4.151191475293081
4.145037003128072
4.157345947458091
4.151191475293081
4.157345947458091
4.151191475293081
4.163500419623101
4.163500419623101
4.163500419623101
4.151191475293081
4.163500419623101
4.157345947458091
4.1758093639530935
4.169654891788083
4.181963836118102
4.169654891788083
4.169654891788083
4.1758093639530935
4.169654891788083
4.169654891788083
4.163500419623101
4.145037003128072
4.145037003128072
4.151191475293081
4.157345947458091
4.151191475293081
4.151191475293081
4.151191475293081
4.145037003128072
4.145037003128072
4.157345947458091
4.151191475293081
4.138882530963089
4.120419114468088
4.114264642303079
4.138882530963089
4.1942727804480935
4.2681264464281
4.348134584573115
4.40352483405812
4.40967930622313
4.40967930622313
4.354289056738125
4.255817502098108
4.114264642303079
3.9973296711680604
4.101955697973087
4.1327280587980795
4.151191475293081
4.163500419623101
4.157345947458091
4.157345947458091
4.145037003128072
4.12657358663307
4.138882530963089
4.138882530963089
4.138882530963089
4.145037003128072
4.151191475293081
4.151191475293081
4.151191475293081
4.157345947458091
4.157345947458091
4.169654891788083
4.163500419623101
4.163500419623101
4.163500419623101
4.163500419623101
4.157345947458091
4.151191475293081
4.095801225808078
4.1758093639530935
4.188118308283084
4.188118308283084
4.188118308283084
4.169654891788083
4.151191475293081
4.157345947458091
4.169654891788083
4.169654891788083
4.1758093639530935
4.188118308283084
4.2065817247780855
4.200427252613103
4.2065817247780855
4.218890669108104
4.231199613438097
4.243508557768089
4.249663029933098
4.249663029933098
4.261971974263091
4.255817502098108
4.261971974263091
4.27428091859311
4.2681264464281
4.261971974263091
4.261971974263091
4.255817502098108
4.249663029933098
4.237354085603107
4.225045141273086
4.212736196943095
4.2065817247780855
4.188118308283084
4.181963836118102
4.169654891788083
4.157345947458091
4.151191475293081
4.151191475293081
4.145037003128072
4.145037003128072
4.138882530963089
4.145037003128072
4.145037003128072
4.145037003128072
4.1327280587980795
4.145037003128072
4.151191475293081
4.151191475293081
4.151191475293081
4.151191475293081
4.145037003128072
4.145037003128072
4.157345947458091
4.157345947458091
4.157345947458091
4.157345947458091
4.151191475293081
4.157345947458091
4.151191475293081
4.145037003128072
4.151191475293081
4.145037003128072
4.138882530963089
4.157345947458091
4.145037003128072
4.151191475293081
4.169654891788083
4.157345947458091
4.151191475293081
4.157345947458091
4.151191475293081
4.157345947458091
4.163500419623101
4.157345947458091
4.157345947458091
4.163500419623101
4.163500419623101
4.157345947458091
4.157345947458091
4.145037003128072
4.145037003128072
4.151191475293081
4.151191475293081
4.157345947458091
4.157345947458091
4.151191475293081
4.151191475293081
4.151191475293081
4.151191475293081
4.151191475293081
4.151191475293081
4.151191475293081
4.151191475293081
4.151191475293081
4.145037003128072
4.157345947458091
4.151191475293081
4.163500419623101
4.157345947458091
4.151191475293081
4.163500419623101
4.163500419623101
4.169654891788083
4.169654891788083
4.163500419623101
4.169654891788083
4.169654891788083
4.169654891788083
4.169654891788083
4.169654891788083
4.169654891788083
4.1758093639530935
4.169654891788083
4.169654891788083
4.169654891788083
4.169654891788083
4.1758093639530935
4.1758093639530935
4.181963836118102
4.1758093639530935
4.163500419623101
4.095801225808078
4.157345947458091
4.138882530963089
4.145037003128072
4.138882530963089
4.138882530963089
4.145037003128072
4.138882530963089
4.1327280587980795
4.138882530963089
4.1327280587980795
4.1327280587980795
4.138882530963089
4.1327280587980795
4.1327280587980795
4.138882530963089
4.120419114468088
4.108110170138069
4.101955697973087
4.12657358663307
4.181963836118102
4.261971974263091
4.329671168078114
4.3727524732331275
4.3727524732331275
4.354289056738125
4.3173622237481215
4.2065817247780855
4.101955697973087
4.040410976323072
4.021947559828071
4.052719920653064
4.083492281478085
4.101955697973087
4.114264642303079
4.12657358663307
4.1327280587980795
4.1327280587980795
4.1327280587980795
4.1327280587980795
4.145037003128072
4.138882530963089
4.12657358663307
4.138882530963089
4.138882530963089
4.138882530963089
4.12657358663307
4.1327280587980795
4.1327280587980795
4.120419114468088
4.1327280587980795
4.1327280587980795
4.12657358663307
4.12657358663307
4.114264642303079
4.120419114468088
4.120419114468088
4.120419114468088
4.12657358663307
4.120419114468088
4.1327280587980795
4.12657358663307
4.12657358663307
4.12657358663307
4.1327280587980795
4.151191475293081
4.157345947458091
4.163500419623101
4.169654891788083
4.169654891788083
4.181963836118102
4.188118308283084
4.188118308283084
4.1942727804480935
4.200427252613103
4.200427252613103
4.212736196943095
4.200427252613103
4.2065817247780855
4.1942727804480935
4.1942727804480935
4.188118308283084
4.181963836118102
4.181963836118102
4.188118308283084
4.181963836118102
4.163500419623101
4.151191475293081
4.12657358663307
4.12657358663307
4.12657358663307
4.108110170138069
4.095801225808078
4.101955697973087
4.089646753643067
4.089646753643067
4.077337809313075
4.083492281478085
4.077337809313075
4.0711833371480655
4.0711833371480655
4.0711833371480655
4.0711833371480655
4.065028864983084
4.065028864983084
4.065028864983084
4.058874392818074
4.058874392818074
4.058874392818074
4.065028864983084
4.0711833371480655
4.065028864983084
4.077337809313075
4.089646753643067
4.083492281478085
4.077337809313075
4.077337809313075
4.083492281478085
4.077337809313075
4.0711833371480655
4.0711833371480655
4.065028864983084
4.021947559828071
4.101955697973087
4.114264642303079
4.108110170138069
4.101955697973087
4.0711833371480655
4.0711833371480655
4.083492281478085
4.083492281478085
4.089646753643067
4.089646753643067
4.095801225808078
4.089646753643067
4.077337809313075
4.095801225808078
4.089646753643067
4.095801225808078
4.089646753643067
4.089646753643067
4.095801225808078
4.095801225808078
4.101955697973087
4.101955697973087
4.101955697973087
4.101955697973087
4.101955697973087
4.108110170138069
4.114264642303079
4.120419114468088
4.108110170138069
4.120419114468088
4.114264642303079
4.108110170138069
4.114264642303079
4.12657358663307
4.120419114468088
4.114264642303079
4.12657358663307
4.114264642303079
4.108110170138069
4.108110170138069
4.114264642303079
4.114264642303079
4.108110170138069
4.040410976323072
4.095801225808078
4.138882530963089
4.12657358663307
4.12657358663307
4.1327280587980795
4.1327280587980795
4.12657358663307
4.101955697973087
4.114264642303079
4.114264642303079
4.12657358663307
4.120419114468088
4.12657358663307
4.120419114468088
4.114264642303079
4.101955697973087
4.108110170138069
4.108110170138069
4.101955697973087
4.101955697973087
4.101955697973087
4.101955697973087
4.089646753643067
4.095801225808078
4.114264642303079
4.108110170138069
4.089646753643067
4.089646753643067
4.095801225808078
4.120419114468088
4.169654891788083
4.243508557768089
4.3112077515831135
4.341980112408105
4.335825640243124
4.335825640243124
4.280435390758092
4.163500419623101
4.052719920653064
4.028102031993082
4.052719920653064
4.089646753643067
4.108110170138069
4.120419114468088
4.120419114468088
4.120419114468088
4.120419114468088
4.12657358663307
4.138882530963089
4.1327280587980795
4.138882530963089
4.1327280587980795
4.138882530963089
4.138882530963089
4.1327280587980795
4.145037003128072
4.145037003128072
4.145037003128072
4.151191475293081
4.151191475293081
4.145037003128072
4.145037003128072
4.1327280587980795
4.151191475293081
4.151191475293081
4.163500419623101
4.157345947458091
4.163500419623101
4.163500419623101
4.157345947458091
4.163500419623101
4.169654891788083
4.181963836118102
4.188118308283084
4.181963836118102
4.1942727804480935
4.181963836118102
4.138882530963089
4.225045141273086
4.231199613438097
4.249663029933098
4.243508557768089
4.261971974263091
4.2681264464281
4.27428091859311
4.237354085603107
4.237354085603107
4.249663029933098
4.249663029933098
4.249663029933098
4.261971974263091
4.261971974263091
4.243508557768089
4.237354085603107
4.237354085603107
4.225045141273086
4.2065817247780855
4.2065817247780855
4.1942727804480935
4.188118308283084
4.1758093639530935
4.169654891788083
4.163500419623101
4.157345947458091
4.151191475293081
4.151191475293081
4.151191475293081
4.138882530963089
4.145037003128072
4.138882530963089
4.151191475293081
4.138882530963089
4.1327280587980795
4.12657358663307
4.1327280587980795
4.1327280587980795
4.138882530963089
4.138882530963089
4.138882530963089
4.138882530963089
4.138882530963089
4.138882530963089
4.1327280587980795
4.145037003128072
4.138882530963089
4.1327280587980795
4.138882530963089
4.151191475293081
4.145037003128072
4.157345947458091
4.157345947458091
4.151191475293081
4.151191475293081
4.145037003128072
4.145037003128072
4.138882530963089
4.138882530963089
4.151191475293081
4.157345947458091
4.151191475293081
4.138882530963089
4.151191475293081
4.157345947458091
4.145037003128072
4.138882530963089
4.120419114468088
4.12657358663307
4.12657358663307
4.120419114468088
4.138882530963089
4.1327280587980795
4.1327280587980795
4.12657358663307
4.138882530963089
4.151191475293081
4.145037003128072
4.151191475293081
4.151191475293081
4.145037003128072
4.151191475293081
4.1327280587980795
4.1327280587980795
4.1327280587980795
4.1327280587980795
4.12657358663307
4.120419114468088
4.120419114468088
4.12657358663307
4.12657358663307
4.12657358663307
4.12657358663307
4.12657358663307
4.12657358663307
4.1327280587980795
4.157345947458091
4.151191475293081
4.151191475293081
4.138882530963089
4.138882530963089
4.138882530963089
4.1327280587980795
4.138882530963089
4.138882530963089
4.145037003128072
4.138882530963089
4.145037003128072
4.145037003128072
4.12657358663307
4.120419114468088
4.12657358663307
4.120419114468088
4.1327280587980795
4.12657358663307
4.12657358663307
4.12657358663307
4.12657358663307
4.138882530963089
4.138882530963089
4.120419114468088
4.058874392818074
4.120419114468088
4.120419114468088
4.095801225808078
4.095801225808078
4.151191475293081
4.237354085603107
4.323516695913104
4.385061417563119
4.40967930622313
4.397370361893111
4.354289056738125
4.261971974263091
4.151191475293081
4.040410976323072
4.021947559828071
4.065028864983084
4.089646753643067
4.101955697973087
4.114264642303079
4.114264642303079
4.12657358663307
4.12657358663307
4.1327280587980795
4.145037003128072
4.157345947458091
4.157345947458091
4.151191475293081
4.145037003128072
4.151191475293081
4.163500419623101
4.163500419623101
4.169654891788083
4.169654891788083
4.1327280587980795
4.009638615498079
3.8126955062180454
3.449581648482997
3.0618499020879373
3.48035400930799
3.6896060629180156
3.788077617558033
3.8434678670430373
3.8680857557030492
3.8988581165280416
3.9296304773530633
3.9542483660130467
3.9727117825080476
3.9911751990030497
4.003484143333068
4.009638615498079
4.021947559828071
4.0465654484880815
4.058874392818074
4.0711833371480655
4.083492281478085
4.101955697973087
4.114264642303079
4.12657358663307
4.1327280587980795
4.138882530963089
4.145037003128072
4.157345947458091
4.157345947458091
4.1758093639530935
4.1758093639530935
4.169654891788083
4.163500419623101
4.157345947458091
4.163500419623101
4.151191475293081
4.151191475293081
4.1327280587980795
4.138882530963089
4.138882530963089
4.138882530963089
4.138882530963089
4.145037003128072
4.145037003128072
4.12657358663307
4.1327280587980795
4.12657358663307
4.108110170138069
4.120419114468088
4.120419114468088
4.114264642303079
4.108110170138069
4.101955697973087
4.114264642303079
4.108110170138069
4.108110170138069
4.101955697973087
4.120419114468088
4.114264642303079
4.12657358663307
4.12657358663307
4.1327280587980795
4.138882530963089
4.138882530963089
4.120419114468088
4.12657358663307
4.138882530963089
4.138882530963089
4.151191475293081
4.157345947458091
4.157345947458091
4.157345947458091
4.163500419623101
4.181963836118102
4.169654891788083
4.169654891788083
4.163500419623101
4.169654891788083
4.138882530963089
4.089646753643067
4.188118308283084
4.2065817247780855
4.188118308283084
4.188118308283084
4.200427252613103
4.1942727804480935
4.151191475293081
4.077337809313075
4.163500419623101
4.181963836118102
4.1758093639530935
4.1758093639530935
4.157345947458091
4.163500419623101
4.12657358663307
4.12657358663307
4.1327280587980795
4.145037003128072
4.151191475293081
4.145037003128072
4.151191475293081
4.157345947458091
4.157345947458091
4.157345947458091
4.1758093639530935
4.1758093639530935
4.163500419623101
4.169654891788083
4.1758093639530935
4.181963836118102
4.1942727804480935
4.1942727804480935
4.1942727804480935
4.200427252613103
4.200427252613103
4.1942727804480935
4.188118308283084
4.169654891788083
4.157345947458091
4.169654891788083
4.1758093639530935
4.181963836118102
4.169654891788083
4.181963836118102
4.188118308283084
4.181963836118102
4.169654891788083
4.169654891788083
4.169654891788083
4.169654891788083
4.157345947458091
4.138882530963089
4.138882530963089
4.157345947458091
4.218890669108104
4.292744335088111
4.360443528903107
4.391215889728128
4.37890694539811
4.360443528903107
4.292744335088111
4.1758093639530935
4.065028864983084
4.021947559828071
4.021947559828071
4.052719920653064
4.083492281478085
4.114264642303079
4.12657358663307
4.120419114468088
4.138882530963089
4.163500419623101
4.163500419623101
4.163500419623101
4.163500419623101
4.1758093639530935
4.1758093639530935
4.169654891788083
4.1758093639530935
4.1758093639530935
4.181963836118102
4.181963836118102
4.1758093639530935
4.181963836118102
4.1758093639530935
4.169654891788083
4.188118308283084
4.1758093639530935
4.188118308283084
4.188118308283084
4.188118308283084
4.181963836118102
4.169654891788083
4.181963836118102
4.1942727804480935
4.1942727804480935
4.200427252613103
4.212736196943095
4.218890669108104
4.218890669108104
4.225045141273086
4.231199613438097
4.237354085603107
4.255817502098108
4.2681264464281
4.2681264464281
4.292744335088111
4.298898807253093
4.298898807253093
4.298898807253093
4.298898807253093
4.292744335088111
4.280435390758092
4.2865898629231
4.280435390758092
4.280435390758092
4.27428091859311
4.249663029933098
4.237354085603107
4.225045141273086
4.200427252613103
4.200427252613103
4.188118308283084
4.181963836118102
4.169654891788083
4.169654891788083
4.163500419623101
4.157345947458091
4.138882530963089
4.083492281478085
4.169654891788083
4.163500419623101
4.1327280587980795
4.1327280587980795
4.151191475293081
4.151191475293081
4.145037003128072
4.151191475293081
4.157345947458091
4.151191475293081
4.157345947458091
4.163500419623101
4.157345947458091
4.163500419623101
4.169654891788083
4.163500419623101
4.163500419623101
4.1758093639530935
4.181963836118102
4.1758093639530935
4.181963836118102
4.181963836118102
4.181963836118102
4.181963836118102
4.181963836118102
4.1758093639530935
4.181963836118102
4.181963836118102
4.1758093639530935
4.1758093639530935
4.1758093639530935
4.157345947458091
4.163500419623101
4.163500419623101
4.169654891788083
4.169654891788083
4.169654891788083
4.1758093639530935
4.169654891788083
4.169654891788083
4.163500419623101
4.169654891788083
4.1758093639530935
4.1758093639530935
4.169654891788083
4.169654891788083
4.181963836118102
4.181963836118102
4.181963836118102
4.188118308283084
4.1942727804480935
4.181963836118102
4.181963836118102
4.1758093639530935
4.1758093639530935
4.169654891788083
4.1758093639530935
4.1758093639530935
4.163500419623101
4.1758093639530935
4.163500419623101
4.1758093639530935
4.169654891788083
4.181963836118102
4.181963836118102
4.1758093639530935
4.188118308283084
4.1942727804480935
4.1942727804480935
4.188118308283084
4.181963836118102
4.188118308283084
4.200427252613103
4.1942727804480935
4.1942727804480935
4.188118308283084
4.181963836118102
4.1758093639530935
4.1758093639530935
4.169654891788083
4.169654891788083
4.169654891788083
4.169654891788083
4.1758093639530935
4.1758093639530935
4.157345947458091
4.151191475293081
4.151191475293081
4.138882530963089
4.120419114468088
4.114264642303079
4.138882530963089
4.200427252613103
4.280435390758092
4.348134584573115
4.37890694539811
4.3727524732331275
4.3727524732331275
4.329671168078114
4.225045141273086
4.114264642303079
4.040410976323072
4.0465654484880815
4.083492281478085
4.108110170138069
4.12657358663307
4.1327280587980795
4.138882530963089
4.145037003128072
4.145037003128072
4.138882530963089
4.151191475293081
4.151191475293081
4.157345947458091
4.169654891788083
4.169654891788083
4.157345947458091
4.157345947458091
4.157345947458091
4.151191475293081
4.138882530963089
4.089646753643067
4.157345947458091
4.169654891788083
4.163500419623101
4.163500419623101
4.169654891788083
4.145037003128072
4.1327280587980795
4.145037003128072
4.145037003128072
4.157345947458091
4.157345947458091
4.163500419623101
4.163500419623101
4.169654891788083
4.1758093639530935
4.1758093639530935
4.188118308283084
4.188118308283084
4.188118308283084
4.1942727804480935
4.200427252613103
4.2065817247780855
4.218890669108104
4.225045141273086
4.237354085603107
4.237354085603107
4.237354085603107
4.237354085603107
4.237354085603107
4.243508557768089
4.237354085603107
4.243508557768089
4.237354085603107
4.231199613438097
4.212736196943095
4.212736196943095
4.1942727804480935
4.1758093639530935
4.181963836118102
4.1758093639530935
4.169654891788083
4.163500419623101
4.157345947458091
4.145037003128072
4.1327280587980795
4.145037003128072
4.151191475293081
4.138882530963089
4.138882530963089
4.138882530963089
4.1327280587980795
4.12657358663307
4.12657358663307
4.120419114468088
4.12657358663307
4.12657358663307
4.1327280587980795
4.138882530963089
4.12657358663307
4.101955697973087
4.021947559828071
4.089646753643067
4.151191475293081
4.138882530963089
4.1327280587980795
4.12657358663307
4.1327280587980795
4.12657358663307
4.089646753643067
4.095801225808078
4.108110170138069
4.114264642303079
4.108110170138069
4.108110170138069
4.108110170138069
4.101955697973087
4.108110170138069
4.114264642303079
4.12657358663307
4.120419114468088
4.12657358663307
4.12657358663307
4.12657358663307
4.120419114468088
4.120419114468088
4.12657358663307
4.12657358663307
4.114264642303079
4.114264642303079
4.114264642303079
4.12657358663307
4.120419114468088
4.114264642303079
4.12657358663307
4.12657358663307
4.120419114468088
4.120419114468088
4.114264642303079
4.120419114468088
4.114264642303079
4.120419114468088
4.114264642303079
4.12657358663307
4.120419114468088
4.12657358663307
4.1327280587980795
4.12657358663307
4.120419114468088
4.12657358663307
4.1327280587980795
4.12657358663307
4.1327280587980795
4.138882530963089
4.138882530963089
4.138882530963089
4.12657358663307
4.1327280587980795
4.12657358663307
4.120419114468088
4.108110170138069
4.089646753643067
4.028102031993082
4.101955697973087
4.077337809313075
4.083492281478085
4.083492281478085
4.089646753643067
4.089646753643067
4.101955697973087
4.101955697973087
4.095801225808078
4.101955697973087
4.108110170138069
4.095801225808078
4.077337809313075
4.101955697973087
4.145037003128072
4.212736196943095
4.2865898629231
4.348134584573115
4.3727524732331275
4.3727524732331275
4.341980112408105
4.261971974263091
4.157345947458091
4.052719920653064
4.028102031993082
4.052719920653064
4.089646753643067
4.114264642303079
4.114264642303079
4.120419114468088
4.12657358663307
4.1327280587980795
4.138882530963089
4.157345947458091
4.145037003128072
4.145037003128072
4.145037003128072
4.157345947458091
4.151191475293081
4.151191475293081
4.163500419623101
4.1758093639530935
4.169654891788083
4.163500419623101
4.157345947458091
4.163500419623101
4.151191475293081
4.138882530963089
4.145037003128072
4.151191475293081
4.157345947458091
4.157345947458091
4.163500419623101
4.1758093639530935
4.1758093639530935
4.1758093639530935
4.169654891788083
4.181963836118102
4.188118308283084
4.181963836118102
4.1942727804480935
4.2065817247780855
4.212736196943095
4.231199613438097
4.237354085603107
4.249663029933098
4.255817502098108
4.255817502098108
4.255817502098108
4.261971974263091
4.2681264464281
4.261971974263091
4.255817502098108
4.2681264464281
4.2681264464281
4.2681264464281
4.261971974263091
4.255817502098108
4.231199613438097
4.225045141273086
4.212736196943095
4.2065817247780855
4.1942727804480935
4.188118308283084
4.169654891788083
4.163500419623101
4.151191475293081
4.1327280587980795
4.1327280587980795
4.1327280587980795
4.1327280587980795
4.12657358663307
4.138882530963089
4.145037003128072
4.145037003128072
4.1327280587980795
4.145037003128072
4.1327280587980795
4.138882530963089
4.1327280587980795
4.145037003128072
4.138882530963089
4.1327280587980795
4.1327280587980795
4.1327280587980795
4.138882530963089
4.145037003128072
4.151191475293081
4.151191475293081
4.138882530963089
4.138882530963089
4.1327280587980795
4.138882530963089
4.145037003128072
4.151191475293081
4.138882530963089
4.145037003128072
4.145037003128072
4.145037003128072
4.138882530963089
4.1327280587980795
4.077337809313075
4.163500419623101
4.163500419623101
4.163500419623101
4.151191475293081
4.12657358663307
4.12657358663307
4.145037003128072
4.151191475293081
4.145037003128072
4.151191475293081
4.151191475293081
4.145037003128072
4.138882530963089
4.145037003128072
4.151191475293081
4.145037003128072
4.145037003128072
4.145037003128072
4.145037003128072
4.145037003128072
4.120419114468088
4.12657358663307
4.1327280587980795
4.1327280587980795
4.138882530963089
4.138882530963089
4.145037003128072
4.151191475293081
4.151191475293081
4.1327280587980795
4.145037003128072
4.145037003128072
4.145037003128072
4.157345947458091
4.163500419623101
4.151191475293081
4.145037003128072
4.145037003128072
4.145037003128072
4.151191475293081
4.151191475293081
4.145037003128072
4.1327280587980795
4.120419114468088
4.120419114468088
4.120419114468088
4.120419114468088
4.120419114468088
4.108110170138069
4.120419114468088
4.120419114468088
4.114264642303079
4.120419114468088
4.120419114468088
4.114264642303079
4.114264642303079
4.089646753643067
4.089646753643067
4.114264642303079
4.163500419623101
4.243508557768089
4.323516695913104
4.3727524732331275
4.385061417563119
4.366598001068117
4.3173622237481215
4.200427252613103
4.077337809313075
4.009638615498079
3.9973296711680604
4.034256504158063
4.065028864983084
4.083492281478085
4.101955697973087
4.108110170138069
4.114264642303079
4.114264642303079
4.120419114468088
4.114264642303079
4.114264642303079
4.114264642303079
4.114264642303079
4.108110170138069
4.108110170138069
4.120419114468088
4.114264642303079
4.120419114468088
4.12657358663307
4.114264642303079
4.120419114468088
4.120419114468088
4.120419114468088
4.1327280587980795
4.12657358663307
4.138882530963089
4.138882530963089
4.1327280587980795
4.138882530963089
4.138882530963089
4.151191475293081
4.157345947458091
4.157345947458091
4.163500419623101
4.169654891788083
4.169654891788083
4.181963836118102
4.181963836118102
4.188118308283084
4.2065817247780855
4.212736196943095
4.212736196943095
4.218890669108104
4.231199613438097
4.231199613438097
4.231199613438097
4.237354085603107
4.231199613438097
4.231199613438097
4.225045141273086
4.225045141273086
4.2065817247780855
4.138882530963089
4.1758093639530935
4.181963836118102
4.1758093639530935
4.163500419623101
4.157345947458091
4.151191475293081
4.1327280587980795
4.108110170138069
4.052719920653064
4.12657358663307
4.145037003128072
4.1327280587980795
4.12657358663307
4.120419114468088
4.114264642303079
4.089646753643067
4.077337809313075
4.083492281478085
4.083492281478085
4.083492281478085
4.089646753643067
4.083492281478085
4.089646753643067
4.089646753643067
4.095801225808078
4.095801225808078
4.095801225808078
4.095801225808078
4.095801225808078
4.095801225808078
4.101955697973087
4.089646753643067
4.101955697973087
4.101955697973087
4.108110170138069
4.108110170138069
4.108110170138069
4.108110170138069
4.101955697973087
4.101955697973087
4.108110170138069
4.108110170138069
4.108110170138069
4.108110170138069
4.114264642303079
4.114264642303079
4.108110170138069
4.101955697973087
4.114264642303079
4.114264642303079
4.108110170138069
4.108110170138069
4.108110170138069
4.114264642303079
4.114264642303079
4.108110170138069
4.114264642303079
4.114264642303079
4.114264642303079
4.114264642303079
4.108110170138069
4.114264642303079
4.114264642303079
4.114264642303079
4.114264642303079
4.108110170138069
4.114264642303079
4.108110170138069
4.108110170138069
4.108110170138069
4.101955697973087
4.101955697973087
4.114264642303079
4.120419114468088
4.114264642303079
4.120419114468088
4.120419114468088
4.120419114468088
4.12657358663307
4.12657358663307
4.1327280587980795
4.120419114468088
4.120419114468088
4.12657358663307
4.114264642303079
4.101955697973087
4.095801225808078
4.108110170138069
4.101955697973087
4.101955697973087
4.101955697973087
4.101955697973087
4.095801225808078
4.095801225808078
4.095801225808078
4.095801225808078
4.101955697973087
4.095801225808078
4.077337809313075
4.058874392818074
4.065028864983084
4.101955697973087
4.169654891788083
4.243508557768089
4.3173622237481215
4.341980112408105
4.341980112408105
4.323516695913104
4.237354085603107
4.120419114468088
4.015793087663061
3.9788662546730578
3.9973296711680604
4.028102031993082
4.058874392818074
4.077337809313075
4.095801225808078
4.095801225808078
4.108110170138069
4.101955697973087
4.089646753643067
4.040410976323072
4.12657358663307
4.138882530963089
4.120419114468088
4.095801225808078
4.083492281478085
4.095801225808078
4.108110170138069
4.108110170138069
4.095801225808078
4.095801225808078
4.101955697973087
4.095801225808078
4.108110170138069
4.114264642303079
4.114264642303079
4.114264642303079
4.120419114468088
4.120419114468088
4.120419114468088
4.114264642303079
4.12657358663307
4.138882530963089
4.145037003128072
4.157345947458091
4.151191475293081
4.157345947458091
4.169654891788083
4.169654891788083
4.1758093639530935
4.188118308283084
4.200427252613103
4.200427252613103
4.212736196943095
4.212736196943095
4.212736196943095
4.2065817247780855
4.2065817247780855
4.2065817247780855
4.2065817247780855
4.212736196943095
4.200427252613103
4.1942727804480935
4.181963836118102
4.181963836118102
4.169654891788083
4.157345947458091
4.138882530963089
4.1327280587980795
4.120419114468088
4.114264642303079
4.101955697973087
4.095801225808078
4.089646753643067
4.083492281478085
4.089646753643067
4.089646753643067
4.083492281478085
4.077337809313075
4.0711833371480655
4.077337809313075
4.077337809313075
4.083492281478085
4.077337809313075
4.101955697973087
4.089646753643067
4.083492281478085
4.083492281478085
4.095801225808078
4.089646753643067
4.089646753643067
4.095801225808078
4.095801225808078
4.095801225808078
4.089646753643067
4.089646753643067
4.089646753643067
4.089646753643067
4.0711833371480655
4.083492281478085
4.083492281478085
4.089646753643067
4.083492281478085
4.089646753643067
4.089646753643067
4.095801225808078
4.089646753643067
4.095801225808078
4.101955697973087
4.101955697973087
4.089646753643067
4.108110170138069
4.114264642303079
4.114264642303079
4.108110170138069
4.108110170138069
4.101955697973087
4.108110170138069
4.101955697973087
4.101955697973087
4.101955697973087
4.101955697973087
4.101955697973087
4.101955697973087
4.101955697973087
4.089646753643067
4.083492281478085
4.089646753643067
4.101955697973087
4.095801225808078
4.095801225808078
4.101955697973087
4.101955697973087
4.101955697973087
4.095801225808078
4.101955697973087
4.114264642303079
4.114264642303079
4.120419114468088
4.120419114468088
4.114264642303079
4.114264642303079
4.0465654484880815
4.12657358663307
4.138882530963089
4.138882530963089
4.145037003128072
4.1327280587980795
4.12657358663307
4.114264642303079
4.089646753643067
4.095801225808078
4.095801225808078
4.089646753643067
4.089646753643067
4.095801225808078
4.095801225808078
4.089646753643067
4.089646753643067
4.101955697973087
4.095801225808078
4.089646753643067
4.095801225808078
4.095801225808078
4.095801225808078
4.083492281478085
4.058874392818074
4.058874392818074
4.083492281478085
4.1327280587980795
4.200427252613103
4.2865898629231
4.335825640243124
4.335825640243124
4.323516695913104
4.2865898629231
4.1942727804480935
4.065028864983084
3.9788662546730578
3.9911751990030497
4.015793087663061
4.040410976323072
4.058874392818074
4.0711833371480655
4.077337809313075
4.083492281478085
4.083492281478085
4.083492281478085
4.083492281478085
4.077337809313075
4.083492281478085
4.095801225808078
4.095801225808078
4.108110170138069
4.120419114468088
4.101955697973087
4.108110170138069
4.101955697973087
4.108110170138069
4.108110170138069
4.108110170138069
4.108110170138069
4.108110170138069
4.114264642303079
4.108110170138069
4.108110170138069
4.114264642303079
4.101955697973087
4.101955697973087
4.108110170138069
4.114264642303079
4.120419114468088
4.120419114468088
4.1327280587980795
4.138882530963089
4.145037003128072
4.151191475293081
4.157345947458091
4.1758093639530935
4.1758093639530935
4.108110170138069
4.1758093639530935
4.218890669108104
4.218890669108104
4.225045141273086
4.231199613438097
4.225045141273086
4.212736196943095
4.1758093639530935
4.181963836118102
4.1942727804480935
4.188118308283084
4.181963836118102
4.1758093639530935
4.157345947458091
4.151191475293081
4.12657358663307
4.1327280587980795
4.114264642303079
4.108110170138069
4.101955697973087
4.095801225808078
4.095801225808078
4.089646753643067
4.083492281478085
4.095801225808078
4.089646753643067
4.089646753643067
4.108110170138069
4.108110170138069
4.101955697973087
4.089646753643067
4.095801225808078
4.095801225808078
4.101955697973087
4.095801225808078
4.101955697973087
4.108110170138069
4.101955697973087
4.095801225808078
4.101955697973087
4.101955697973087
4.089646753643067
4.083492281478085
4.034256504158063
4.120419114468088
4.120419114468088
4.083492281478085
4.077337809313075
4.089646753643067
4.095801225808078
4.101955697973087
4.095801225808078
4.095801225808078
4.101955697973087
4.095801225808078
4.095801225808078
4.101955697973087
4.101955697973087
4.108110170138069
4.108110170138069
4.101955697973087
4.101955697973087
4.095801225808078
4.108110170138069
4.108110170138069
4.108110170138069
4.108110170138069
4.101955697973087
4.108110170138069
4.101955697973087
4.095801225808078
4.101955697973087
4.108110170138069
4.114264642303079
4.108110170138069
4.108110170138069
4.101955697973087
4.101955697973087
4.108110170138069
4.108110170138069
4.114264642303079
4.108110170138069
4.108110170138069
4.108110170138069
4.108110170138069
4.120419114468088
4.114264642303079
4.120419114468088
4.1327280587980795
4.1327280587980795
4.138882530963089
4.1327280587980795
4.1327280587980795
4.1327280587980795
4.145037003128072
4.145037003128072
4.145037003128072
4.151191475293081
4.145037003128072
4.145037003128072
4.138882530963089
4.12657358663307
4.138882530963089
4.12657358663307
4.12657358663307
4.12657358663307
4.12657358663307
4.1327280587980795
4.12657358663307
4.12657358663307
4.120419114468088
4.12657358663307
4.1327280587980795
4.12657358663307
4.12657358663307
4.108110170138069
4.077337809313075
4.083492281478085
4.120419114468088
4.200427252613103
4.292744335088111
4.360443528903107
4.397370361893111
4.391215889728128
4.366598001068117
4.292744335088111
4.169654891788083
4.052719920653064
4.009638615498079
4.0465654484880815
4.0711833371480655
4.089646753643067
4.101955697973087
4.108110170138069
4.120419114468088
4.120419114468088
4.12657358663307
4.12657358663307
4.12657358663307
4.120419114468088
4.120419114468088
4.12657358663307
4.12657358663307
4.1327280587980795
4.1327280587980795
4.1327280587980795
4.12657358663307
4.12657358663307
4.120419114468088
4.12657358663307
4.12657358663307
4.138882530963089
4.138882530963089
4.138882530963089
4.145037003128072
4.138882530963089
4.1327280587980795
4.145037003128072
4.151191475293081
4.151191475293081
4.157345947458091
4.157345947458091
4.1758093639530935
4.1758093639530935
4.157345947458091
4.114264642303079
4.1942727804480935
4.218890669108104
4.225045141273086
4.225045141273086
4.231199613438097
4.212736196943095
4.2065817247780855
4.212736196943095
4.225045141273086
4.231199613438097
4.231199613438097
4.243508557768089
4.243508557768089
4.231199613438097
4.231199613438097
4.225045141273086
4.212736196943095
4.2065817247780855
4.188118308283084
4.181963836118102
4.157345947458091
4.151191475293081
4.1327280587980795
4.1327280587980795
4.12657358663307
4.12657358663307
4.120419114468088
4.108110170138069
4.108110170138069
4.101955697973087
4.114264642303079
4.108110170138069
4.114264642303079
4.108110170138069
4.114264642303079
4.114264642303079
4.114264642303079
4.101955697973087
4.101955697973087
4.108110170138069
4.108110170138069
4.114264642303079
4.101955697973087
4.101955697973087
4.101955697973087
4.101955697973087
4.101955697973087
4.101955697973087
4.101955697973087
4.108110170138069
4.114264642303079
4.108110170138069
4.101955697973087
4.095801225808078
4.101955697973087
4.101955697973087
4.108110170138069
4.101955697973087
4.101955697973087
4.108110170138069
4.095801225808078
4.101955697973087
4.095801225808078
4.108110170138069
4.108110170138069
4.108110170138069
4.108110170138069
4.108110170138069
4.101955697973087
4.101955697973087
4.108110170138069
4.108110170138069
4.114264642303079
4.114264642303079
4.101955697973087
4.101955697973087
4.095801225808078
4.108110170138069
4.101955697973087
4.114264642303079
4.120419114468088
4.114264642303079
4.12657358663307
4.120419114468088
4.108110170138069
4.120419114468088
4.12657358663307
4.120419114468088
4.12657358663307
4.1327280587980795
4.1327280587980795
4.1327280587980795
4.1327280587980795
4.12657358663307
4.108110170138069
4.12657358663307
4.1327280587980795
4.138882530963089
4.1327280587980795
4.12657358663307
4.1327280587980795
4.12657358663307
4.1327280587980795
4.12657358663307
4.120419114468088
4.120419114468088
4.120419114468088
4.095801225808078
4.101955697973087
4.095801225808078
4.095801225808078
4.101955697973087
4.095801225808078
4.095801225808078
4.089646753643067
4.083492281478085
4.083492281478085
4.089646753643067
4.058874392818074
4.052719920653064
4.052719920653064
4.0465654484880815
4.200427252613103
4.249663029933098
4.305053279418103
4.323516695913104
4.323516695913104
4.2865898629231
4.188118308283084
4.0711833371480655
3.9788662546730578
3.9604028381780574
3.9911751990030497
4.034256504158063
4.058874392818074
4.0711833371480655
4.077337809313075
4.083492281478085
4.077337809313075
4.083492281478085
4.089646753643067
4.101955697973087
4.095801225808078
4.101955697973087
4.101955697973087
4.108110170138069
4.077337809313075
4.040410976323072
4.138882530963089
4.145037003128072
4.1327280587980795
4.138882530963089
4.138882530963089
4.138882530963089
4.114264642303079
4.101955697973087
4.108110170138069
4.120419114468088
4.12657358663307
4.1327280587980795
4.1327280587980795
4.1327280587980795
4.1327280587980795
4.151191475293081
4.151191475293081
4.163500419623101
4.169654891788083
4.1758093639530935
4.1758093639530935
4.188118308283084
4.1942727804480935
4.2065817247780855
4.212736196943095
4.212736196943095
4.231199613438097
4.237354085603107
4.243508557768089
4.237354085603107
4.225045141273086
4.231199613438097
4.231199613438097
4.231199613438097
4.237354085603107
4.225045141273086
4.2065817247780855
4.200427252613103
4.1758093639530935
4.1758093639530935
4.169654891788083
4.145037003128072
4.1327280587980795
4.12657358663307
4.120419114468088
4.108110170138069
4.114264642303079
4.108110170138069
4.108110170138069
4.108110170138069
4.108110170138069
4.101955697973087
4.101955697973087
4.095801225808078
4.101955697973087
4.108110170138069
4.108110170138069
4.095801225808078
4.095801225808078
4.101955697973087
4.095801225808078
4.089646753643067
4.089646753643067
4.108110170138069
4.101955697973087
4.101955697973087
4.095801225808078
4.089646753643067
4.101955697973087
4.095801225808078
4.095801225808078
4.101955697973087
4.101955697973087
4.101955697973087
4.101955697973087
4.108110170138069
4.101955697973087
4.095801225808078
4.101955697973087
4.101955697973087
4.108110170138069
4.101955697973087
4.101955697973087
4.114264642303079
4.108110170138069
4.095801225808078
4.095801225808078
4.108110170138069
4.108110170138069
4.101955697973087
4.101955697973087
4.101955697973087
4.101955697973087
4.095801225808078
4.089646753643067
4.028102031993082
4.108110170138069
4.120419114468088
4.120419114468088
4.114264642303079
4.095801225808078
4.0711833371480655
4.083492281478085
4.095801225808078
4.095801225808078
4.108110170138069
4.108110170138069
4.108110170138069
4.108110170138069
4.114264642303079
4.114264642303079
4.120419114468088
4.114264642303079
4.120419114468088
4.120419114468088
4.1327280587980795
4.1327280587980795
4.138882530963089
4.138882530963089
4.12657358663307
4.1327280587980795
4.1327280587980795
4.12657358663307
4.114264642303079
4.114264642303079
4.108110170138069
4.101955697973087
4.101955697973087
4.108110170138069
4.101955697973087
4.101955697973087
4.095801225808078
4.095801225808078
4.108110170138069
4.101955697973087
4.108110170138069
4.114264642303079
4.089646753643067
4.077337809313075
4.0711833371480655
4.108110170138069
4.1942727804480935
4.27428091859311
4.360443528903107
4.397370361893111
4.385061417563119
4.366598001068117
4.2865898629231
4.1758093639530935
4.058874392818074
4.015793087663061
4.0465654484880815
4.083492281478085
4.101955697973087
4.108110170138069
4.120419114468088
4.120419114468088
4.12657358663307
4.120419114468088
4.145037003128072
4.138882530963089
4.138882530963089
4.145037003128072
4.138882530963089
4.145037003128072
4.145037003128072
4.138882530963089
4.145037003128072
4.145037003128072
4.151191475293081
4.157345947458091
4.151191475293081
4.157345947458091
4.151191475293081
4.163500419623101
4.157345947458091
4.169654891788083
4.1758093639530935
4.188118308283084
4.181963836118102
4.188118308283084
4.188118308283084
4.1942727804480935
4.1942727804480935
4.200427252613103
4.200427252613103
4.200427252613103
4.2065817247780855
4.225045141273086
4.231199613438097
4.237354085603107
4.231199613438097
4.237354085603107
4.249663029933098
4.249663029933098
4.255817502098108
4.255817502098108
4.261971974263091
4.2681264464281
4.2681264464281
4.261971974263091
4.261971974263091
4.243508557768089
4.237354085603107
4.231199613438097
4.225045141273086
4.2065817247780855
4.181963836118102
4.1758093639530935
4.157345947458091
4.145037003128072
4.145037003128072
4.138882530963089
4.1327280587980795
4.12657358663307
4.114264642303079
4.108110170138069
4.0465654484880815
4.089646753643067
4.095801225808078
4.108110170138069
4.108110170138069
4.101955697973087
4.101955697973087
4.108110170138069
4.101955697973087
4.095801225808078
4.095801225808078
4.101955697973087
4.095801225808078
4.095801225808078
4.095801225808078
4.095801225808078
4.089646753643067
4.089646753643067
4.089646753643067
4.101955697973087
4.101955697973087
4.101955697973087
4.095801225808078
4.101955697973087
4.089646753643067
4.095801225808078
4.101955697973087
4.101955697973087
4.108110170138069
4.108110170138069
4.101955697973087
4.108110170138069
4.108110170138069
4.114264642303079
4.114264642303079
4.108110170138069
4.114264642303079
4.120419114468088
4.120419114468088
4.120419114468088
4.114264642303079
4.114264642303079
4.114264642303079
4.120419114468088
4.114264642303079
4.120419114468088
4.120419114468088
4.120419114468088
4.120419114468088
4.12657358663307
4.114264642303079
4.120419114468088
4.1327280587980795
4.12657358663307
4.138882530963089
4.1327280587980795
4.138882530963089
4.145037003128072
4.138882530963089
4.145037003128072
4.138882530963089
4.151191475293081
4.145037003128072
4.1327280587980795
4.151191475293081
4.151191475293081
4.151191475293081
4.145037003128072
4.145037003128072
4.138882530963089
4.12657358663307
4.12657358663307
4.120419114468088
4.12657358663307
4.12657358663307
4.12657358663307
4.120419114468088
4.114264642303079
4.114264642303079
4.114264642303079
4.114264642303079
4.120419114468088
4.120419114468088
4.120419114468088
4.095801225808078
4.077337809313075
4.095801225808078
4.138882530963089
4.212736196943095
4.292744335088111
4.360443528903107
4.3727524732331275
4.360443528903107
4.335825640243124
4.225045141273086
4.040410976323072
4.003484143333068
4.015793087663061
4.040410976323072
4.0711833371480655
4.095801225808078
4.101955697973087
4.101955697973087
4.0711833371480655
4.077337809313075
4.089646753643067
4.108110170138069
4.108110170138069
4.120419114468088
4.12657358663307
4.1327280587980795
4.12657358663307
4.114264642303079
4.120419114468088
4.120419114468088
4.1327280587980795
4.1327280587980795
4.138882530963089
4.1327280587980795
4.145037003128072
4.151191475293081
4.12657358663307
4.0711833371480655
4.151191475293081
4.1758093639530935
4.188118308283084
4.163500419623101
4.151191475293081
4.157345947458091
4.157345947458091
4.163500419623101
4.169654891788083
4.181963836118102
4.1942727804480935
4.188118308283084
4.212736196943095
4.212736196943095
4.218890669108104
4.218890669108104
4.218890669108104
4.225045141273086
4.231199613438097
4.231199613438097
4.243508557768089
4.249663029933098
4.249663029933098
4.249663029933098
4.243508557768089
4.243508557768089
4.243508557768089
4.218890669108104
4.218890669108104
4.200427252613103
4.1942727804480935
4.188118308283084
4.1758093639530935
4.157345947458091
4.145037003128072
4.1327280587980795
4.1327280587980795
4.1327280587980795
4.1327280587980795
4.120419114468088
4.12657358663307
4.120419114468088
4.120419114468088
4.120419114468088
4.120419114468088
4.12657358663307
4.120419114468088
4.12657358663307
4.120419114468088
4.12657358663307
4.12657358663307
4.12657358663307
4.12657358663307
4.1327280587980795
4.1327280587980795
4.12657358663307
4.1327280587980795
4.1327280587980795
4.12657358663307
4.120419114468088
4.12657358663307
4.12657358663307
4.114264642303079
4.1327280587980795
4.1327280587980795
4.12657358663307
4.120419114468088
4.12657358663307
4.138882530963089
4.1327280587980795
4.151191475293081
4.151191475293081
4.145037003128072
4.145037003128072
4.1327280587980795
4.138882530963089
4.151191475293081
4.145037003128072
4.145037003128072
4.151191475293081
4.145037003128072
4.138882530963089
4.145037003128072
4.151191475293081
4.157345947458091
4.151191475293081
4.157345947458091
4.151191475293081
4.151191475293081
4.157345947458091
4.145037003128072
4.157345947458091
4.163500419623101
4.157345947458091
4.151191475293081
4.151191475293081
4.157345947458091
4.145037003128072
4.138882530963089
4.145037003128072
4.145037003128072
4.151191475293081
4.157345947458091
4.157345947458091
4.151191475293081
4.151191475293081
4.169654891788083
4.1758093639530935
4.1758093639530935
4.169654891788083
4.169654891788083
4.169654891788083
4.163500419623101
4.163500419623101
4.163500419623101
4.157345947458091
4.157345947458091
4.145037003128072
4.145037003128072
4.151191475293081
4.138882530963089
4.0711833371480655
4.157345947458091
4.169654891788083
4.1758093639530935
4.163500419623101
4.163500419623101
4.163500419623101
4.1327280587980795
4.089646753643067
4.114264642303079
4.163500419623101
4.243508557768089
4.323516695913104
4.391215889728128
4.397370361893111
4.391215889728128
4.360443528903107
4.2681264464281
4.145037003128072
4.052719920653064
4.040410976323072
4.0711833371480655
4.108110170138069
4.120419114468088
4.12657358663307
4.1327280587980795
4.145037003128072
4.138882530963089
4.145037003128072
4.151191475293081
4.151191475293081
4.151191475293081
4.151191475293081
4.151191475293081
4.151191475293081
4.157345947458091
4.157345947458091
4.151191475293081
4.157345947458091
4.145037003128072
4.157345947458091
4.163500419623101
4.157345947458091
4.169654891788083
4.169654891788083
4.181963836118102
4.181963836118102
4.169654891788083
4.181963836118102
4.181963836118102
4.188118308283084
4.181963836118102
4.188118308283084
4.1942727804480935
4.1942727804480935
4.200427252613103
4.2065817247780855
4.218890669108104
4.212736196943095
4.212736196943095
4.225045141273086
4.231199613438097
4.225045141273086
4.231199613438097
4.255817502098108
4.261971974263091
4.255817502098108
4.255817502098108
4.255817502098108
4.255817502098108
4.243508557768089
4.243508557768089
4.249663029933098
4.231199613438097
4.225045141273086
4.212736196943095
4.1942727804480935
4.188118308283084
4.169654891788083
4.169654891788083
4.157345947458091
4.151191475293081
4.138882530963089
4.1327280587980795
4.1327280587980795
4.138882530963089
4.145037003128072
4.138882530963089
4.1327280587980795
4.1327280587980795
4.138882530963089
4.145037003128072
4.145037003128072
4.1327280587980795
4.1327280587980795
4.145037003128072
4.145037003128072
4.145037003128072
4.138882530963089
4.120419114468088
4.120419114468088
4.1327280587980795
4.120419114468088
4.1327280587980795
4.12657358663307
4.12657358663307
4.1327280587980795
4.1327280587980795
4.138882530963089
4.12657358663307
4.12657358663307
4.1327280587980795
4.1327280587980795
4.138882530963089
4.138882530963089
4.138882530963089
4.1327280587980795
4.12657358663307
4.12657358663307
4.12657358663307
4.120419114468088
4.101955697973087
4.058874392818074
4.12657358663307
4.1327280587980795
4.114264642303079
4.101955697973087
4.108110170138069
4.120419114468088
4.12657358663307
4.120419114468088
4.120419114468088
4.114264642303079
4.114264642303079
4.12657358663307
4.120419114468088
4.12657358663307
4.120419114468088
4.120419114468088
4.120419114468088
4.12657358663307
4.108110170138069
4.12657358663307
4.12657358663307
4.120419114468088
4.1327280587980795
4.12657358663307
4.1327280587980795
4.1327280587980795
4.12657358663307
4.138882530963089
4.138882530963089
4.1327280587980795
4.12657358663307
4.120419114468088
4.120419114468088
4.114264642303079
4.101955697973087
4.095801225808078
4.101955697973087
4.108110170138069
4.095801225808078
4.095801225808078
4.095801225808078
4.065028864983084
4.028102031993082
4.114264642303079
4.120419114468088
4.108110170138069
4.101955697973087
4.095801225808078
4.083492281478085
4.0465654484880815
4.058874392818074
4.12657358663307
4.1942727804480935
4.261971974263091
4.305053279418103
4.3173622237481215
4.305053279418103
4.249663029933098
4.145037003128072
4.040410976323072
3.9850207268380675
3.9788662546730578
4.003484143333068
4.0465654484880815
4.058874392818074
4.077337809313075
4.089646753643067
4.089646753643067
4.095801225808078
4.095801225808078
4.095801225808078
4.108110170138069
4.108110170138069
4.101955697973087
4.101955697973087
4.114264642303079
4.114264642303079
4.114264642303079
4.114264642303079
4.114264642303079
4.1327280587980795
4.120419114468088
4.120419114468088
4.12657358663307
4.12657358663307
4.1327280587980795
4.145037003128072
4.138882530963089
4.138882530963089
4.138882530963089
4.151191475293081
4.151191475293081
4.151191475293081
4.163500419623101
4.163500419623101
4.169654891788083
4.169654891788083
4.169654891788083
4.1758093639530935
4.169654891788083
4.181963836118102
4.188118308283084
4.1942727804480935
4.2065817247780855
4.1942727804480935
4.2065817247780855
4.218890669108104
4.218890669108104
4.218890669108104
4.218890669108104
4.212736196943095
4.2065817247780855
4.2065817247780855
4.2065817247780855
4.200427252613103
4.181963836118102
4.169654891788083
4.157345947458091
4.145037003128072
4.138882530963089
4.108110170138069
4.0465654484880815
4.12657358663307
4.12657358663307
4.120419114468088
4.114264642303079
4.101955697973087
4.095801225808078
4.065028864983084
4.065028864983084
4.0711833371480655
4.077337809313075
4.083492281478085
4.0711833371480655
4.0711833371480655
4.058874392818074
4.028102031993082
3.948093893848065
3.800386561888025
3.560362147453006
3.1110856794079322
2.55102871239285
1.89865466290276
1.400142417537692
1.1170366979476598
0.9939472546476313
1.1601180031026725
1.0554919762976458
0.7908496732026148
0.45850817629256013
0.2800284835075273
0.40311792680755576
0.5569797309325776
0.8093130896976164
1.2585895577426898
1.6340123598077294
1.861727829912757
2.0586709391927913
2.2186872154828228
2.3356221866178415
2.477175046412844
2.6002644897128726
2.68642710002287
2.778744182497905
2.8464433763129016
2.9141425701278982
2.9572238752829105
3.006459652602933
3.0618499020879373
3.117240151572942
3.166475928892937
3.2095572340479492
3.2403295948729705
3.264947483532954
3.289565372192965
3.3203377330179586
3.35111009384298
3.381882454667973
3.394191398997992
3.424963759822985
3.486508481473
3.5172808422979926
3.541898730958004
3.554207675287996
3.5665166196180156
3.61575239693801
3.652679229928013
3.6896060629180156
3.7265328959080186
3.75115078456803
3.7696142010630322
3.800386561888025
3.825004450548036
3.8434678670430373
3.8803947000330408
3.8988581165280416
3.9111670608580615
3.9234760051880535
3.9357849495180455
3.9542483660130467
3.9665573103430654
3.9911751990030497
3.9973296711680604
4.003484143333068
4.003484143333068
4.021947559828071
4.034256504158063
4.0465654484880815
4.058874392818074
4.065028864983084
4.083492281478085
4.101955697973087
4.108110170138069
4.120419114468088
4.114264642303079
4.114264642303079
4.108110170138069
4.114264642303079
4.169654891788083
4.231199613438097
4.3112077515831135
4.366598001068117
4.360443528903107
4.354289056738125
4.3112077515831135
4.231199613438097
4.120419114468088
4.009638615498079
3.9850207268380675
3.9788662546730578
3.9727117825080476
3.9665573103430654
3.9419394216830552
3.9234760051880535
3.9111670608580615
3.9173215330230438
3.9173215330230438
3.9173215330230438
3.9296304773530633
3.9357849495180455
3.9542483660130467
3.9419394216830552
3.886549172198051
3.788077617558033
3.800386561888025
3.6834515907530063
3.511126370132983
3.308028788687967
3.1233946237379517
2.9633783474479203
2.8525978484779113
2.7848986546628876
2.674118155692878
2.5941100175478624
2.5694921288878514
2.55102871239285
2.5387197680628577
2.4894839907428636
2.4402482134228407
2.4156303247628297
2.4156303247628297
2.4217847969278394
2.403321380432838
2.3417766587828237
2.329467714452832
2.224841687647805
2.138679077337807
1.990971745377768
1.8801912464077586
1.7140204979527454
1.4863050278477177
1.4186058340326935
1.3878334732077002
1.400142417537692
1.3755245288776807
1.3570611123826792
1.3755245288776807
1.4247603061977032
1.4616871391877062
1.4986139721777092
1.5232318608377204
1.5478497494977315
1.5724676381577152
1.5970855268177266
1.615548943312728
1.6340123598077294
1.6586302484677409
1.683248137127724
1.7017115536227536
1.7263294422827367
1.7447928587777384
1.757101803107758
1.7940286360977609
1.8124920525927626
1.8494188855827651
1.8801912464077586
1.91096360723278
1.9355814958927628
1.9601993845527748
1.9786628010477763
2.003280689707787
2.0340530505327803
2.052516467027782
2.077134355687793
2.1017522443478045
2.1263701330077875
2.138679077337807
2.1694514381628007
2.187914854657802
2.224841687647805
2.2371506319778245
2.2679229928028177
2.2925408814628288
2.3171587701228398
2.3356221866178415
2.3540856031128428
2.3663945474428347
2.403321380432838
2.4279392690928487
2.4402482134228407
2.4587116299178424
2.477175046412844
2.501792935072855
2.5141018794028467
2.5325652958978484
2.544874240227868
2.563337656722869
2.5941100175478624
2.612573434042864
2.631036850537866
2.6433457948678853
2.661809211362886
2.6925815721878803
2.6987360443528896
2.723353933012873
2.729508405177883
2.747971821672884
2.766435238167886
2.778744182497905
2.797207598992907
2.8156710154879088
2.8279799598179
2.8464433763129016
2.8525978484779113
2.871061264972913
2.883370209302905
2.8895246814679143
2.901833625797906
2.9202970422929075
2.9387604587879093
2.944914930952919
2.9572238752829105
2.975687291777912
3.0003051804379233
3.0003051804379233
2.9510694031179288
3.0249230690979347
3.074158846417929
3.080313318582939
3.0864677907479487
3.0987767350779407
3.117240151572942
3.117240151572942
3.1110856794079322
3.117240151572942
3.0864677907479487
3.166475928892937
3.1849393453879378
3.1972482897179573
3.2034027618829395
3.191093817552948
3.166475928892937
3.191093817552948
3.2095572340479492
3.215711706212959
3.2280206505429514
3.234175122707961
3.2464840670379527
3.258793011367972
3.264947483532954
3.283410900027955
3.289565372192965
3.2957198443579747
3.283410900027955
3.283410900027955
3.301874316522957
3.3449556216779697
3.418809287657976
3.504971897968001
3.578825563948007
3.609597924773
3.5972889804430093
3.5849800361130173
3.5234353144630024
3.418809287657976
3.3264922051829684
3.301874316522957
3.3388011495129604
3.375727982502963
3.406500343327984
3.418809287657976
3.4311182319879947
3.4434271763179867
3.449581648482997
3.4557361206479786
3.461890592812989
3.4741995371429804
3.4741995371429804
3.4926629536379816
3.4926629536379816
3.4926629536379816
3.504971897968001
3.5172808422979926
3.5172808422979926
3.5172808422979926
3.529589786627985
3.529589786627985
3.5357442587929944
3.541898730958004
3.554207675287996
3.554207675287996
3.560362147453006
3.572671091782997
3.5849800361130173
3.5849800361130173
3.5849800361130173
3.6034434526080172
3.609597924773
3.609597924773
3.628061341268002
3.634215813433012
3.640370285598021
3.658833702093023
3.6649881742580046
3.677297118588024
3.6896060629180156
3.695760535083026
3.7080694794130173
3.7142239515780275
3.7265328959080186
3.7449963124030208
3.7449963124030208
3.75115078456803
3.75115078456803
3.75730525673304
3.763459728898022
3.763459728898022
3.763459728898022
3.75115078456803
3.75115078456803
3.75115078456803
3.738841840238039
3.732687368073029
3.720378423743037
3.720378423743037
3.7142239515780275
3.695760535083026
3.6896060629180156
3.6896060629180156
3.695760535083026
3.695760535083026
3.6896060629180156
3.6896060629180156
3.695760535083026
3.701915007248036
3.6896060629180156
3.701915007248036
3.7142239515780275
3.7080694794130173
3.7080694794130173
3.7080694794130173
3.720378423743037
3.720378423743037
3.720378423743037
3.7265328959080186
3.732687368073029
3.738841840238039
3.7449963124030208
3.75115078456803
3.7449963124030208
3.7449963124030208
3.75115078456803
3.763459728898022
3.75730525673304
3.763459728898022
3.763459728898022
3.75115078456803
3.720378423743037
3.7757686732280415
3.7757686732280415
3.7757686732280415
3.781923145393024
3.781923145393024
3.788077617558033
3.800386561888025
3.8065410340530352
3.8065410340530352
3.8065410340530352
3.8126955062180454
3.8188499783830263
3.8188499783830263
3.8126955062180454
3.8126955062180454
3.8126955062180454
3.8126955062180454
3.8188499783830263
3.8188499783830263
3.825004450548036
3.837313394878028
3.8434678670430373
3.8434678670430373
3.8434678670430373
3.837313394878028
3.837313394878028
3.8496223392080475
3.8496223392080475
3.8434678670430373
3.8434678670430373
3.855776811373057
3.8496223392080475
3.8434678670430373
3.8496223392080475
3.855776811373057
3.837313394878028
3.855776811373057
3.8496223392080475
3.855776811373057
3.8619312835380395
3.8680857557030492
3.8680857557030492
3.874240227868059
3.8803947000330408
3.886549172198051
3.886549172198051
3.9050125886930522
3.8988581165280416
3.9050125886930522
3.9050125886930522
3.9050125886930522
3.8988581165280416
3.8927036443630603
3.8927036443630603
3.886549172198051
3.886549172198051
3.886549172198051
3.8988581165280416
3.8988581165280416
3.8927036443630603
3.8988581165280416
3.8988581165280416
3.8927036443630603
3.9111670608580615
3.8988581165280416
3.8988581165280416
3.8803947000330408
3.8803947000330408
3.8927036443630603
3.9419394216830552
4.009638615498079
4.095801225808078
4.151191475293081
4.157345947458091
4.145037003128072
4.114264642303079
4.028102031993082
3.9111670608580615
3.8188499783830263
3.8065410340530352
3.8434678670430373
3.874240227868059
3.8927036443630603
3.9050125886930522
3.9111670608580615
3.9234760051880535
3.9111670608580615
3.9111670608580615
3.9173215330230438
3.9234760051880535
3.9173215330230438
3.9173215330230438
3.9234760051880535
3.9234760051880535
3.9296304773530633
3.9357849495180455
3.9357849495180455
3.9419394216830552
3.948093893848065
3.9419394216830552
3.9419394216830552
3.9542483660130467
3.9542483660130467
3.9727117825080476
3.9727117825080476
3.9911751990030497
3.9973296711680604
4.009638615498079
4.034256504158063
4.181963836118102
4.329671168078114
4.40967930622313
4.477378500038126
4.520459805193139
4.569695582513134
4.612776887668146
4.649703720658149
4.668167137153151
4.698939497978172
4.7297118588031655
4.7420208031331565
4.7297118588031655
4.828183413443182
4.846646829938185
4.871264718598195
4.877419190763177
4.8651102464331855
4.877419190763177
4.902037079423188
4.91434602375318
4.9389639124131905
4.945118384578201
4.9389639124131905
4.9266549680832
4.9266549680832
4.932809440248209
4.92050049591819
4.91434602375318
4.92050049591819
4.91434602375318
4.91434602375318
4.902037079423188
4.908191551588198
4.908191551588198
4.895882607258178
4.895882607258178
4.902037079423188
4.902037079423188
4.908191551588198
4.902037079423188
4.91434602375318
4.908191551588198
4.91434602375318
4.9266549680832
4.932809440248209
4.9266549680832
4.932809440248209
4.932809440248209
4.932809440248209
4.932809440248209
4.945118384578201
4.9389639124131905
4.9389639124131905
4.9389639124131905
4.9389639124131905
4.9389639124131905
4.932809440248209
4.932809440248209
4.9389639124131905
4.9389639124131905
4.932809440248209
4.9266549680832
4.91434602375318
4.91434602375318
4.9266549680832
4.9266549680832
4.9266549680832
4.92050049591819
4.91434602375318
4.92050049591819
4.871264718598195
4.846646829938185
4.92050049591819
4.92050049591819
4.9266549680832
4.91434602375318
4.908191551588198
4.908191551588198
4.883573662928187
4.8651102464331855
4.877419190763177
4.877419190763177
4.871264718598195
4.877419190763177
4.871264718598195
4.877419190763177
4.858955774268176
4.871264718598195
4.877419190763177
4.871264718598195
4.858955774268176
4.8651102464331855
4.858955774268176
4.8528013021031935
4.846646829938185
4.8528013021031935
4.858955774268176
4.858955774268176
4.8528013021031935
4.8651102464331855
4.858955774268176
4.8528013021031935
4.8528013021031935
4.8528013021031935
4.8651102464331855
4.8528013021031935
4.858955774268176
4.858955774268176
4.8528013021031935
4.846646829938185
4.828183413443182
4.828183413443182
4.828183413443182
4.81587446911319
4.809719996948181
4.797411052618189
4.803565524783171
4.803565524783171
4.7912565804531795
4.7912565804531795
4.785102108288171
4.778947636123188
4.778947636123188
4.772793163958178
4.760484219628157
4.760484219628157
4.754329747463175
4.7420208031331565
4.7420208031331565
4.766638691793168
4.822028941278172
4.895882607258178
4.932809440248209
4.889728135093197
4.982045217568204
4.969736273238212
4.883573662928187
4.760484219628157
4.662012664988168
4.625085831998166
4.625085831998166
4.618931359833156
4.655858192823159
4.67432160931816
4.686630553648152
4.698939497978172
4.705093970143154
4.705093970143154
4.692785025813162
4.705093970143154
4.698939497978172
4.705093970143154
4.698939497978172
4.705093970143154
4.698939497978172
4.705093970143154
4.698939497978172
4.705093970143154
4.705093970143154
4.705093970143154
4.705093970143154
4.698939497978172
4.705093970143154
4.705093970143154
4.692785025813162
4.698939497978172
4.705093970143154
4.711248442308165
4.711248442308165
4.705093970143154
4.717402914473173
4.723557386638155
4.717402914473173
4.717402914473173
4.723557386638155
4.7297118588031655
4.7420208031331565
4.7420208031331565
4.754329747463175
4.754329747463175
4.760484219628157
4.760484219628157
4.766638691793168
4.766638691793168
4.760484219628157
4.7420208031331565
4.754329747463175
4.748175275298167
4.7420208031331565
4.7420208031331565
4.7420208031331565
4.7297118588031655
4.723557386638155
4.717402914473173
4.698939497978172
4.692785025813162
4.662012664988168
4.668167137153151
4.662012664988168
4.649703720658149
4.649703720658149
4.637394776328158
4.637394776328158
4.637394776328158
4.625085831998166
4.612776887668146
4.612776887668146
4.612776887668146
4.618931359833156
4.618931359833156
4.618931359833156
4.606622415503137
4.6004679433381535
4.612776887668146
4.6004679433381535
4.6004679433381535
4.6004679433381535
4.606622415503137
4.606622415503137
4.6004679433381535
4.612776887668146
4.618931359833156
4.618931359833156
4.6004679433381535
4.606622415503137
4.5943134711731455
4.6004679433381535
4.588158999008135
4.5943134711731455
4.588158999008135
4.5943134711731455
4.588158999008135
4.588158999008135
4.5820045268431535
4.575850054678144
4.575850054678144
4.563541110348153
4.563541110348153
4.563541110348153
4.557386638183142
4.551232166018132
4.563541110348153
4.551232166018132
4.557386638183142
4.557386638183142
4.551232166018132
4.551232166018132
4.557386638183142
4.551232166018132
4.54507769385315
4.538923221688139
4.538923221688139
4.538923221688139
4.538923221688139
4.520459805193139
4.471224027873144
4.551232166018132
4.551232166018132
4.526614277358149
4.501996388698137
4.520459805193139
4.520459805193139
4.526614277358149
4.526614277358149
4.5327687495231315
4.520459805193139
4.520459805193139
4.520459805193139
4.514305333028129
4.514305333028129
4.520459805193139
4.526614277358149
4.520459805193139
4.520459805193139
4.520459805193139
4.514305333028129
4.520459805193139
4.526614277358149
4.520459805193139
4.526614277358149
4.5327687495231315
4.538923221688139
4.526614277358149
4.520459805193139
4.520459805193139
4.514305333028129
4.514305333028129
4.508150860863147
4.495841916533128
4.489687444368147
4.483532972203136
4.489687444368147
4.483532972203136
4.489687444368147
4.483532972203136
4.489687444368147
4.483532972203136
4.477378500038126
4.471224027873144
4.477378500038126
4.452760611378115
4.446606139213133
4.446606139213133
4.489687444368147
4.551232166018132
4.637394776328158
4.705093970143154
4.7297118588031655
4.735866330968175
4.705093970143154
4.618931359833156
4.495841916533128
4.391215889728128
4.354289056738125
4.391215889728128
4.421988250553122
4.446606139213133
4.446606139213133
4.446606139213133
4.458915083543125
4.458915083543125
4.434297194883113
4.446606139213133
4.452760611378115
4.452760611378115
4.458915083543125
4.465069555708134
4.465069555708134
4.465069555708134
4.452760611378115
4.452760611378115
4.465069555708134
4.465069555708134
4.465069555708134
4.471224027873144
4.477378500038126
4.477378500038126
4.471224027873144
4.477378500038126
4.477378500038126
4.477378500038126
4.471224027873144
4.477378500038126
4.477378500038126
4.477378500038126
4.477378500038126
4.483532972203136
4.483532972203136
4.483532972203136
4.483532972203136
4.495841916533128
4.495841916533128
4.508150860863147
4.508150860863147
4.526614277358149
4.526614277358149
4.5327687495231315
4.54507769385315
4.54507769385315
4.54507769385315
4.54507769385315
4.538923221688139
4.551232166018132
4.538923221688139
4.5327687495231315
4.5327687495231315
4.526614277358149
4.520459805193139
4.495841916533128
4.489687444368147
4.477378500038126
4.471224027873144
4.452760611378115
4.452760611378115
4.434297194883113
4.428142722718132
4.397370361893111
4.360443528903107
4.434297194883113
4.428142722718132
4.428142722718132
4.421988250553122
4.428142722718132
4.40352483405812
4.298898807253093
4.3727524732331275
4.415833778388112
4.40967930622313
4.40967930622313
4.40967930622313
4.40967930622313
4.40352483405812
4.3727524732331275
4.37890694539811
4.385061417563119
4.397370361893111
4.391215889728128
4.397370361893111
4.397370361893111
4.391215889728128
4.397370361893111
4.40352483405812
4.40352483405812
4.40967930622313
4.40352483405812
4.397370361893111
4.397370361893111
4.391215889728128
4.391215889728128
4.397370361893111
4.391215889728128
4.397370361893111
4.40352483405812
4.40352483405812
4.397370361893111
4.397370361893111
4.391215889728128
4.385061417563119
4.391215889728128
4.397370361893111
4.385061417563119
4.391215889728128
4.385061417563119
4.37890694539811
4.37890694539811
4.37890694539811
4.385061417563119
4.385061417563119
4.385061417563119
4.391215889728128
4.391215889728128
4.3727524732331275
4.385061417563119
4.385061417563119
4.37890694539811
4.37890694539811
4.37890694539811
4.3727524732331275
4.3727524732331275
4.3727524732331275
4.37890694539811
4.3727524732331275
4.37890694539811
4.385061417563119
4.3727524732331275
4.3727524732331275
4.37890694539811
4.366598001068117
4.385061417563119
4.391215889728128
4.391215889728128
4.391215889728128
4.391215889728128
4.37890694539811
4.37890694539811
4.3727524732331275
4.37890694539811
4.3727524732331275
4.3727524732331275
4.366598001068117
4.360443528903107
4.366598001068117
4.354289056738125
4.341980112408105
4.354289056738125
4.354289056738125
4.341980112408105
4.354289056738125
4.354289056738125
4.341980112408105
4.329671168078114
4.305053279418103
4.3112077515831135
4.354289056738125
4.421988250553122
4.501996388698137
4.575850054678144
4.6004679433381535
4.5820045268431535
4.569695582513134
4.495841916533128
4.366598001068117
4.255817502098108
4.225045141273086
4.261971974263091
4.292744335088111
4.305053279418103
4.3173622237481215
4.329671168078114
4.329671168078114
4.335825640243124
4.329671168078114
4.335825640243124
4.323516695913104
4.329671168078114
4.335825640243124
4.329671168078114
4.335825640243124
4.323516695913104
4.280435390758092
4.366598001068117
4.354289056738125
4.335825640243124
4.341980112408105
4.348134584573115
4.341980112408105
4.341980112408105
4.348134584573115
4.354289056738125
4.335825640243124
4.341980112408105
4.348134584573115
4.335825640243124
4.329671168078114
4.348134584573115
4.354289056738125
4.354289056738125
4.354289056738125
4.366598001068117
4.366598001068117
4.3727524732331275
4.391215889728128
4.385061417563119
4.397370361893111
4.397370361893111
4.40352483405812
4.415833778388112
4.421988250553122
4.421988250553122
4.428142722718132
4.428142722718132
4.421988250553122
4.428142722718132
4.421988250553122
4.421988250553122
4.415833778388112
4.397370361893111
4.397370361893111
4.385061417563119
4.360443528903107
4.348134584573115
4.341980112408105
4.329671168078114
4.323516695913104
4.305053279418103
4.305053279418103
4.292744335088111
4.292744335088111
4.2865898629231
4.280435390758092
4.280435390758092
4.2865898629231
4.280435390758092
4.2865898629231
4.280435390758092
4.280435390758092
4.27428091859311
4.27428091859311
4.2865898629231
4.280435390758092
4.2865898629231
4.280435390758092
4.280435390758092
4.292744335088111
4.2865898629231
4.2865898629231
4.298898807253093
4.3112077515831135
4.298898807253093
4.305053279418103
4.292744335088111
4.298898807253093
4.292744335088111
4.292744335088111
4.298898807253093
4.292744335088111
4.292744335088111
4.2865898629231
4.292744335088111
4.292744335088111
4.2865898629231
4.292744335088111
4.292744335088111
4.292744335088111
4.2865898629231
4.2865898629231
4.292744335088111
4.298898807253093
4.2865898629231
4.280435390758092
4.2865898629231
4.280435390758092
4.2865898629231
4.280435390758092
4.27428091859311
4.255817502098108
4.2681264464281
4.27428091859311
4.27428091859311
4.280435390758092
4.280435390758092
4.280435390758092
4.27428091859311
4.27428091859311
4.280435390758092
4.280435390758092
4.280435390758092
4.292744335088111
4.305053279418103
4.298898807253093
4.298898807253093
4.298898807253093
4.298898807253093
4.298898807253093
4.298898807253093
4.305053279418103
4.305053279418103
4.305053279418103
4.305053279418103
4.298898807253093
4.2865898629231
4.237354085603107
4.292744335088111
4.298898807253093
4.298898807253093
4.292744335088111
4.27428091859311
4.249663029933098
4.249663029933098
4.255817502098108
4.2681264464281
4.261971974263091
4.2681264464281
4.2681264464281
4.2681264464281
4.2681264464281
4.27428091859311
4.255817502098108
4.243508557768089
4.249663029933098
4.2681264464281
4.335825640243124
4.397370361893111
4.465069555708134
4.514305333028129
4.508150860863147
4.495841916533128
4.440451667048122
4.323516695913104
4.2065817247780855
4.151191475293081
4.151191475293081
4.181963836118102
4.218890669108104
4.243508557768089
4.249663029933098
4.255817502098108
4.255817502098108
4.249663029933098
4.261971974263091
4.261971974263091
4.261971974263091
4.27428091859311
4.280435390758092
4.280435390758092
4.2681264464281
4.2681264464281
4.27428091859311
4.280435390758092
4.27428091859311
4.27428091859311
4.280435390758092
4.280435390758092
4.280435390758092
4.27428091859311
4.280435390758092
4.261971974263091
4.261971974263091
4.261971974263091
4.27428091859311
4.27428091859311
4.27428091859311
4.280435390758092
4.2865898629231
4.280435390758092
4.298898807253093
4.305053279418103
4.305053279418103
4.3112077515831135
4.3173622237481215
4.329671168078114
4.341980112408105
4.341980112408105
4.348134584573115
4.360443528903107
4.354289056738125
4.360443528903107
4.323516695913104
4.3112077515831135
4.397370361893111
4.391215889728128
4.37890694539811
4.366598001068117
4.360443528903107
4.348134584573115
4.3112077515831135
4.292744335088111
4.2865898629231
4.2865898629231
4.280435390758092
4.27428091859311
4.2681264464281
4.261971974263091
4.249663029933098
4.249663029933098
4.243508557768089
4.249663029933098
4.249663029933098
4.255817502098108
4.243508557768089
4.243508557768089
4.237354085603107
4.243508557768089
4.249663029933098
4.249663029933098
4.243508557768089
4.243508557768089
4.249663029933098
4.243508557768089
4.237354085603107
4.243508557768089
4.237354085603107
4.237354085603107
4.249663029933098
4.243508557768089
4.249663029933098
4.249663029933098
4.255817502098108
4.249663029933098
4.261971974263091
4.249663029933098
4.249663029933098
4.237354085603107
4.188118308283084
4.255817502098108
4.243508557768089
4.249663029933098
4.249663029933098
4.255817502098108
4.249663029933098
4.249663029933098
4.249663029933098
4.255817502098108
4.255817502098108
4.255817502098108
4.255817502098108
4.261971974263091
4.261971974263091
4.261971974263091
4.249663029933098
4.237354085603107
4.249663029933098
4.243508557768089
4.249663029933098
4.243508557768089
4.249663029933098
4.255817502098108
4.249663029933098
4.237354085603107
4.255817502098108
4.243508557768089
4.249663029933098
4.261971974263091
4.255817502098108
4.249663029933098
4.243508557768089
4.243508557768089
4.255817502098108
4.261971974263091
4.261971974263091
4.261971974263091
4.255817502098108
4.261971974263091
4.261971974263091
4.261971974263091
4.27428091859311
4.292744335088111
4.2865898629231
4.280435390758092
4.280435390758092
4.27428091859311
4.2681264464281
4.2681264464281
4.261971974263091
4.249663029933098
4.249663029933098
4.243508557768089
4.243508557768089
4.243508557768089
4.225045141273086
4.218890669108104
4.231199613438097
4.225045141273086
4.231199613438097
4.237354085603107
4.231199613438097
4.218890669108104
4.225045141273086
4.212736196943095
4.212736196943095
4.237354085603107
4.305053279418103
4.385061417563119
4.446606139213133
4.483532972203136
4.477378500038126
4.465069555708134
4.40967930622313
4.305053279418103
4.188118308283084
4.1327280587980795
4.157345947458091
4.1942727804480935
4.212736196943095
4.231199613438097
4.243508557768089
4.243508557768089
4.255817502098108
4.249663029933098
4.249663029933098
4.249663029933098
4.243508557768089
4.249663029933098
4.249663029933098
4.261971974263091
4.261971974263091
4.255817502098108
4.261971974263091
4.255817502098108
4.261971974263091
4.255817502098108
4.243508557768089
4.249663029933098
4.255817502098108
4.255817502098108
4.2681264464281
4.261971974263091
4.261971974263091
4.261971974263091
4.2681264464281
4.2681264464281
4.27428091859311
4.27428091859311
4.27428091859311
4.2865898629231
4.2865898629231
4.292744335088111
4.305053279418103
4.3112077515831135
4.3112077515831135
4.3173622237481215
4.323516695913104
4.323516695913104
4.341980112408105
4.329671168078114
4.280435390758092
4.354289056738125
4.3727524732331275
4.3727524732331275
4.360443528903107
4.335825640243124
4.329671168078114
4.329671168078114
4.329671168078114
4.323516695913104
4.3173622237481215
4.298898807253093
4.292744335088111
4.27428091859311
4.2681264464281
4.255817502098108
4.249663029933098
4.243508557768089
4.237354085603107
4.237354085603107
4.225045141273086
4.237354085603107
4.231199613438097
4.231199613438097
4.237354085603107
4.237354085603107
4.237354085603107
4.231199613438097
4.231199613438097
4.237354085603107
4.237354085603107
4.243508557768089
4.237354085603107
4.237354085603107
4.243508557768089
4.243508557768089
4.231199613438097
4.243508557768089
4.243508557768089
4.231199613438097
4.237354085603107
4.237354085603107
4.237354085603107
4.237354085603107
4.225045141273086
4.237354085603107
4.237354085603107
4.237354085603107
4.237354085603107
4.243508557768089
4.243508557768089
4.243508557768089
4.237354085603107
4.249663029933098
4.249663029933098
4.249663029933098
4.249663029933098
4.255817502098108
4.249663029933098
4.255817502098108
4.243508557768089
4.249663029933098
4.249663029933098
4.231199613438097
4.243508557768089
4.249663029933098
4.249663029933098
4.237354085603107
4.237354085603107
4.243508557768089
4.237354085603107
4.243508557768089
4.237354085603107
4.243508557768089
4.231199613438097
4.225045141273086
4.237354085603107
4.237354085603107
4.237354085603107
4.237354085603107
4.237354085603107
4.231199613438097
4.237354085603107
4.237354085603107
4.237354085603107
4.243508557768089
4.243508557768089
4.249663029933098
4.243508557768089
4.255817502098108
4.261971974263091
4.255817502098108
4.261971974263091
4.2681264464281
4.2681264464281
4.255817502098108
4.255817502098108
4.249663029933098
4.243508557768089
4.231199613438097
4.225045141273086
4.225045141273086
4.231199613438097
4.225045141273086
4.225045141273086
4.218890669108104
4.249663029933098
4.231199613438097
4.2065817247780855
4.218890669108104
4.212736196943095
4.218890669108104
4.2065817247780855
4.188118308283084
4.181963836118102
4.2065817247780855
4.27428091859311
4.366598001068117
4.446606139213133
4.489687444368147
4.483532972203136
4.458915083543125
4.329671168078114
4.298898807253093
4.181963836118102
4.120419114468088
4.157345947458091
4.181963836118102
4.2065817247780855
4.212736196943095
4.188118308283084
4.181963836118102
4.1942727804480935
4.200427252613103
4.200427252613103
4.2065817247780855
4.212736196943095
4.212736196943095
4.212736196943095
4.212736196943095
4.225045141273086
4.218890669108104
4.218890669108104
4.218890669108104
4.225045141273086
4.218890669108104
4.151191475293081
4.231199613438097
4.261971974263091
4.249663029933098
4.249663029933098
4.255817502098108
4.255817502098108
4.243508557768089
4.212736196943095
4.231199613438097
4.243508557768089
4.255817502098108
4.261971974263091
4.2681264464281
4.2681264464281
4.280435390758092
4.280435390758092
4.2865898629231
4.305053279418103
4.305053279418103
4.323516695913104
4.323516695913104
4.323516695913104
4.335825640243124
4.348134584573115
4.348134584573115
4.348134584573115
4.354289056738125
4.354289056738125
4.348134584573115
4.341980112408105
4.323516695913104
4.323516695913104
4.3112077515831135
4.298898807253093
4.280435390758092
4.27428091859311
4.261971974263091
4.249663029933098
4.231199613438097
4.231199613438097
4.218890669108104
4.218890669108104
4.218890669108104
4.212736196943095
4.2065817247780855
4.212736196943095
4.212736196943095
4.218890669108104
4.212736196943095
4.2065817247780855
4.2065817247780855
4.2065817247780855
4.212736196943095
4.200427252613103
4.1942727804480935
4.2065817247780855
4.2065817247780855
4.2065817247780855
4.212736196943095
4.2065817247780855
4.2065817247780855
4.200427252613103
4.188118308283084
4.2065817247780855
4.212736196943095
4.2065817247780855
4.212736196943095
4.2065817247780855
4.2065817247780855
4.212736196943095
4.212736196943095
4.218890669108104
4.2065817247780855
4.2065817247780855
4.212736196943095
4.212736196943095
4.2065817247780855
4.2065817247780855
4.212736196943095
4.212736196943095
4.2065817247780855
4.2065817247780855
4.2065817247780855
4.212736196943095
4.212736196943095
4.2065817247780855
4.2065817247780855
4.212736196943095
4.2065817247780855
4.2065817247780855
4.2065817247780855
4.212736196943095
4.200427252613103
4.200427252613103
4.2065817247780855
4.212736196943095
4.188118308283084
4.1327280587980795
4.225045141273086
4.237354085603107
4.212736196943095
4.1942727804480935
4.2065817247780855
4.212736196943095
4.2065817247780855
4.212736196943095
4.225045141273086
4.212736196943095
4.212736196943095
4.218890669108104
4.218890669108104
4.225045141273086
4.225045141273086
4.237354085603107
4.237354085603107
4.231199613438097
4.218890669108104
4.225045141273086
4.225045141273086
4.231199613438097
4.225045141273086
4.218890669108104
4.218890669108104
4.225045141273086
4.212736196943095
4.218890669108104
4.212736196943095
4.218890669108104
4.2065817247780855
4.212736196943095
4.2065817247780855
4.200427252613103
4.1942727804480935
4.200427252613103
4.1942727804480935
4.188118308283084
4.157345947458091
4.157345947458091
4.200427252613103
4.249663029933098
4.323516695913104
4.40967930622313
4.446606139213133
4.446606139213133
4.428142722718132
4.360443528903107
4.231199613438097
4.114264642303079
4.065028864983084
4.077337809313075
4.108110170138069
4.145037003128072
4.163500419623101
4.163500419623101
4.169654891788083
4.169654891788083
4.181963836118102
4.188118308283084
4.188118308283084
4.181963836118102
4.181963836118102
4.1942727804480935
4.188118308283084
4.188118308283084
4.188118308283084
4.1942727804480935
4.188118308283084
4.181963836118102
4.1942727804480935
4.200427252613103
4.188118308283084
4.188118308283084
4.1942727804480935
4.200427252613103
4.2065817247780855
4.2065817247780855
4.2065817247780855
4.2065817247780855
4.2065817247780855
4.2065817247780855
4.218890669108104
4.231199613438097
4.231199613438097
4.237354085603107
4.249663029933098
4.249663029933098
4.255817502098108
4.261971974263091
4.2681264464281
4.27428091859311
4.2865898629231
4.298898807253093
4.305053279418103
4.305053279418103
4.298898807253093
4.305053279418103
4.305053279418103
4.3173622237481215
4.305053279418103
4.292744335088111
4.2865898629231
4.2865898629231
4.280435390758092
4.261971974263091
4.255817502098108
4.243508557768089
4.237354085603107
4.231199613438097
4.218890669108104
4.212736196943095
4.200427252613103
4.2065817247780855
4.1942727804480935
4.1942727804480935
4.1942727804480935
4.1942727804480935
4.188118308283084
4.1942727804480935
4.169654891788083
4.120419114468088
4.1942727804480935
4.200427252613103
4.200427252613103
4.1942727804480935
4.188118308283084
4.188118308283084
4.151191475293081
4.151191475293081
4.163500419623101
4.169654891788083
4.1758093639530935
4.181963836118102
4.181963836118102
4.181963836118102
4.188118308283084
4.188118308283084
4.1942727804480935
4.200427252613103
4.2065817247780855
4.212736196943095
4.2065817247780855
4.2065817247780855
4.200427252613103
4.2065817247780855
4.2065817247780855
4.212736196943095
4.2065817247780855
4.2065817247780855
4.212736196943095
4.200427252613103
4.2065817247780855
4.2065817247780855
4.188118308283084
4.188118308283084
4.188118308283084
4.188118308283084
4.188118308283084
4.1942727804480935
4.200427252613103
4.200427252613103
4.1942727804480935
4.1942727804480935
4.1942727804480935
4.1942727804480935
4.2065817247780855
4.1942727804480935
4.2065817247780855
4.200427252613103
4.200427252613103
4.212736196943095
4.2065817247780855
4.2065817247780855
4.212736196943095
4.200427252613103
4.2065817247780855
4.2065817247780855
4.212736196943095
4.212736196943095
4.225045141273086
4.225045141273086
4.225045141273086
4.218890669108104
4.218890669108104
4.237354085603107
4.225045141273086
4.218890669108104
4.218890669108104
4.218890669108104
4.2065817247780855
4.2065817247780855
4.2065817247780855
4.200427252613103
4.1942727804480935
4.200427252613103
4.1942727804480935
4.200427252613103
4.188118308283084
4.188118308283084
4.1942727804480935
4.200427252613103
4.188118308283084
4.188118308283084
4.169654891788083
4.163500419623101
4.188118308283084
4.237354085603107
4.329671168078114
4.397370361893111
4.434297194883113
4.434297194883113
4.428142722718132
4.366598001068117
4.212736196943095
4.108110170138069
4.101955697973087
4.108110170138069
4.1327280587980795
4.163500419623101
4.1758093639530935
4.1758093639530935
4.138882530963089
4.138882530963089
4.151191475293081
4.163500419623101
4.169654891788083
4.1758093639530935
4.181963836118102
4.188118308283084
4.1758093639530935
4.188118308283084
4.188118308283084
4.1942727804480935
4.188118308283084
4.200427252613103
4.200427252613103
4.1942727804480935
4.1942727804480935
4.200427252613103
4.200427252613103
4.2065817247780855
4.181963836118102
4.138882530963089
4.218890669108104
4.225045141273086
4.1942727804480935
4.1942727804480935
4.212736196943095
4.225045141273086
4.231199613438097
4.237354085603107
4.237354085603107
4.237354085603107
4.249663029933098
4.255817502098108
4.2681264464281
4.2681264464281
4.27428091859311
4.2865898629231
4.2865898629231
4.2865898629231
4.292744335088111
4.292744335088111
4.280435390758092
4.2865898629231
4.292744335088111
4.280435390758092
4.2865898629231
4.2681264464281
4.27428091859311
4.255817502098108
4.243508557768089
4.237354085603107
4.225045141273086
4.212736196943095
4.200427252613103
4.200427252613103
4.1942727804480935
4.1942727804480935
4.181963836118102
4.181963836118102
4.181963836118102
4.1758093639530935
4.169654891788083
4.163500419623101
4.1758093639530935
4.169654891788083
4.163500419623101
4.1758093639530935
4.169654891788083
4.163500419623101
4.157345947458091
4.157345947458091
4.169654891788083
4.1758093639530935
4.1758093639530935
4.1758093639530935
4.169654891788083
4.1758093639530935
4.169654891788083
4.1758093639530935
4.1758093639530935
4.181963836118102
4.181963836118102
4.1758093639530935
4.169654891788083
4.181963836118102
4.181963836118102
4.181963836118102
4.181963836118102
4.188118308283084
4.188118308283084
4.188118308283084
4.188118308283084
4.181963836118102
4.1758093639530935
4.188118308283084
4.181963836118102
4.188118308283084
4.181963836118102
4.188118308283084
4.181963836118102
4.188118308283084
4.1758093639530935
4.181963836118102
4.188118308283084
4.188118308283084
4.1942727804480935
4.1942727804480935
4.181963836118102
4.188118308283084
4.1942727804480935
4.200427252613103
4.200427252613103
4.200427252613103
4.200427252613103
4.200427252613103
4.200427252613103
4.200427252613103
4.200427252613103
4.200427252613103
4.2065817247780855
4.200427252613103
4.200427252613103
4.1942727804480935
4.200427252613103
4.1942727804480935
4.200427252613103
4.2065817247780855
4.2065817247780855
4.218890669108104
4.212736196943095
4.218890669108104
4.225045141273086
4.218890669108104
4.212736196943095
4.212736196943095
4.218890669108104
4.218890669108104
4.218890669108104
4.2065817247780855
4.2065817247780855
4.188118308283084
4.1758093639530935
4.120419114468088
4.200427252613103
4.2065817247780855
4.2065817247780855
4.2065817247780855
4.1942727804480935
4.163500419623101
4.157345947458091
4.151191475293081
4.163500419623101
4.145037003128072
4.138882530963089
4.151191475293081
4.1942727804480935
4.2681264464281
4.348134584573115
4.415833778388112
4.421988250553122
4.415833778388112
4.391215889728128
4.3112077515831135
4.1942727804480935
4.089646753643067
4.083492281478085
4.120419114468088
4.145037003128072
4.163500419623101
4.163500419623101
4.169654891788083
4.1758093639530935
4.169654891788083
4.181963836118102
4.181963836118102
4.181963836118102
4.181963836118102
4.188118308283084
4.188118308283084
4.188118308283084
4.188118308283084
4.1942727804480935
4.1942727804480935
4.200427252613103
4.2065817247780855
4.2065817247780855
4.2065817247780855
4.1942727804480935
4.2065817247780855
4.2065817247780855
4.2065817247780855
4.212736196943095
4.212736196943095
4.212736196943095
4.212736196943095
4.2065817247780855
4.212736196943095
4.218890669108104
4.218890669108104
4.231199613438097
4.237354085603107
4.243508557768089
4.243508557768089
4.243508557768089
4.27428091859311
4.27428091859311
4.292744335088111
4.292744335088111
4.2865898629231
4.298898807253093
4.305053279418103
4.298898807253093
4.305053279418103
4.298898807253093
4.298898807253093
4.298898807253093
4.292744335088111
4.2865898629231
4.27428091859311
4.261971974263091
4.243508557768089
4.243508557768089
4.231199613438097
4.212736196943095
4.200427252613103
4.1942727804480935
4.181963836118102
4.1758093639530935
4.1758093639530935
4.1758093639530935
4.169654891788083
4.163500419623101
4.163500419623101
4.163500419623101
4.157345947458091
4.169654891788083
4.169654891788083
4.1758093639530935
4.1758093639530935
4.1758093639530935
4.169654891788083
4.1758093639530935
4.1758093639530935
4.1758093639530935
4.181963836118102
4.181963836118102
4.181963836118102
4.188118308283084
4.181963836118102
4.1758093639530935
4.188118308283084
4.181963836118102
4.181963836118102
4.1942727804480935
4.1942727804480935
4.200427252613103
4.1942727804480935
4.188118308283084
4.1942727804480935
4.2065817247780855
4.2065817247780855
4.2065817247780855
4.2065817247780855
4.1942727804480935
4.1327280587980795
4.212736196943095
4.188118308283084
4.200427252613103
4.200427252613103
4.200427252613103
4.2065817247780855
4.2065817247780855
4.218890669108104
4.212736196943095
4.200427252613103
4.2065817247780855
4.2065817247780855
4.2065817247780855
4.200427252613103
4.2065817247780855
4.200427252613103
4.200427252613103
4.2065817247780855
4.200427252613103
4.2065817247780855
4.2065817247780855
4.2065817247780855
4.1942727804480935
4.200427252613103
4.200427252613103
4.2065817247780855
4.200427252613103
4.2065817247780855
4.2065817247780855
4.2065817247780855
4.212736196943095
4.212736196943095
4.2065817247780855
4.218890669108104
4.218890669108104
4.231199613438097
4.231199613438097
4.237354085603107
4.225045141273086
4.2065817247780855
4.138882530963089
4.231199613438097
4.249663029933098
4.231199613438097
4.225045141273086
4.218890669108104
4.2065817247780855
4.1942727804480935
4.163500419623101
4.163500419623101
4.1758093639530935
4.169654891788083
4.1758093639530935
4.188118308283084
4.188118308283084
4.181963836118102
4.181963836118102
4.181963836118102
4.163500419623101
4.151191475293081
4.169654891788083
4.231199613438097
4.305053279418103
4.3727524732331275
4.440451667048122
4.458915083543125
4.452760611378115
4.40967930622313
4.3112077515831135
4.188118308283084
4.089646753643067
4.077337809313075
4.108110170138069
4.138882530963089
4.157345947458091
4.169654891788083
4.188118308283084
4.181963836118102
4.181963836118102
4.181963836118102
4.1942727804480935
4.1942727804480935
4.200427252613103
4.188118308283084
4.1942727804480935
4.200427252613103
4.200427252613103
4.200427252613103
4.2065817247780855
4.212736196943095
4.218890669108104
4.218890669108104
4.218890669108104
4.218890669108104
4.212736196943095
4.200427252613103
4.218890669108104
4.212736196943095
4.212736196943095
4.218890669108104
4.225045141273086
4.225045141273086
4.218890669108104
4.2065817247780855
4.231199613438097
4.237354085603107
4.237354085603107
4.243508557768089
4.249663029933098
4.255817502098108
4.261971974263091
4.2681264464281
4.280435390758092
4.292744335088111
4.298898807253093
4.298898807253093
4.305053279418103
4.305053279418103
4.305053279418103
4.298898807253093
4.2865898629231
4.225045141273086
4.3112077515831135
4.305053279418103
4.298898807253093
4.280435390758092
4.243508557768089
4.231199613438097
4.225045141273086
4.218890669108104
4.225045141273086
4.218890669108104
4.212736196943095
4.2065817247780855
4.1942727804480935
4.1942727804480935
4.1942727804480935
4.1942727804480935
4.1942727804480935
4.188118308283084
4.188118308283084
4.188118308283084
4.1942727804480935
4.1942727804480935
4.181963836118102
4.188118308283084
4.188118308283084
4.188118308283084
4.1942727804480935
4.188118308283084
4.188118308283084
4.188118308283084
4.181963836118102
4.1942727804480935
4.188118308283084
4.188118308283084
4.1942727804480935
4.1942727804480935
4.1942727804480935
4.200427252613103
4.2065817247780855
4.2065817247780855
4.2065817247780855
4.2065817247780855
4.212736196943095
4.2065817247780855
4.2065817247780855
4.2065817247780855
4.218890669108104
4.218890669108104
4.218890669108104
4.225045141273086
4.218890669108104
4.212736196943095
4.218890669108104
4.218890669108104
4.218890669108104
4.218890669108104
4.218890669108104
4.212736196943095
4.218890669108104
4.212736196943095
4.212736196943095
4.2065817247780855
4.2065817247780855
4.218890669108104
4.218890669108104
4.212736196943095
4.225045141273086
4.212736196943095
4.200427252613103
4.2065817247780855
4.2065817247780855
4.2065817247780855
4.212736196943095
4.212736196943095
4.212736196943095
4.2065817247780855
4.218890669108104
4.231199613438097
4.237354085603107
4.231199613438097
4.231199613438097
4.243508557768089
4.231199613438097
4.237354085603107
4.249663029933098
4.243508557768089
4.237354085603107
4.237354085603107
4.231199613438097
4.225045141273086
4.218890669108104
4.218890669108104
4.212736196943095
4.212736196943095
4.218890669108104
4.212736196943095
4.218890669108104
4.212736196943095
4.212736196943095
4.2065817247780855
4.212736196943095
4.212736196943095
4.212736196943095
4.200427252613103
4.2065817247780855
4.1942727804480935
4.2065817247780855
4.249663029933098
4.323516695913104
4.391215889728128
4.446606139213133
4.458915083543125
4.440451667048122
4.397370361893111
4.292744335088111
4.1758093639530935
4.108110170138069
4.083492281478085
4.095801225808078
4.1327280587980795
4.138882530963089
4.083492281478085
4.157345947458091
4.188118308283084
4.200427252613103
4.200427252613103
4.200427252613103
4.200427252613103
4.200427252613103
4.1942727804480935
4.200427252613103
4.2065817247780855
4.212736196943095
4.212736196943095
4.2065817247780855
4.200427252613103
4.2065817247780855
4.2065817247780855
4.2065817247780855
4.2065817247780855
4.200427252613103
4.200427252613103
4.1942727804480935
4.188118308283084
4.1942727804480935
4.188118308283084
4.188118308283084
4.188118308283084
4.188118308283084
4.200427252613103
4.200427252613103
4.200427252613103
4.1942727804480935
4.200427252613103
4.2065817247780855
4.218890669108104
4.218890669108104
4.225045141273086
4.237354085603107
4.255817502098108
4.261971974263091
4.255817502098108
4.2681264464281
4.261971974263091
4.2681264464281
4.2681264464281
4.261971974263091
4.255817502098108
4.249663029933098
4.249663029933098
4.243508557768089
4.231199613438097
4.212736196943095
4.200427252613103
4.181963836118102
4.1758093639530935
4.169654891788083
4.157345947458091
4.163500419623101
4.145037003128072
4.151191475293081
4.145037003128072
4.145037003128072
4.145037003128072
4.1327280587980795
4.145037003128072
4.151191475293081
4.138882530963089
4.145037003128072
4.145037003128072
4.145037003128072
4.145037003128072
4.138882530963089
4.151191475293081
4.151191475293081
4.157345947458091
4.163500419623101
4.157345947458091
4.169654891788083
4.1758093639530935
4.1758093639530935
4.1758093639530935
4.181963836118102
4.1758093639530935
4.1758093639530935
4.169654891788083
4.1758093639530935
4.169654891788083
4.163500419623101
4.1758093639530935
4.1758093639530935
4.1758093639530935
4.1758093639530935
4.163500419623101
4.169654891788083
4.169654891788083
4.1758093639530935
4.169654891788083
4.169654891788083
4.169654891788083
4.1758093639530935
4.169654891788083
4.1758093639530935
4.163500419623101
4.169654891788083
4.163500419623101
4.1758093639530935
4.188118308283084
4.1942727804480935
4.188118308283084
4.188118308283084
4.12657358663307
4.151191475293081
4.212736196943095
4.200427252613103
4.1942727804480935
4.200427252613103
4.188118308283084
4.181963836118102
4.157345947458091
4.145037003128072
4.151191475293081
4.1327280587980795
4.095801225808078
4.1758093639530935
4.1942727804480935
4.181963836118102
4.151191475293081
4.163500419623101
4.1758093639530935
4.181963836118102
4.181963836118102
4.188118308283084
4.200427252613103
4.200427252613103
4.200427252613103
4.2065817247780855
4.2065817247780855
4.212736196943095
4.2065817247780855
4.2065817247780855
4.200427252613103
4.188118308283084
4.1942727804480935
4.200427252613103
4.1942727804480935
4.200427252613103
4.188118308283084
4.1942727804480935
4.1942727804480935
4.1942727804480935
4.1942727804480935
4.188118308283084
4.188118308283084
4.169654891788083
4.163500419623101
4.169654891788083
4.212736196943095
4.280435390758092
4.354289056738125
4.428142722718132
4.440451667048122
4.434297194883113
4.40967930622313
4.335825640243124
4.212736196943095
4.089646753643067
4.083492281478085
4.108110170138069
4.145037003128072
4.157345947458091
4.1758093639530935
4.181963836118102
4.188118308283084
4.188118308283084
4.1942727804480935
4.1942727804480935
4.200427252613103
4.200427252613103
4.1942727804480935
4.1942727804480935
4.1942727804480935
4.181963836118102
4.1942727804480935
4.1942727804480935
4.1942727804480935
4.188118308283084
4.200427252613103
4.200427252613103
4.200427252613103
4.200427252613103
4.212736196943095
4.212736196943095
4.212736196943095
4.218890669108104
4.212736196943095
4.218890669108104
4.2065817247780855
4.218890669108104
4.225045141273086
4.231199613438097
4.225045141273086
4.231199613438097
4.225045141273086
4.231199613438097
4.237354085603107
4.255817502098108
4.261971974263091
4.27428091859311
4.27428091859311
4.2865898629231
4.292744335088111
4.292744335088111
4.292744335088111
4.292744335088111
4.298898807253093
4.305053279418103
4.305053279418103
4.298898807253093
4.2865898629231
4.2865898629231
4.2681264464281
4.255817502098108
4.243508557768089
4.225045141273086
4.218890669108104
4.2065817247780855
4.1942727804480935
4.181963836118102
4.1758093639530935
4.169654891788083
4.169654891788083
4.1758093639530935
4.169654891788083
4.169654891788083
4.163500419623101
4.169654891788083
4.163500419623101
4.169654891788083
4.1758093639530935
4.169654891788083
4.163500419623101
4.169654891788083
4.1758093639530935
4.163500419623101
4.114264642303079
4.188118308283084
4.200427252613103
4.1942727804480935
4.181963836118102
4.188118308283084
4.181963836118102
4.163500419623101
4.145037003128072
4.157345947458091
4.163500419623101
4.163500419623101
4.151191475293081
4.151191475293081
4.157345947458091
4.157345947458091
4.151191475293081
4.157345947458091
4.151191475293081
4.163500419623101
4.157345947458091
4.157345947458091
4.169654891788083
4.169654891788083
4.163500419623101
4.169654891788083
4.169654891788083
4.157345947458091
4.163500419623101
4.163500419623101
4.157345947458091
4.157345947458091
4.169654891788083
4.163500419623101
4.157345947458091
4.163500419623101
4.163500419623101
4.163500419623101
4.157345947458091
4.157345947458091
4.163500419623101
4.169654891788083
4.157345947458091
4.157345947458091
4.163500419623101
4.163500419623101
4.151191475293081
4.151191475293081
4.163500419623101
4.163500419623101
4.169654891788083
4.169654891788083
4.163500419623101
4.169654891788083
4.169654891788083
4.169654891788083
4.1758093639530935
4.1758093639530935
4.188118308283084
4.188118308283084
4.181963836118102
4.181963836118102
4.169654891788083
4.163500419623101
4.1758093639530935
4.169654891788083
4.157345947458091
4.163500419623101
4.151191475293081
4.157345947458091
4.151191475293081
4.157345947458091
4.157345947458091
4.157345947458091
4.157345947458091
4.163500419623101
4.163500419623101
4.151191475293081
4.145037003128072
4.1327280587980795
4.12657358663307
4.1327280587980795
4.181963836118102
4.249663029933098
4.329671168078114
4.40967930622313
4.415833778388112
4.40352483405812
4.3727524732331275
4.292744335088111
4.1758093639530935
4.058874392818074
4.0465654484880815
4.077337809313075
4.101955697973087
4.12657358663307
4.1327280587980795
4.138882530963089
4.145037003128072
4.145037003128072
4.145037003128072
4.145037003128072
4.145037003128072
4.151191475293081
4.163500419623101
4.163500419623101
4.169654891788083
4.163500419623101
4.169654891788083
4.169654891788083
4.169654891788083
4.163500419623101
4.169654891788083
4.169654891788083
4.163500419623101
4.169654891788083
4.169654891788083
4.157345947458091
4.169654891788083
4.163500419623101
4.1758093639530935
4.157345947458091
4.101955697973087
4.1942727804480935
4.188118308283084
4.163500419623101
4.169654891788083
4.181963836118102
4.188118308283084
4.1942727804480935
4.2065817247780855
4.212736196943095
4.212736196943095
4.231199613438097
4.237354085603107
4.249663029933098
4.243508557768089
4.255817502098108
4.261971974263091
4.255817502098108
4.255817502098108
4.249663029933098
4.255817502098108
4.255817502098108
4.243508557768089
4.231199613438097
4.218890669108104
4.212736196943095
4.181963836118102
4.169654891788083
4.163500419623101
4.145037003128072
4.138882530963089
4.12657358663307
4.12657358663307
4.120419114468088
4.120419114468088
4.114264642303079
4.120419114468088
4.120419114468088
4.120419114468088
4.12657358663307
4.1327280587980795
4.138882530963089
4.1327280587980795
4.1327280587980795
4.12657358663307
4.120419114468088
4.120419114468088
4.120419114468088
4.12657358663307
4.1327280587980795
4.12657358663307
4.1327280587980795
4.145037003128072
4.138882530963089
4.145037003128072
4.151191475293081
4.151191475293081
4.138882530963089
4.058874392818074
4.157345947458091
4.1758093639530935
4.1758093639530935
4.163500419623101
4.163500419623101
4.169654891788083
4.151191475293081
4.120419114468088
4.145037003128072
4.138882530963089
4.145037003128072
4.145037003128072
4.145037003128072
4.151191475293081
4.145037003128072
4.145037003128072
4.151191475293081
4.151191475293081
4.151191475293081
4.151191475293081
4.151191475293081
4.151191475293081
4.157345947458091
4.169654891788083
4.163500419623101
4.163500419623101
4.157345947458091
4.163500419623101
4.163500419623101
4.163500419623101
4.157345947458091
4.163500419623101
4.157345947458091
4.157345947458091
4.157345947458091
4.157345947458091
4.145037003128072
4.138882530963089
4.145037003128072
4.151191475293081
4.145037003128072
4.151191475293081
4.151191475293081
4.157345947458091
4.151191475293081
4.151191475293081
4.151191475293081
4.145037003128072
4.145037003128072
4.151191475293081
4.145037003128072
4.151191475293081
4.151191475293081
4.157345947458091
4.151191475293081
4.151191475293081
4.157345947458091
4.151191475293081
4.151191475293081
4.151191475293081
4.145037003128072
4.138882530963089
4.108110170138069
4.0711833371480655
4.145037003128072
4.151191475293081
4.138882530963089
4.138882530963089
4.138882530963089
4.114264642303079
4.108110170138069
4.114264642303079
4.120419114468088
4.101955697973087
4.083492281478085
4.083492281478085
4.108110170138069
4.1758093639530935
4.255817502098108
4.329671168078114
4.3727524732331275
4.37890694539811
4.360443528903107
4.305053279418103
4.1942727804480935
4.0711833371480655
4.009638615498079
4.015793087663061
4.052719920653064
4.077337809313075
4.083492281478085
4.095801225808078
4.052719920653064
3.9850207268380675
3.9419394216830552
3.8988581165280416
3.8619312835380395
3.837313394878028
3.8188499783830263
3.825004450548036
3.837313394878028
3.855776811373057
3.855776811373057
3.855776811373057
3.855776811373057
3.8496223392080475
3.8619312835380395
3.874240227868059
3.874240227868059
3.8927036443630603
3.8927036443630603
3.9050125886930522
3.9234760051880535
3.9296304773530633
3.9296304773530633
3.9357849495180455
3.9357849495180455
3.9419394216830552
3.9604028381780574
3.9727117825080476
3.9788662546730578
3.9850207268380675
3.9850207268380675
4.003484143333068
4.003484143333068
4.009638615498079
4.015793087663061
4.0465654484880815
4.052719920653064
4.058874392818074
4.0711833371480655
4.077337809313075
4.083492281478085
4.089646753643067
4.095801225808078
4.108110170138069
4.101955697973087
4.108110170138069
4.101955697973087
4.095801225808078
4.089646753643067
4.083492281478085
4.0711833371480655
4.0711833371480655
4.058874392818074
4.052719920653064
4.058874392818074
4.0465654484880815
4.034256504158063
4.034256504158063
4.034256504158063
4.028102031993082
4.034256504158063
4.028102031993082
4.034256504158063
4.021947559828071
4.034256504158063
4.040410976323072
4.040410976323072
4.028102031993082
4.021947559828071
4.028102031993082
4.034256504158063
4.034256504158063
4.040410976323072
4.058874392818074
4.052719920653064
4.058874392818074
4.065028864983084
4.0711833371480655
4.065028864983084
4.0711833371480655
4.0711833371480655
4.083492281478085
4.083492281478085
4.077337809313075
4.089646753643067
4.083492281478085
4.089646753643067
4.089646753643067
4.083492281478085
4.095801225808078
4.089646753643067
4.089646753643067
4.077337809313075
4.028102031993082
4.108110170138069
4.089646753643067
4.089646753643067
4.101955697973087
4.108110170138069
4.101955697973087
4.108110170138069
4.108110170138069
4.108110170138069
4.101955697973087
4.114264642303079
4.120419114468088
4.12657358663307
4.120419114468088
4.12657358663307
4.1327280587980795
4.1327280587980795
4.1327280587980795
4.1327280587980795
4.1327280587980795
4.1327280587980795
4.1327280587980795
4.138882530963089
4.138882530963089
4.145037003128072
4.151191475293081
4.151191475293081
4.157345947458091
4.145037003128072
4.151191475293081
4.145037003128072
4.157345947458091
4.151191475293081
4.163500419623101
4.163500419623101
4.163500419623101
4.163500419623101
4.163500419623101
4.169654891788083
4.1758093639530935
4.163500419623101
4.163500419623101
4.163500419623101
4.157345947458091
4.163500419623101
4.163500419623101
4.157345947458091
4.157345947458091
4.151191475293081
4.163500419623101
4.163500419623101
4.163500419623101
4.169654891788083
4.169654891788083
4.169654891788083
4.169654891788083
4.169654891788083
4.169654891788083
4.163500419623101
4.145037003128072
4.138882530963089
4.163500419623101
4.2065817247780855
4.292744335088111
4.354289056738125
4.40352483405812
4.40352483405812
4.397370361893111
4.354289056738125
4.255817502098108
4.138882530963089
4.058874392818074
4.065028864983084
4.095801225808078
4.120419114468088
4.1327280587980795
4.145037003128072
4.145037003128072
4.163500419623101
4.157345947458091
4.163500419623101
4.157345947458091
4.169654891788083
4.169654891788083
4.169654891788083
4.169654891788083
4.163500419623101
4.163500419623101
4.1758093639530935
4.1758093639530935
4.181963836118102
4.1758093639530935
4.181963836118102
4.1758093639530935
4.1758093639530935
4.1758093639530935
4.181963836118102
4.181963836118102
4.188118308283084
4.188118308283084
4.188118308283084
4.1942727804480935
4.2065817247780855
4.1942727804480935
4.1942727804480935
4.200427252613103
4.212736196943095
4.212736196943095
4.225045141273086
4.225045141273086
4.231199613438097
4.237354085603107
4.243508557768089
4.261971974263091
4.261971974263091
4.2681264464281
4.27428091859311
4.2865898629231
4.27428091859311
4.27428091859311
4.2681264464281
4.212736196943095
4.280435390758092
4.292744335088111
4.2865898629231
4.2681264464281
4.169654891788083
4.1758093639530935
4.218890669108104
4.200427252613103
4.1942727804480935
4.181963836118102
4.163500419623101
4.157345947458091
4.120419114468088
4.120419114468088
4.120419114468088
4.120419114468088
4.12657358663307
4.1327280587980795
4.12657358663307
4.1327280587980795
4.1327280587980795
4.1327280587980795
4.1327280587980795
4.138882530963089
4.138882530963089
4.145037003128072
4.145037003128072
4.163500419623101
4.151191475293081
4.1327280587980795
4.145037003128072
4.151191475293081
4.151191475293081
4.145037003128072
4.157345947458091
4.151191475293081
4.151191475293081
4.157345947458091
4.157345947458091
4.157345947458091
4.163500419623101
4.163500419623101
4.163500419623101
4.157345947458091
4.157345947458091
4.163500419623101
4.157345947458091
4.157345947458091
4.157345947458091
4.163500419623101
4.151191475293081
4.151191475293081
4.157345947458091
4.157345947458091
4.157345947458091
4.151191475293081
4.157345947458091
4.157345947458091
4.163500419623101
4.157345947458091
4.151191475293081
4.151191475293081
4.157345947458091
4.157345947458091
4.157345947458091
4.157345947458091
4.151191475293081
4.145037003128072
4.157345947458091
4.169654891788083
4.163500419623101
4.163500419623101
4.157345947458091
4.163500419623101
4.157345947458091
4.151191475293081
4.163500419623101
4.163500419623101
4.1758093639530935
4.169654891788083
4.1758093639530935
4.169654891788083
4.163500419623101
4.1758093639530935
4.181963836118102
4.188118308283084
4.1758093639530935
4.188118308283084
4.181963836118102
4.1758093639530935
4.181963836118102
4.181963836118102
4.188118308283084
4.1942727804480935
4.1942727804480935
4.188118308283084
4.1942727804480935
4.1942727804480935
4.188118308283084
4.188118308283084
4.1758093639530935
4.169654891788083
4.163500419623101
4.169654891788083
4.169654891788083
4.163500419623101
4.157345947458091
4.163500419623101
4.163500419623101
4.151191475293081
4.163500419623101
4.157345947458091
4.151191475293081
4.12657358663307
4.108110170138069
4.120419114468088
4.1758093639530935
4.243508557768089
4.3112077515831135
4.366598001068117
4.366598001068117
4.305053279418103
4.335825640243124
4.27428091859311
4.1758093639530935
4.077337809313075
4.065028864983084
4.095801225808078
4.114264642303079
4.1327280587980795
4.145037003128072
4.157345947458091
4.157345947458091
4.157345947458091
4.157345947458091
4.163500419623101
4.157345947458091
4.163500419623101
4.163500419623101
4.157345947458091
4.163500419623101
4.163500419623101
4.163500419623101
4.169654891788083
4.169654891788083
4.1758093639530935
4.1758093639530935
4.1758093639530935
4.181963836118102
4.1758093639530935
4.1758093639530935
4.188118308283084
4.181963836118102
4.1758093639530935
4.181963836118102
4.188118308283084
4.188118308283084
4.181963836118102
4.200427252613103
4.200427252613103
4.200427252613103
4.1942727804480935
4.218890669108104
4.218890669108104
4.218890669108104
4.231199613438097
4.237354085603107
4.243508557768089
4.255817502098108
4.255817502098108
4.261971974263091
4.27428091859311
4.2681264464281
4.27428091859311
4.2681264464281
4.27428091859311
4.27428091859311
4.255817502098108
4.261971974263091
4.255817502098108
4.237354085603107
4.225045141273086
4.212736196943095
4.1942727804480935
4.169654891788083
4.181963836118102
4.157345947458091
4.151191475293081
4.145037003128072
4.145037003128072
4.1327280587980795
4.1327280587980795
4.1327280587980795
4.1327280587980795
4.138882530963089
4.138882530963089
4.12657358663307
4.138882530963089
4.1327280587980795
4.138882530963089
4.1327280587980795
4.145037003128072
4.138882530963089
4.145037003128072
4.138882530963089
4.145037003128072
4.151191475293081
4.163500419623101
4.151191475293081
4.169654891788083
4.157345947458091
4.151191475293081
4.157345947458091
4.163500419623101
4.151191475293081
4.157345947458091
4.157345947458091
4.157345947458091
4.151191475293081
4.157345947458091
4.138882530963089
4.1327280587980795
4.138882530963089
4.1327280587980795
