4.323516695913104
4.335825640243124
4.329671168078114
4.335825640243124
4.348134584573115
4.348134584573115
4.341980112408105
4.329671168078114
4.3173622237481215
4.329671168078114
4.329671168078114
4.329671168078114
4.329671168078114
4.335825640243124
4.329671168078114
4.3173622237481215
4.323516695913104
4.329671168078114
4.329671168078114
4.3173622237481215
4.27428091859311
4.237354085603107
4.27428091859311
4.3173622237481215
4.354289056738125
4.348134584573115
4.323516695913104
4.3173622237481215
4.323516695913104
4.323516695913104
4.323516695913104
4.3173622237481215
4.3112077515831135
4.3173622237481215
4.3173622237481215
4.329671168078114
4.329671168078114
4.3112077515831135
4.3173622237481215
4.3173622237481215
4.323516695913104
4.3173622237481215
4.3173622237481215
4.3173622237481215
4.3173622237481215
4.329671168078114
4.323516695913104
4.3112077515831135
4.323516695913104
4.3173622237481215
4.329671168078114
4.335825640243124
4.341980112408105
4.323516695913104
4.335825640243124
4.323516695913104
4.323516695913104
4.329671168078114
4.323516695913104
4.27428091859311
4.3727524732331275
4.385061417563119
4.360443528903107
4.323516695913104
4.348134584573115
4.354289056738125
4.354289056738125
4.354289056738125
4.354289056738125
4.354289056738125
4.335825640243124
4.341980112408105
4.341980112408105
4.341980112408105
4.341980112408105
4.348134584573115
4.348134584573115
4.335825640243124
4.341980112408105
4.354289056738125
4.341980112408105
4.329671168078114
4.329671168078114
4.323516695913104
4.341980112408105
4.341980112408105
4.335825640243124
4.341980112408105
4.341980112408105
4.348134584573115
4.348134584573115
4.354289056738125
4.360443528903107
4.385061417563119
4.428142722718132
4.477378500038126
4.471224027873144
4.440451667048122
4.366598001068117
4.280435390758092
4.1942727804480935
4.145037003128072
4.181963836118102
4.249663029933098
4.305053279418103
4.348134584573115
4.360443528903107
4.354289056738125
4.341980112408105
4.335825640243124
4.348134584573115
4.348134584573115
4.3727524732331275
4.3727524732331275
4.360443528903107
4.354289056738125
4.348134584573115
4.354289056738125
4.3727524732331275
4.37890694539811
4.37890694539811
4.3727524732331275
4.354289056738125
4.37890694539811
4.366598001068117
4.360443528903107
4.360443528903107
4.360443528903107
4.329671168078114
4.335825640243124
4.3727524732331275
4.37890694539811
4.3727524732331275
4.37890694539811
4.40352483405812
4.391215889728128
4.37890694539811
4.37890694539811
4.354289056738125
4.360443528903107
4.385061417563119
4.40352483405812
4.40967930622313
4.40967930622313
4.40352483405812
4.40352483405812
4.397370361893111
4.40352483405812
4.40352483405812
4.40352483405812
4.421988250553122
4.421988250553122
4.415833778388112
4.421988250553122
4.440451667048122
4.446606139213133
4.440451667048122
4.434297194883113
4.440451667048122
4.465069555708134
4.465069555708134
4.465069555708134
4.465069555708134
4.477378500038126
4.471224027873144
4.471224027873144
4.477378500038126
4.477378500038126
4.477378500038126
4.465069555708134
4.452760611378115
4.446606139213133
4.446606139213133
4.421988250553122
4.391215889728128
4.37890694539811
4.385061417563119
4.37890694539811
4.366598001068117
4.360443528903107
4.348134584573115
4.305053279418103
4.354289056738125
4.354289056738125
4.348134584573115
4.341980112408105
4.348134584573115
4.323516695913104
4.292744335088111
4.3112077515831135
4.323516695913104
4.329671168078114
4.3112077515831135
4.3112077515831135
4.3173622237481215
4.329671168078114
4.329671168078114
4.323516695913104
4.335825640243124
4.329671168078114
4.329671168078114
4.329671168078114
4.3112077515831135
4.3173622237481215
4.3173622237481215
4.3112077515831135
4.3112077515831135
4.3173622237481215
4.3173622237481215
4.3173622237481215
4.323516695913104
4.329671168078114
4.323516695913104
4.323516695913104
4.323516695913104
4.329671168078114
4.3173622237481215
4.323516695913104
4.329671168078114
4.329671168078114
4.335825640243124
4.329671168078114
4.323516695913104
4.323516695913104
4.3173622237481215
4.3173622237481215
4.323516695913104
4.323516695913104
4.329671168078114
4.3173622237481215
4.3173622237481215
4.3112077515831135
4.3112077515831135
4.335825640243124
4.323516695913104
4.329671168078114
4.3112077515831135
4.3173622237481215
4.3173622237481215
4.329671168078114
4.335825640243124
4.335825640243124
4.335825640243124
4.341980112408105
4.329671168078114
4.335825640243124
4.329671168078114
4.329671168078114
4.329671168078114
4.3112077515831135
4.298898807253093
4.3112077515831135
4.335825640243124
4.348134584573115
4.348134584573115
4.348134584573115
4.366598001068117
4.341980112408105
4.292744335088111
4.354289056738125
4.360443528903107
4.348134584573115
4.348134584573115
4.354289056738125
4.360443528903107
4.341980112408105
4.3112077515831135
4.335825640243124
4.335825640243124
4.335825640243124
4.329671168078114
4.329671168078114
4.3173622237481215
4.305053279418103
4.323516695913104
4.341980112408105
4.335825640243124
4.335825640243124
4.335825640243124
4.335825640243124
4.341980112408105
4.329671168078114
4.335825640243124
4.329671168078114
4.335825640243124
4.354289056738125
4.354289056738125
4.354289056738125
4.335825640243124
4.329671168078114
4.329671168078114
4.323516695913104
4.329671168078114
4.329671168078114
4.329671168078114
4.335825640243124
4.360443528903107
4.3727524732331275
4.3727524732331275
4.421988250553122
4.446606139213133
4.452760611378115
4.385061417563119
4.231199613438097
4.218890669108104
4.1327280587980795
4.120419114468088
4.151191475293081
4.188118308283084
4.231199613438097
4.2681264464281
4.2865898629231
4.2865898629231
4.292744335088111
4.292744335088111
4.298898807253093
4.292744335088111
4.2865898629231
4.280435390758092
4.280435390758092
4.2865898629231
4.2865898629231
4.2865898629231
4.292744335088111
4.292744335088111
4.298898807253093
4.292744335088111
4.280435390758092
4.2681264464281
4.280435390758092
4.298898807253093
4.3112077515831135
4.298898807253093
4.3112077515831135
4.341980112408105
4.323516695913104
4.305053279418103
4.3173622237481215
4.323516695913104
4.329671168078114
4.3173622237481215
4.3173622237481215
4.3112077515831135
4.298898807253093
4.305053279418103
4.329671168078114
4.329671168078114
4.329671168078114
4.341980112408105
4.354289056738125
4.348134584573115
4.341980112408105
4.335825640243124
4.341980112408105
4.348134584573115
4.348134584573115
4.354289056738125
4.366598001068117
4.3727524732331275
4.366598001068117
4.391215889728128
4.391215889728128
4.37890694539811
4.391215889728128
4.40967930622313
4.40967930622313
4.397370361893111
4.40352483405812
4.415833778388112
4.421988250553122
4.421988250553122
4.421988250553122
4.421988250553122
4.421988250553122
4.40967930622313
4.385061417563119
4.391215889728128
4.385061417563119
4.397370361893111
4.397370361893111
4.37890694539811
4.366598001068117
4.341980112408105
4.329671168078114
4.329671168078114
4.323516695913104
4.335825640243124
4.341980112408105
4.329671168078114
4.3173622237481215
4.305053279418103
4.298898807253093
4.27428091859311
4.2865898629231
4.305053279418103
4.3173622237481215
4.3173622237481215
4.3112077515831135
4.298898807253093
4.298898807253093
4.305053279418103
4.3173622237481215
4.323516695913104
4.323516695913104
4.323516695913104
4.329671168078114
4.329671168078114
4.335825640243124
4.335825640243124
4.341980112408105
4.341980112408105
4.335825640243124
4.354289056738125
4.341980112408105
4.329671168078114
4.323516695913104
4.329671168078114
4.323516695913104
4.3173622237481215
4.3173622237481215
4.341980112408105
4.354289056738125
4.341980112408105
4.335825640243124
4.3173622237481215
4.305053279418103
4.360443528903107
4.354289056738125
4.348134584573115
4.3173622237481215
4.292744335088111
4.3173622237481215
4.341980112408105
4.323516695913104
4.3112077515831135
4.298898807253093
4.3173622237481215
4.329671168078114
4.335825640243124
4.329671168078114
4.323516695913104
4.335825640243124
4.329671168078114
4.329671168078114
4.335825640243124
4.323516695913104
4.323516695913104
4.323516695913104
4.3173622237481215
4.3112077515831135
4.323516695913104
4.329671168078114
4.348134584573115
4.341980112408105
4.335825640243124
4.329671168078114
4.335825640243124
4.323516695913104
4.335825640243124
4.335825640243124
4.341980112408105
4.335825640243124
4.335825640243124
4.323516695913104
4.341980112408105
4.360443528903107
4.354289056738125
4.354289056738125
4.335825640243124
4.3173622237481215
4.298898807253093
4.3112077515831135
4.341980112408105
4.360443528903107
4.360443528903107
4.354289056738125
4.348134584573115
4.348134584573115
4.341980112408105
4.341980112408105
4.335825640243124
4.3173622237481215
4.3173622237481215
4.323516695913104
4.335825640243124
4.348134584573115
4.335825640243124
4.341980112408105
4.360443528903107
4.37890694539811
4.3727524732331275
4.366598001068117
4.360443528903107
4.360443528903107
4.354289056738125
4.348134584573115
4.360443528903107
4.3727524732331275
4.385061417563119
4.391215889728128
4.40352483405812
4.434297194883113
4.458915083543125
4.446606139213133
4.385061417563119
4.292744335088111
4.218890669108104
4.163500419623101
4.145037003128072
4.1758093639530935
4.243508557768089
4.2865898629231
4.3112077515831135
4.348134584573115
4.366598001068117
4.354289056738125
4.341980112408105
4.354289056738125
4.360443528903107
4.348134584573115
4.348134584573115
4.354289056738125
4.354289056738125
4.348134584573115
4.360443528903107
4.348134584573115
4.335825640243124
4.335825640243124
4.335825640243124
4.341980112408105
4.341980112408105
4.335825640243124
4.335825640243124
4.323516695913104
4.329671168078114
4.341980112408105
4.348134584573115
4.348134584573115
4.360443528903107
4.335825640243124
4.329671168078114
4.354289056738125
4.360443528903107
4.354289056738125
4.360443528903107
4.354289056738125
4.354289056738125
4.329671168078114
4.391215889728128
4.397370361893111
4.3727524732331275
4.366598001068117
4.360443528903107
4.366598001068117
4.341980112408105
4.3173622237481215
4.354289056738125
4.385061417563119
4.37890694539811
4.3727524732331275
4.37890694539811
4.385061417563119
4.385061417563119
4.391215889728128
4.385061417563119
4.397370361893111
4.421988250553122
4.421988250553122
4.434297194883113
4.428142722718132
4.37890694539811
4.421988250553122
4.446606139213133
4.452760611378115
4.452760611378115
4.446606139213133
4.434297194883113
4.434297194883113
4.37890694539811
4.3727524732331275
4.3727524732331275
4.366598001068117
4.37890694539811
4.366598001068117
4.366598001068117
4.354289056738125
4.341980112408105
4.335825640243124
4.329671168078114
4.335825640243124
4.341980112408105
4.360443528903107
4.335825640243124
4.3173622237481215
4.3173622237481215
4.3173622237481215
4.323516695913104
4.329671168078114
4.329671168078114
4.323516695913104
4.3173622237481215
4.305053279418103
4.323516695913104
4.329671168078114
4.341980112408105
4.335825640243124
4.341980112408105
4.335825640243124
4.335825640243124
4.348134584573115
4.335825640243124
4.329671168078114
4.341980112408105
4.348134584573115
4.329671168078114
4.335825640243124
4.335825640243124
4.323516695913104
4.323516695913104
4.341980112408105
4.348134584573115
4.348134584573115
4.335825640243124
4.3173622237481215
4.3173622237481215
4.3112077515831135
4.3112077515831135
4.3112077515831135
4.3112077515831135
4.329671168078114
4.348134584573115
4.335825640243124
4.323516695913104
4.305053279418103
4.323516695913104
4.329671168078114
4.335825640243124
4.341980112408105
4.341980112408105
4.348134584573115
4.335825640243124
4.335825640243124
4.335825640243124
4.329671168078114
4.335825640243124
4.335825640243124
4.341980112408105
4.329671168078114
4.323516695913104
4.3173622237481215
4.3112077515831135
4.3173622237481215
4.329671168078114
4.335825640243124
4.335825640243124
4.329671168078114
4.329671168078114
4.341980112408105
4.323516695913104
4.305053279418103
4.3173622237481215
4.3173622237481215
4.323516695913104
4.341980112408105
4.348134584573115
4.348134584573115
4.341980112408105
4.341980112408105
4.323516695913104
4.298898807253093
4.3727524732331275
4.341980112408105
4.3173622237481215
4.323516695913104
4.341980112408105
4.335825640243124
4.341980112408105
4.341980112408105
4.348134584573115
4.348134584573115
4.348134584573115
4.341980112408105
4.354289056738125
4.341980112408105
4.341980112408105
4.335825640243124
4.341980112408105
4.341980112408105
4.348134584573115
4.348134584573115
4.354289056738125
4.348134584573115
4.335825640243124
4.335825640243124
4.341980112408105
4.341980112408105
4.341980112408105
4.341980112408105
4.341980112408105
4.348134584573115
4.3727524732331275
4.3727524732331275
4.366598001068117
4.385061417563119
4.40967930622313
4.440451667048122
4.440451667048122
4.415833778388112
4.354289056738125
4.2681264464281
4.188118308283084
4.151191475293081
4.151191475293081
4.212736196943095
4.255817502098108
4.2865898629231
4.323516695913104
4.341980112408105
4.354289056738125
4.335825640243124
4.335825640243124
4.335825640243124
4.335825640243124
4.341980112408105
4.341980112408105
4.335825640243124
4.335825640243124
4.329671168078114
4.341980112408105
4.348134584573115
4.335825640243124
4.335825640243124
4.329671168078114
4.335825640243124
4.341980112408105
4.341980112408105
4.348134584573115
4.348134584573115
4.354289056738125
4.354289056738125
4.341980112408105
4.341980112408105
4.341980112408105
4.323516695913104
4.335825640243124
4.348134584573115
4.360443528903107
4.360443528903107
4.354289056738125
4.360443528903107
4.37890694539811
4.3727524732331275
4.354289056738125
4.360443528903107
4.3727524732331275
4.385061417563119
4.3727524732331275
4.366598001068117
4.3727524732331275
4.391215889728128
4.37890694539811
4.366598001068117
4.3727524732331275
4.397370361893111
4.415833778388112
4.40967930622313
4.421988250553122
4.415833778388112
4.434297194883113
4.428142722718132
4.428142722718132
4.428142722718132
4.40967930622313
4.40352483405812
4.428142722718132
4.452760611378115
4.465069555708134
4.458915083543125
4.458915083543125
4.440451667048122
4.458915083543125
4.452760611378115
4.428142722718132
4.415833778388112
4.40352483405812
4.37890694539811
4.366598001068117
4.360443528903107
4.354289056738125
4.354289056738125
4.348134584573115
4.3112077515831135
4.348134584573115
4.348134584573115
4.329671168078114
4.3173622237481215
4.292744335088111
4.27428091859311
4.305053279418103
4.329671168078114
4.323516695913104
4.305053279418103
4.305053279418103
4.305053279418103
4.305053279418103
4.323516695913104
4.3173622237481215
4.323516695913104
4.329671168078114
4.329671168078114
4.323516695913104
4.329671168078114
4.329671168078114
4.3173622237481215
4.3173622237481215
4.3173622237481215
4.323516695913104
4.3173622237481215
4.323516695913104
4.3173622237481215
4.323516695913104
4.329671168078114
4.329671168078114
4.323516695913104
4.3173622237481215
4.3173622237481215
4.329671168078114
4.323516695913104
4.305053279418103
4.305053279418103
4.292744335088111
4.298898807253093
4.298898807253093
4.305053279418103
4.3173622237481215
4.323516695913104
4.323516695913104
4.3173622237481215
4.323516695913104
4.298898807253093
4.27428091859311
4.2865898629231
4.3173622237481215
4.335825640243124
4.341980112408105
4.329671168078114
4.329671168078114
4.329671168078114
4.323516695913104
4.329671168078114
4.323516695913104
4.323516695913104
4.335825640243124
4.3112077515831135
4.292744335088111
4.305053279418103
4.298898807253093
4.292744335088111
4.292744335088111
4.3112077515831135
4.3173622237481215
4.3112077515831135
4.3112077515831135
4.3112077515831135
4.3173622237481215
4.329671168078114
4.3173622237481215
4.329671168078114
4.323516695913104
4.3173622237481215
4.348134584573115
4.354289056738125
4.348134584573115
4.341980112408105
4.329671168078114
4.298898807253093
4.2865898629231
4.298898807253093
4.305053279418103
4.3112077515831135
4.323516695913104
4.341980112408105
4.292744335088111
4.3112077515831135
4.348134584573115
4.360443528903107
4.360443528903107
4.335825640243124
4.329671168078114
4.323516695913104
4.292744335088111
4.305053279418103
4.298898807253093
4.298898807253093
4.2865898629231
4.292744335088111
4.298898807253093
4.292744335088111
4.292744335088111
4.298898807253093
4.298898807253093
4.298898807253093
4.305053279418103
4.305053279418103
4.305053279418103
4.292744335088111
4.305053279418103
4.3112077515831135
4.335825640243124
4.348134584573115
4.366598001068117
4.415833778388112
4.434297194883113
4.40352483405812
4.477378500038126
4.385061417563119
4.2681264464281
4.1942727804480935
4.138882530963089
4.1327280587980795
4.2065817247780855
4.218890669108104
4.261971974263091
4.3112077515831135
4.305053279418103
4.292744335088111
4.292744335088111
4.298898807253093
4.292744335088111
4.292744335088111
4.3173622237481215
4.3173622237481215
4.3173622237481215
4.3173622237481215
4.3173622237481215
4.3112077515831135
4.323516695913104
4.323516695913104
4.335825640243124
4.329671168078114
4.335825640243124
4.329671168078114
4.323516695913104
4.3173622237481215
4.298898807253093
4.305053279418103
4.323516695913104
4.348134584573115
4.360443528903107
4.360443528903107
4.354289056738125
4.341980112408105
4.335825640243124
4.341980112408105
4.348134584573115
4.348134584573115
4.335825640243124
4.3173622237481215
4.329671168078114
4.354289056738125
4.3727524732331275
4.366598001068117
4.366598001068117
4.360443528903107
4.354289056738125
4.348134584573115
4.360443528903107
4.37890694539811
4.385061417563119
4.397370361893111
4.397370361893111
4.40967930622313
4.40352483405812
4.391215889728128
4.391215889728128
4.391215889728128
4.391215889728128
4.415833778388112
4.452760611378115
4.458915083543125
4.446606139213133
4.440451667048122
4.452760611378115
4.446606139213133
4.446606139213133
4.440451667048122
4.440451667048122
4.434297194883113
4.428142722718132
4.415833778388112
4.40967930622313
4.397370361893111
4.37890694539811
4.3727524732331275
4.366598001068117
4.348134584573115
4.341980112408105
4.335825640243124
4.329671168078114
4.323516695913104
4.335825640243124
4.3173622237481215
4.3112077515831135
4.298898807253093
4.305053279418103
4.305053279418103
4.280435390758092
4.261971974263091
4.249663029933098
4.255817502098108
4.292744335088111
4.3112077515831135
4.305053279418103
4.3112077515831135
4.323516695913104
4.3173622237481215
4.323516695913104
4.329671168078114
4.3112077515831135
4.3112077515831135
4.329671168078114
4.329671168078114
4.348134584573115
4.335825640243124
4.323516695913104
4.323516695913104
4.323516695913104
4.3173622237481215
4.323516695913104
4.3112077515831135
4.3173622237481215
4.3173622237481215
4.3173622237481215
4.3112077515831135
4.3112077515831135
4.280435390758092
4.354289056738125
4.366598001068117
4.329671168078114
4.298898807253093
4.3112077515831135
4.3173622237481215
4.323516695913104
4.305053279418103
4.3112077515831135
4.3112077515831135
4.305053279418103
4.305053279418103
4.305053279418103
4.3112077515831135
4.3112077515831135
4.3112077515831135
4.3173622237481215
4.3112077515831135
4.3173622237481215
4.323516695913104
4.329671168078114
4.323516695913104
4.3173622237481215
4.3173622237481215
4.305053279418103
4.292744335088111
4.292744335088111
4.3173622237481215
4.3173622237481215
4.323516695913104
4.329671168078114
4.323516695913104
4.323516695913104
4.305053279418103
4.3112077515831135
4.3173622237481215
4.323516695913104
4.3112077515831135
4.323516695913104
4.323516695913104
4.3173622237481215
4.3112077515831135
4.3173622237481215
4.323516695913104
4.335825640243124
4.3173622237481215
4.3173622237481215
4.323516695913104
4.3173622237481215
4.323516695913104
4.335825640243124
4.341980112408105
4.335825640243124
4.323516695913104
4.3112077515831135
4.3112077515831135
4.323516695913104
4.329671168078114
4.329671168078114
4.323516695913104
4.329671168078114
4.323516695913104
4.323516695913104
4.323516695913104
4.323516695913104
4.3173622237481215
4.3173622237481215
4.3173622237481215
4.3112077515831135
4.305053279418103
4.305053279418103
4.305053279418103
4.3112077515831135
4.3173622237481215
4.3173622237481215
4.298898807253093
4.298898807253093
4.3173622237481215
4.329671168078114
4.329671168078114
4.323516695913104
4.335825640243124
4.348134584573115
4.3727524732331275
4.385061417563119
4.428142722718132
4.440451667048122
4.440451667048122
4.385061417563119
4.298898807253093
4.2065817247780855
4.138882530963089
4.138882530963089
4.188118308283084
4.249663029933098
4.2865898629231
4.305053279418103
4.3173622237481215
4.329671168078114
4.335825640243124
4.335825640243124
4.329671168078114
4.323516695913104
4.323516695913104
4.3173622237481215
4.3173622237481215
4.3173622237481215
4.323516695913104
4.323516695913104
4.3173622237481215
4.323516695913104
4.305053279418103
4.292744335088111
4.305053279418103
4.323516695913104
4.335825640243124
4.348134584573115
4.335825640243124
4.335825640243124
4.329671168078114
4.3112077515831135
4.298898807253093
4.360443528903107
4.360443528903107
4.360443528903107
4.366598001068117
4.348134584573115
4.3112077515831135
4.3112077515831135
4.335825640243124
4.348134584573115
4.348134584573115
4.360443528903107
4.341980112408105
4.354289056738125
4.348134584573115
4.360443528903107
4.360443528903107
4.354289056738125
4.3727524732331275
4.37890694539811
4.366598001068117
4.366598001068117
4.366598001068117
4.366598001068117
4.3727524732331275
4.385061417563119
4.40967930622313
4.40967930622313
4.415833778388112
4.40352483405812
4.40967930622313
4.415833778388112
4.40352483405812
4.397370361893111
4.397370361893111
4.421988250553122
4.440451667048122
4.40352483405812
4.391215889728128
4.452760611378115
4.446606139213133
4.440451667048122
4.421988250553122
4.415833778388112
4.397370361893111
4.329671168078114
4.3173622237481215
4.329671168078114
4.323516695913104
4.305053279418103
4.298898807253093
4.305053279418103
4.3112077515831135
4.298898807253093
4.305053279418103
4.298898807253093
4.298898807253093
4.298898807253093
4.305053279418103
4.305053279418103
4.305053279418103
4.298898807253093
4.298898807253093
4.292744335088111
4.292744335088111
4.292744335088111
4.292744335088111
4.292744335088111
4.3112077515831135
4.305053279418103
4.298898807253093
4.298898807253093
4.27428091859311
4.27428091859311
4.280435390758092
4.305053279418103
4.329671168078114
4.348134584573115
4.341980112408105
4.335825640243124
4.335825640243124
4.323516695913104
4.323516695913104
4.323516695913104
4.323516695913104
4.329671168078114
4.335825640243124
4.329671168078114
4.3173622237481215
4.3173622237481215
4.298898807253093
4.298898807253093
4.305053279418103
4.3173622237481215
4.323516695913104
4.329671168078114
4.3173622237481215
4.3173622237481215
4.323516695913104
4.329671168078114
4.305053279418103
4.298898807253093
4.329671168078114
4.323516695913104
4.3173622237481215
4.323516695913104
4.335825640243124
4.329671168078114
4.323516695913104
4.305053279418103
4.298898807253093
4.3112077515831135
4.3112077515831135
4.305053279418103
4.3112077515831135
4.3173622237481215
4.323516695913104
4.335825640243124
4.341980112408105
4.335825640243124
4.329671168078114
4.3173622237481215
4.280435390758092
4.3112077515831135
4.292744335088111
4.3112077515831135
4.3112077515831135
4.305053279418103
4.298898807253093
4.3112077515831135
4.323516695913104
4.329671168078114
4.329671168078114
4.335825640243124
4.329671168078114
4.329671168078114
4.329671168078114
4.323516695913104
4.335825640243124
4.335825640243124
4.341980112408105
4.348134584573115
4.335825640243124
4.335825640243124
4.329671168078114
4.3173622237481215
4.323516695913104
4.335825640243124
4.3112077515831135
4.298898807253093
4.305053279418103
4.3173622237481215
4.3173622237481215
4.298898807253093
4.292744335088111
4.305053279418103
4.3173622237481215
4.329671168078114
4.3173622237481215
4.3112077515831135
4.3112077515831135
4.3173622237481215
4.323516695913104
4.3173622237481215
4.323516695913104
4.3173622237481215
4.305053279418103
4.298898807253093
4.292744335088111
4.305053279418103
4.329671168078114
4.354289056738125
4.397370361893111
4.428142722718132
4.434297194883113
4.40967930622313
4.360443528903107
4.27428091859311
4.1758093639530935
4.12657358663307
4.108110170138069
4.151191475293081
4.2065817247780855
4.255817502098108
4.305053279418103
4.329671168078114
4.335825640243124
4.323516695913104
4.323516695913104
4.3173622237481215
4.3112077515831135
4.3112077515831135
4.3173622237481215
4.329671168078114
4.323516695913104
4.3173622237481215
4.3173622237481215
4.3112077515831135
4.298898807253093
4.305053279418103
4.3173622237481215
4.323516695913104
4.329671168078114
4.329671168078114
4.323516695913104
4.3173622237481215
4.329671168078114
4.335825640243124
4.335825640243124
4.3173622237481215
4.298898807253093
4.305053279418103
4.3112077515831135
4.3112077515831135
4.323516695913104
4.329671168078114
4.329671168078114
4.3112077515831135
4.3112077515831135
4.3173622237481215
4.3173622237481215
4.323516695913104
4.329671168078114
4.329671168078114
4.329671168078114
4.329671168078114
4.335825640243124
4.335825640243124
4.329671168078114
4.341980112408105
4.341980112408105
4.348134584573115
4.360443528903107
4.360443528903107
4.366598001068117
4.366598001068117
4.37890694539811
4.385061417563119
4.397370361893111
4.397370361893111
4.397370361893111
4.397370361893111
4.40967930622313
4.397370361893111
4.37890694539811
4.421988250553122
4.421988250553122
4.415833778388112
4.37890694539811
4.354289056738125
4.360443528903107
4.354289056738125
4.348134584573115
4.335825640243124
4.323516695913104
4.305053279418103
4.298898807253093
4.298898807253093
4.292744335088111
4.292744335088111
4.2865898629231
4.292744335088111
4.2865898629231
4.298898807253093
4.305053279418103
4.292744335088111
4.292744335088111
4.292744335088111
4.280435390758092
4.280435390758092
4.2865898629231
4.292744335088111
4.2865898629231
4.292744335088111
4.292744335088111
4.2865898629231
4.292744335088111
4.2865898629231
4.298898807253093
4.292744335088111
4.2681264464281
4.261971974263091
4.27428091859311
4.292744335088111
4.2865898629231
4.280435390758092
4.280435390758092
4.280435390758092
4.292744335088111
4.305053279418103
4.3173622237481215
4.305053279418103
4.3112077515831135
4.3112077515831135
4.305053279418103
4.305053279418103
4.298898807253093
4.305053279418103
4.305053279418103
4.298898807253093
4.292744335088111
4.298898807253093
4.292744335088111
4.298898807253093
4.3112077515831135
4.298898807253093
4.2865898629231
4.292744335088111
4.298898807253093
4.305053279418103
4.3112077515831135
4.3173622237481215
4.305053279418103
4.280435390758092
4.292744335088111
4.305053279418103
4.3112077515831135
4.3112077515831135
4.305053279418103
4.305053279418103
4.305053279418103
4.298898807253093
4.280435390758092
4.27428091859311
4.2865898629231
4.292744335088111
4.292744335088111
4.292744335088111
4.298898807253093
4.292744335088111
4.305053279418103
4.298898807253093
4.292744335088111
4.255817502098108
4.218890669108104
4.261971974263091
4.3112077515831135
4.335825640243124
4.329671168078114
4.3173622237481215
4.3173622237481215
4.323516695913104
4.323516695913104
4.3173622237481215
4.3173622237481215
4.3112077515831135
4.3173622237481215
4.3173622237481215
4.335825640243124
4.323516695913104
4.2865898629231
4.354289056738125
4.348134584573115
4.335825640243124
4.323516695913104
4.3112077515831135
4.305053279418103
4.298898807253093
4.27428091859311
4.298898807253093
4.3112077515831135
4.305053279418103
4.298898807253093
4.298898807253093
4.292744335088111
4.2865898629231
4.2865898629231
4.3173622237481215
4.323516695913104
4.3173622237481215
4.3173622237481215
4.3173622237481215
4.305053279418103
4.2681264464281
4.280435390758092
4.292744335088111
4.292744335088111
4.292744335088111
4.2865898629231
4.298898807253093
4.298898807253093
4.305053279418103
4.335825640243124
4.360443528903107
4.40967930622313
4.428142722718132
4.428142722718132
4.397370361893111
4.292744335088111
4.188118308283084
4.1327280587980795
4.108110170138069
4.169654891788083
4.243508557768089
4.2865898629231
4.3112077515831135
4.3112077515831135
4.305053279418103
4.305053279418103
4.305053279418103
4.3173622237481215
4.323516695913104
4.292744335088111
4.2681264464281
4.261971974263091
4.280435390758092
4.3112077515831135
4.329671168078114
4.341980112408105
4.348134584573115
4.341980112408105
4.341980112408105
4.329671168078114
4.329671168078114
4.323516695913104
4.335825640243124
4.3173622237481215
4.249663029933098
4.27428091859311
4.3173622237481215
4.335825640243124
4.360443528903107
4.348134584573115
4.341980112408105
4.335825640243124
4.335825640243124
4.335825640243124
4.335825640243124
4.329671168078114
4.348134584573115
4.3727524732331275
4.354289056738125
4.341980112408105
4.335825640243124
4.366598001068117
4.3727524732331275
4.3727524732331275
4.37890694539811
4.3727524732331275
4.360443528903107
4.360443528903107
4.366598001068117
4.360443528903107
4.354289056738125
4.366598001068117
4.3727524732331275
4.37890694539811
4.385061417563119
4.385061417563119
4.397370361893111
4.40967930622313
4.40967930622313
4.415833778388112
4.421988250553122
4.421988250553122
4.421988250553122
4.421988250553122
4.428142722718132
4.40352483405812
4.397370361893111
4.415833778388112
4.40967930622313
4.40967930622313
4.397370361893111
4.391215889728128
4.366598001068117
4.354289056738125
4.341980112408105
4.348134584573115
4.348134584573115
4.3112077515831135
4.237354085603107
4.255817502098108
4.292744335088111
4.323516695913104
4.3173622237481215
4.305053279418103
4.2865898629231
4.292744335088111
4.298898807253093
4.292744335088111
4.292744335088111
4.27428091859311
4.280435390758092
4.298898807253093
4.3112077515831135
4.305053279418103
4.2865898629231
4.243508557768089
4.329671168078114
4.280435390758092
4.243508557768089
4.2681264464281
4.2865898629231
4.27428091859311
4.280435390758092
4.305053279418103
4.329671168078114
4.3112077515831135
4.305053279418103
4.292744335088111
4.298898807253093
4.298898807253093
4.2865898629231
4.225045141273086
4.2065817247780855
4.243508557768089
4.305053279418103
4.335825640243124
4.323516695913104
4.3173622237481215
4.305053279418103
4.298898807253093
4.280435390758092
4.280435390758092
4.280435390758092
4.2065817247780855
4.151191475293081
4.108110170138069
4.083492281478085
4.089646753643067
4.083492281478085
4.083492281478085
4.083492281478085
4.089646753643067
4.083492281478085
4.065028864983084
4.058874392818074
4.065028864983084
4.065028864983084
4.058874392818074
4.058874392818074
4.0711833371480655
4.0711833371480655
4.077337809313075
4.0711833371480655
4.065028864983084
3.9911751990030497
4.015793087663061
4.089646753643067
4.095801225808078
4.108110170138069
4.108110170138069
4.108110170138069
4.108110170138069
4.089646753643067
4.083492281478085
4.058874392818074
4.058874392818074
4.0465654484880815
4.040410976323072
4.040410976323072
4.0711833371480655
4.052719920653064
4.065028864983084
4.083492281478085
4.077337809313075
4.077337809313075
4.077337809313075
4.077337809313075
4.0711833371480655
4.065028864983084
4.077337809313075
4.077337809313075
4.077337809313075
4.0465654484880815
4.015793087663061
4.028102031993082
4.052719920653064
4.101955697973087
4.108110170138069
4.101955697973087
4.095801225808078
4.089646753643067
4.028102031993082
4.009638615498079
4.052719920653064
4.108110170138069
4.138882530963089
4.120419114468088
4.108110170138069
4.095801225808078
4.0711833371480655
4.021947559828071
3.9788662546730578
3.9542483660130467
3.9234760051880535
3.8988581165280416
3.874240227868059
3.8680857557030492
3.8680857557030492
3.874240227868059
3.874240227868059
3.8680857557030492
3.874240227868059
3.8619312835380395
3.886549172198051
3.9296304773530633
3.948093893848065
3.9234760051880535
3.874240227868059
3.7696142010630322
3.671142646423015
3.5972889804430093
3.5665166196180156
3.560362147453006
3.578825563948007
3.671142646423015
3.75730525673304
3.7757686732280415
3.7265328959080186
3.7757686732280415
3.788077617558033
3.781923145393024
3.7696142010630322
3.720378423743037
3.7142239515780275
3.738841840238039
3.738841840238039
3.763459728898022
3.7696142010630322
3.781923145393024
3.781923145393024
3.781923145393024
3.788077617558033
3.800386561888025
3.8126955062180454
3.8434678670430373
3.8496223392080475
3.8434678670430373
3.8434678670430373
3.837313394878028
3.8619312835380395
3.8680857557030492
3.8680857557030492
3.8803947000330408
3.8988581165280416
3.9111670608580615
3.9173215330230438
3.8496223392080475
3.8188499783830263
3.886549172198051
3.9727117825080476
3.9911751990030497
3.9911751990030497
3.9973296711680604
3.9973296711680604
4.015793087663061
4.009638615498079
4.009638615498079
4.003484143333068
4.009638615498079
4.021947559828071
4.040410976323072
4.052719920653064
4.065028864983084
4.0711833371480655
4.089646753643067
4.083492281478085
4.095801225808078
4.101955697973087
4.095801225808078
4.040410976323072
4.120419114468088
4.169654891788083
4.157345947458091
4.1942727804480935
4.243508557768089
4.280435390758092
4.27428091859311
4.231199613438097
4.231199613438097
4.249663029933098
4.255817502098108
4.218890669108104
4.200427252613103
4.1942727804480935
4.188118308283084
4.1327280587980795
4.120419114468088
4.169654891788083
4.181963836118102
4.1758093639530935
4.145037003128072
4.1327280587980795
4.138882530963089
4.114264642303079
4.108110170138069
4.108110170138069
4.089646753643067
4.095801225808078
4.089646753643067
4.083492281478085
4.083492281478085
4.089646753643067
4.077337809313075
4.065028864983084
4.065028864983084
4.058874392818074
4.065028864983084
4.065028864983084
4.077337809313075
4.095801225808078
4.095801225808078
4.089646753643067
4.095801225808078
4.089646753643067
4.083492281478085
4.077337809313075
4.083492281478085
4.101955697973087
4.058874392818074
4.040410976323072
4.108110170138069
4.1758093639530935
4.181963836118102
4.157345947458091
4.12657358663307
4.120419114468088
4.114264642303079
4.095801225808078
4.089646753643067
4.089646753643067
4.0711833371480655
4.077337809313075
4.077337809313075
4.083492281478085
4.077337809313075
4.052719920653064
4.058874392818074
4.077337809313075
4.0711833371480655
4.009638615498079
4.101955697973087
4.101955697973087
4.101955697973087
4.095801225808078
4.089646753643067
4.083492281478085
4.089646753643067
4.052719920653064
4.0711833371480655
4.095801225808078
4.083492281478085
4.083492281478085
4.077337809313075
4.095801225808078
4.101955697973087
4.040410976323072
4.028102031993082
4.077337809313075
4.1758093639530935
4.2065817247780855
4.1758093639530935
4.157345947458091
4.145037003128072
4.145037003128072
4.145037003128072
4.138882530963089
4.120419114468088
4.114264642303079
4.101955697973087
4.095801225808078
4.083492281478085
4.077337809313075
4.0711833371480655
4.065028864983084
4.0465654484880815
4.034256504158063
4.028102031993082
4.021947559828071
4.009638615498079
3.9850207268380675
3.9665573103430654
3.948093893848065
3.9419394216830552
3.9542483660130467
3.9727117825080476
3.9973296711680604
3.9788662546730578
3.948093893848065
3.9357849495180455
3.9357849495180455
3.9296304773530633
3.9357849495180455
3.9357849495180455
3.9173215330230438
3.9173215330230438
3.9173215330230438
3.9050125886930522
3.837313394878028
3.8434678670430373
3.9296304773530633
3.9850207268380675
3.9973296711680604
3.9727117825080476
4.009638615498079
3.9973296711680604
3.9850207268380675
3.9850207268380675
3.9788662546730578
3.9788662546730578
3.9788662546730578
3.9727117825080476
3.9788662546730578
3.9788662546730578
3.9788662546730578
3.9850207268380675
3.9911751990030497
3.9973296711680604
4.003484143333068
4.028102031993082
4.083492281478085
4.120419114468088
4.114264642303079
4.052719920653064
3.9911751990030497
3.9111670608580615
3.8126955062180454
3.75730525673304
3.7757686732280415
3.8434678670430373
3.9173215330230438
3.948093893848065
3.9788662546730578
3.9788662546730578
3.9850207268380675
3.9911751990030497
3.9604028381780574
3.9173215330230438
3.9111670608580615
3.9727117825080476
4.052719920653064
4.0711833371480655
4.052719920653064
4.028102031993082
4.034256504158063
4.058874392818074
4.065028864983084
4.058874392818074
4.058874392818074
4.052719920653064
4.028102031993082
4.034256504158063
4.028102031993082
4.021947559828071
4.028102031993082
4.028102031993082
4.028102031993082
4.015793087663061
4.003484143333068
4.009638615498079
4.003484143333068
3.9973296711680604
3.9665573103430654
4.034256504158063
4.0465654484880815
4.003484143333068
3.9850207268380675
4.015793087663061
4.021947559828071
4.021947559828071
4.021947559828071
4.0465654484880815
4.108110170138069
4.108110170138069
4.089646753643067
4.058874392818074
4.114264642303079
4.1942727804480935
4.218890669108104
4.231199613438097
4.218890669108104
4.1942727804480935
4.2065817247780855
4.1942727804480935
4.181963836118102
4.163500419623101
4.169654891788083
4.188118308283084
4.188118308283084
4.1942727804480935
4.1942727804480935
4.188118308283084
4.188118308283084
4.181963836118102
4.188118308283084
4.188118308283084
4.169654891788083
4.163500419623101
4.163500419623101
4.163500419623101
4.157345947458091
4.145037003128072
4.145037003128072
4.1327280587980795
4.114264642303079
4.101955697973087
4.108110170138069
4.0711833371480655
3.9973296711680604
4.021947559828071
4.089646753643067
4.145037003128072
4.120419114468088
4.108110170138069
4.089646753643067
4.083492281478085
4.083492281478085
4.089646753643067
4.095801225808078
4.101955697973087
4.101955697973087
4.089646753643067
4.095801225808078
4.101955697973087
4.089646753643067
4.083492281478085
4.1327280587980795
4.12657358663307
4.108110170138069
4.101955697973087
4.095801225808078
4.120419114468088
4.12657358663307
4.1327280587980795
4.12657358663307
4.114264642303079
4.120419114468088
4.120419114468088
4.12657358663307
4.114264642303079
4.101955697973087
4.089646753643067
4.101955697973087
4.101955697973087
4.052719920653064
4.065028864983084
4.138882530963089
4.169654891788083
4.163500419623101
4.145037003128072
4.145037003128072
4.138882530963089
4.145037003128072
4.145037003128072
4.138882530963089
4.151191475293081
4.151191475293081
4.151191475293081
4.138882530963089
4.138882530963089
4.1327280587980795
4.1327280587980795
4.145037003128072
4.145037003128072
4.151191475293081
4.151191475293081
4.151191475293081
4.157345947458091
4.157345947458091
4.1327280587980795
4.138882530963089
4.138882530963089
4.138882530963089
4.145037003128072
4.145037003128072
4.157345947458091
4.157345947458091
4.1327280587980795
4.089646753643067
4.12657358663307
4.169654891788083
4.188118308283084
4.157345947458091
4.1327280587980795
4.077337809313075
4.157345947458091
4.181963836118102
4.1758093639530935
4.188118308283084
4.188118308283084
4.138882530963089
4.151191475293081
4.157345947458091
4.1758093639530935
4.200427252613103
4.212736196943095
4.225045141273086
4.225045141273086
4.231199613438097
4.237354085603107
4.243508557768089
4.249663029933098
4.255817502098108
4.27428091859311
4.27428091859311
4.2681264464281
4.261971974263091
4.261971974263091
4.261971974263091
4.255817502098108
4.243508557768089
4.249663029933098
4.237354085603107
4.1942727804480935
4.231199613438097
4.292744335088111
4.341980112408105
4.360443528903107
4.348134584573115
4.348134584573115
4.329671168078114
4.323516695913104
4.329671168078114
4.341980112408105
4.348134584573115
4.335825640243124
4.341980112408105
4.360443528903107
4.397370361893111
4.421988250553122
4.452760611378115
4.489687444368147
4.495841916533128
4.471224027873144
4.40352483405812
4.3173622237481215
4.237354085603107
4.181963836118102
4.1758093639530935
4.237354085603107
4.292744335088111
4.341980112408105
4.37890694539811
4.385061417563119
4.37890694539811
4.3727524732331275
4.37890694539811
4.360443528903107
4.415833778388112
4.37890694539811
4.3112077515831135
4.354289056738125
4.446606139213133
4.501996388698137
4.508150860863147
4.489687444368147
4.483532972203136
4.501996388698137
4.520459805193139
4.501996388698137
4.471224027873144
4.446606139213133
4.415833778388112
4.434297194883113
4.440451667048122
4.434297194883113
4.446606139213133
4.446606139213133
4.440451667048122
4.452760611378115
4.440451667048122
4.415833778388112
4.415833778388112
4.421988250553122
4.446606139213133
4.471224027873144
4.483532972203136
4.495841916533128
4.489687444368147
4.501996388698137
4.514305333028129
4.526614277358149
4.5327687495231315
4.54507769385315
4.551232166018132
4.557386638183142
4.575850054678144
4.575850054678144
4.569695582513134
4.526614277358149
4.495841916533128
4.538923221688139
4.606622415503137
4.637394776328158
4.618931359833156
4.612776887668146
4.618931359833156
4.6435492484931675
4.655858192823159
4.637394776328158
4.649703720658149
4.649703720658149
4.625085831998166
4.612776887668146
4.5943134711731455
4.575850054678144
4.508150860863147
4.538923221688139
4.5327687495231315
4.5327687495231315
4.526614277358149
4.508150860863147
4.495841916533128
4.489687444368147
4.477378500038126
4.458915083543125
4.446606139213133
4.446606139213133
4.477378500038126
4.471224027873144
4.440451667048122
4.434297194883113
4.385061417563119
4.341980112408105
4.385061417563119
4.446606139213133
4.477378500038126
4.465069555708134
4.428142722718132
4.421988250553122
4.434297194883113
4.434297194883113
4.440451667048122
4.452760611378115
4.465069555708134
4.471224027873144
4.452760611378115
4.452760611378115
4.477378500038126
4.483532972203136
4.489687444368147
4.489687444368147
4.495841916533128
4.508150860863147
4.508150860863147
4.501996388698137
4.489687444368147
4.501996388698137
4.508150860863147
4.514305333028129
4.526614277358149
4.526614277358149
4.538923221688139
4.538923221688139
4.557386638183142
4.575850054678144
4.551232166018132
4.526614277358149
4.526614277358149
4.526614277358149
4.526614277358149
4.538923221688139
4.557386638183142
4.551232166018132
4.501996388698137
4.471224027873144
4.514305333028129
4.557386638183142
4.569695582513134
4.54507769385315
4.563541110348153
4.551232166018132
4.526614277358149
4.501996388698137
4.495841916533128
4.501996388698137
4.501996388698137
4.508150860863147
4.483532972203136
4.477378500038126
4.471224027873144
4.483532972203136
4.495841916533128
4.495841916533128
4.489687444368147
4.483532972203136
4.495841916533128
4.489687444368147
4.477378500038126
4.458915083543125
4.471224027873144
4.489687444368147
4.483532972203136
4.489687444368147
4.495841916533128
4.495841916533128
4.483532972203136
4.483532972203136
4.477378500038126
4.483532972203136
4.495841916533128
4.471224027873144
4.471224027873144
4.452760611378115
4.40352483405812
4.40967930622313
4.465069555708134
4.514305333028129
4.526614277358149
4.538923221688139
4.563541110348153
4.551232166018132
4.54507769385315
4.538923221688139
4.526614277358149
4.526614277358149
4.557386638183142
4.5820045268431535
4.6004679433381535
4.588158999008135
4.551232166018132
4.526614277358149
4.520459805193139
4.526614277358149
4.538923221688139
4.5327687495231315
4.5327687495231315
4.520459805193139
4.458915083543125
4.538923221688139
4.563541110348153
4.569695582513134
4.514305333028129
4.514305333028129
4.526614277358149
4.538923221688139
4.538923221688139
4.501996388698137
4.5327687495231315
4.563541110348153
4.625085831998166
4.662012664988168
4.68047608148317
4.698939497978172
4.723557386638155
4.717402914473173
4.686630553648152
4.618931359833156
4.520459805193139
4.452760611378115
4.37890694539811
4.40352483405812
4.458915083543125
4.538923221688139
4.551232166018132
4.563541110348153
4.551232166018132
4.54507769385315
4.54507769385315
4.54507769385315
4.54507769385315
4.5327687495231315
4.54507769385315
4.538923221688139
4.538923221688139
4.54507769385315
4.5327687495231315
4.538923221688139
4.5327687495231315
4.538923221688139
4.54507769385315
4.557386638183142
4.569695582513134
4.575850054678144
4.5820045268431535
4.520459805193139
4.501996388698137
4.557386638183142
4.625085831998166
4.637394776328158
4.606622415503137
4.563541110348153
4.538923221688139
4.54507769385315
4.557386638183142
4.54507769385315
4.551232166018132
4.501996388698137
4.477378500038126
4.477378500038126
4.465069555708134
4.440451667048122
4.458915083543125
4.458915083543125
4.452760611378115
4.385061417563119
4.471224027873144
4.458915083543125
4.458915083543125
4.440451667048122
4.440451667048122
4.440451667048122
4.40967930622313
4.37890694539811
4.385061417563119
4.37890694539811
4.385061417563119
4.37890694539811
4.391215889728128
4.391215889728128
4.354289056738125
4.3112077515831135
4.335825640243124
4.40967930622313
4.440451667048122
4.428142722718132
4.421988250553122
4.40352483405812
4.391215889728128
4.37890694539811
4.366598001068117
4.335825640243124
4.323516695913104
4.3112077515831135
4.292744335088111
4.261971974263091
4.231199613438097
4.212736196943095
4.188118308283084
4.157345947458091
4.157345947458091
4.163500419623101
4.169654891788083
4.169654891788083
4.120419114468088
4.101955697973087
4.095801225808078
4.095801225808078
4.083492281478085
4.065028864983084
4.058874392818074
4.052719920653064
4.0465654484880815
4.034256504158063
4.028102031993082
4.101955697973087
4.157345947458091
4.145037003128072
4.108110170138069
4.083492281478085
4.0465654484880815
4.101955697973087
4.114264642303079
4.120419114468088
4.120419114468088
4.138882530963089
4.1327280587980795
4.077337809313075
4.065028864983084
4.089646753643067
4.083492281478085
4.083492281478085
4.083492281478085
4.108110170138069
4.101955697973087
4.089646753643067
4.083492281478085
4.0465654484880815
4.083492281478085
4.1327280587980795
4.163500419623101
4.151191475293081
4.138882530963089
4.1327280587980795
4.163500419623101
4.163500419623101
4.181963836118102
4.218890669108104
4.225045141273086
4.212736196943095
4.2065817247780855
4.188118308283084
4.212736196943095
4.292744335088111
4.292744335088111
4.261971974263091
4.249663029933098
4.249663029933098
4.243508557768089
4.27428091859311
4.305053279418103
4.3173622237481215
4.305053279418103
4.298898807253093
4.305053279418103
4.292744335088111
4.292744335088111
4.3112077515831135
4.323516695913104
4.3173622237481215
4.2865898629231
4.323516695913104
4.37890694539811
4.397370361893111
4.385061417563119
4.360443528903107
4.348134584573115
4.354289056738125
4.348134584573115
4.354289056738125
4.348134584573115
4.341980112408105
4.3112077515831135
4.298898807253093
4.341980112408105
4.360443528903107
4.3727524732331275
4.40352483405812
4.40352483405812
4.40352483405812
4.3727524732331275
4.360443528903107
4.366598001068117
4.354289056738125
4.360443528903107
4.366598001068117
4.37890694539811
4.37890694539811
4.40352483405812
4.415833778388112
4.440451667048122
4.446606139213133
4.452760611378115
4.415833778388112
4.37890694539811
4.446606139213133
4.489687444368147
4.514305333028129
4.477378500038126
4.434297194883113
4.434297194883113
4.428142722718132
4.434297194883113
4.421988250553122
4.421988250553122
4.421988250553122
4.428142722718132
4.434297194883113
4.440451667048122
4.452760611378115
4.458915083543125
4.495841916533128
4.551232166018132
4.606622415503137
4.6435492484931675
4.618931359833156
4.551232166018132
4.483532972203136
4.397370361893111
4.305053279418103
4.255817502098108
4.27428091859311
4.329671168078114
4.385061417563119
4.434297194883113
4.40967930622313
4.385061417563119
4.446606139213133
4.520459805193139
4.551232166018132
4.538923221688139
4.526614277358149
4.471224027873144
4.54507769385315
4.520459805193139
4.508150860863147
4.5327687495231315
4.54507769385315
4.54507769385315
4.538923221688139
4.526614277358149
4.5327687495231315
4.538923221688139
4.551232166018132
4.563541110348153
4.5820045268431535
4.6004679433381535
4.588158999008135
4.5820045268431535
4.563541110348153
4.557386638183142
4.563541110348153
4.551232166018132
4.551232166018132
4.557386638183142
4.569695582513134
4.5820045268431535
4.569695582513134
4.557386638183142
4.551232166018132
4.538923221688139
4.520459805193139
4.452760611378115
4.483532972203136
4.54507769385315
4.54507769385315
4.551232166018132
4.5327687495231315
4.508150860863147
4.557386638183142
4.588158999008135
4.569695582513134
4.563541110348153
4.5820045268431535
4.5820045268431535
4.5943134711731455
4.6004679433381535
4.612776887668146
4.618931359833156
4.625085831998166
4.612776887668146
4.606622415503137
4.618931359833156
4.631240304163148
4.637394776328158
4.637394776328158
4.637394776328158
4.637394776328158
4.637394776328158
4.625085831998166
4.612776887668146
4.575850054678144
4.557386638183142
4.557386638183142
4.54507769385315
4.526614277358149
4.526614277358149
4.495841916533128
4.557386638183142
4.6004679433381535
4.606622415503137
4.5943134711731455
4.588158999008135
4.569695582513134
4.557386638183142
4.54507769385315
4.538923221688139
4.54507769385315
4.551232166018132
4.5327687495231315
4.54507769385315
4.538923221688139
4.526614277358149
4.526614277358149
4.520459805193139
4.514305333028129
4.508150860863147
4.501996388698137
4.508150860863147
4.508150860863147
4.520459805193139
4.520459805193139
4.501996388698137
4.501996388698137
4.495841916533128
4.520459805193139
4.5327687495231315
4.526614277358149
4.520459805193139
4.520459805193139
4.526614277358149
4.520459805193139
4.471224027873144
4.465069555708134
4.514305333028129
4.557386638183142
4.557386638183142
4.54507769385315
4.5327687495231315
4.520459805193139
4.5327687495231315
4.5327687495231315
4.526614277358149
4.501996388698137
4.508150860863147
4.520459805193139
4.520459805193139
4.526614277358149
4.514305333028129
4.520459805193139
4.514305333028129
4.495841916533128
4.501996388698137
4.495841916533128
4.446606139213133
4.520459805193139
4.520459805193139
4.508150860863147
4.495841916533128
4.452760611378115
4.452760611378115
4.465069555708134
4.465069555708134
4.471224027873144
4.495841916533128
4.495841916533128
4.40352483405812
4.354289056738125
4.477378500038126
4.5327687495231315
4.538923221688139
4.508150860863147
4.483532972203136
4.477378500038126
4.458915083543125
4.421988250553122
4.428142722718132
4.440451667048122
4.440451667048122
4.446606139213133
4.446606139213133
4.440451667048122
4.428142722718132
4.434297194883113
4.434297194883113
4.440451667048122
4.458915083543125
4.452760611378115
4.446606139213133
4.446606139213133
4.440451667048122
4.434297194883113
4.428142722718132
4.434297194883113
4.440451667048122
4.446606139213133
4.440451667048122
4.37890694539811
4.360443528903107
4.40967930622313
4.458915083543125
4.477378500038126
4.452760611378115
4.434297194883113
4.421988250553122
4.415833778388112
4.40352483405812
4.40352483405812
4.397370361893111
4.40352483405812
4.40352483405812
4.40352483405812
4.40967930622313
4.40352483405812
4.391215889728128
4.391215889728128
4.385061417563119
4.37890694539811
4.391215889728128
4.434297194883113
4.440451667048122
4.465069555708134
4.514305333028129
4.520459805193139
4.477378500038126
4.40352483405812
4.329671168078114
4.2865898629231
4.255817502098108
4.237354085603107
4.261971974263091
4.323516695913104
4.360443528903107
4.3727524732331275
4.385061417563119
4.37890694539811
4.391215889728128
4.385061417563119
4.37890694539811
4.3727524732331275
4.360443528903107
4.360443528903107
4.354289056738125
4.3727524732331275
4.37890694539811
4.385061417563119
4.391215889728128
4.391215889728128
4.391215889728128
4.37890694539811
4.37890694539811
4.385061417563119
4.37890694539811
4.37890694539811
4.397370361893111
4.40352483405812
4.391215889728128
4.329671168078114
4.305053279418103
4.348134584573115
4.40967930622313
4.428142722718132
4.421988250553122
4.397370361893111
4.385061417563119
4.37890694539811
4.391215889728128
4.40352483405812
4.397370361893111
4.397370361893111
4.391215889728128
4.37890694539811
4.3727524732331275
4.385061417563119
4.397370361893111
4.385061417563119
4.329671168078114
4.40967930622313
4.428142722718132
4.434297194883113
4.421988250553122
4.434297194883113
4.440451667048122
4.434297194883113
4.385061417563119
4.40352483405812
4.40967930622313
4.366598001068117
4.3727524732331275
4.40352483405812
4.458915083543125
4.489687444368147
4.495841916533128
4.483532972203136
4.477378500038126
4.477378500038126
4.489687444368147
4.477378500038126
4.440451667048122
4.428142722718132
4.428142722718132
4.40967930622313
4.397370361893111
4.397370361893111
4.391215889728128
4.385061417563119
4.3727524732331275
4.354289056738125
4.354289056738125
4.341980112408105
4.348134584573115
4.348134584573115
4.335825640243124
4.335825640243124
4.3112077515831135
4.305053279418103
4.3173622237481215
4.3173622237481215
4.3173622237481215
4.27428091859311
4.261971974263091
4.305053279418103
4.360443528903107
4.3727524732331275
4.360443528903107
4.348134584573115
4.348134584573115
4.335825640243124
4.3173622237481215
4.323516695913104
4.341980112408105
4.329671168078114
4.323516695913104
4.335825640243124
4.329671168078114
4.335825640243124
4.335825640243124
4.341980112408105
4.348134584573115
4.323516695913104
4.323516695913104
4.341980112408105
4.335825640243124
4.335825640243124
4.335825640243124
4.348134584573115
4.341980112408105
4.335825640243124
4.341980112408105
4.348134584573115
4.348134584573115
4.341980112408105
4.3112077515831135
4.2681264464281
4.3173622237481215
4.366598001068117
4.37890694539811
4.348134584573115
4.335825640243124
4.335825640243124
4.323516695913104
4.329671168078114
4.341980112408105
4.348134584573115
4.329671168078114
4.329671168078114
4.335825640243124
4.341980112408105
4.354289056738125
4.335825640243124
4.335825640243124
4.329671168078114
4.329671168078114
4.329671168078114
4.335825640243124
4.335825640243124
4.341980112408105
4.341980112408105
4.341980112408105
4.335825640243124
4.341980112408105
4.354289056738125
4.348134584573115
4.348134584573115
4.335825640243124
4.323516695913104
4.3112077515831135
4.261971974263091
4.298898807253093
4.335825640243124
4.354289056738125
4.360443528903107
4.354289056738125
4.354289056738125
4.348134584573115
4.341980112408105
4.323516695913104
4.3112077515831135
4.27428091859311
4.348134584573115
4.348134584573115
4.292744335088111
4.305053279418103
4.3173622237481215
4.3173622237481215
4.323516695913104
4.323516695913104
4.3112077515831135
4.305053279418103
4.305053279418103
4.3112077515831135
4.3173622237481215
4.3112077515831135
4.298898807253093
4.298898807253093
4.298898807253093
4.261971974263091
4.2681264464281
4.3112077515831135
4.329671168078114
4.341980112408105
4.323516695913104
4.323516695913104
4.341980112408105
4.335825640243124
4.323516695913104
4.329671168078114
4.335825640243124
4.329671168078114
4.3173622237481215
4.3112077515831135
4.3173622237481215
4.323516695913104
4.348134584573115
4.391215889728128
4.434297194883113
4.446606139213133
4.415833778388112
4.360443528903107
4.249663029933098
4.151191475293081
4.095801225808078
4.058874392818074
4.114264642303079
4.212736196943095
4.292744335088111
4.329671168078114
4.329671168078114
4.305053279418103
4.305053279418103
4.3112077515831135
4.3173622237481215
4.3112077515831135
4.305053279418103
4.305053279418103
4.298898807253093
4.298898807253093
4.298898807253093
4.305053279418103
4.305053279418103
4.298898807253093
4.298898807253093
4.3112077515831135
4.298898807253093
4.292744335088111
4.2865898629231
4.280435390758092
4.2681264464281
4.292744335088111
4.3112077515831135
4.3112077515831135
4.298898807253093
4.305053279418103
4.305053279418103
4.3112077515831135
4.3173622237481215
4.3112077515831135
4.261971974263091
4.255817502098108
4.249663029933098
4.335825640243124
4.37890694539811
4.385061417563119
4.360443528903107
4.341980112408105
4.329671168078114
4.305053279418103
4.2681264464281
4.2865898629231
4.305053279418103
4.3112077515831135
4.341980112408105
4.341980112408105
4.348134584573115
4.341980112408105
4.354289056738125
4.366598001068117
4.3727524732331275
4.366598001068117
4.3727524732331275
4.385061417563119
4.397370361893111
4.391215889728128
4.397370361893111
4.37890694539811
4.37890694539811
4.391215889728128
4.397370361893111
4.397370361893111
4.391215889728128
4.385061417563119
4.323516695913104
4.323516695913104
4.37890694539811
4.391215889728128
4.360443528903107
4.323516695913104
4.3112077515831135
4.305053279418103
4.292744335088111
4.255817502098108
4.298898807253093
4.292744335088111
4.280435390758092
4.27428091859311
4.261971974263091
4.212736196943095
4.225045141273086
4.237354085603107
4.237354085603107
4.243508557768089
4.249663029933098
4.255817502098108
4.249663029933098
4.249663029933098
4.255817502098108
4.255817502098108
4.243508557768089
4.243508557768089
4.237354085603107
4.1942727804480935
4.1942727804480935
4.237354085603107
4.2865898629231
4.3173622237481215
4.298898807253093
4.27428091859311
4.27428091859311
4.261971974263091
4.261971974263091
4.261971974263091
4.2681264464281
4.261971974263091
4.2681264464281
4.255817502098108
4.2681264464281
4.2681264464281
4.261971974263091
4.2681264464281
4.261971974263091
4.261971974263091
4.249663029933098
4.243508557768089
4.243508557768089
4.243508557768089
4.249663029933098
4.2681264464281
4.27428091859311
4.261971974263091
4.255817502098108
4.261971974263091
4.249663029933098
4.231199613438097
4.2065817247780855
4.255817502098108
4.2865898629231
4.305053279418103
4.292744335088111
4.280435390758092
4.2865898629231
4.280435390758092
4.261971974263091
4.261971974263091
4.255817502098108
4.27428091859311
4.2681264464281
4.255817502098108
4.280435390758092
4.255817502098108
4.243508557768089
4.243508557768089
4.243508557768089
4.255817502098108
4.261971974263091
4.255817502098108
4.249663029933098
4.249663029933098
4.255817502098108
4.249663029933098
4.249663029933098
4.249663029933098
4.255817502098108
4.255817502098108
4.255817502098108
4.243508557768089
4.249663029933098
4.225045141273086
4.188118308283084
4.243508557768089
4.280435390758092
4.298898807253093
4.280435390758092
4.249663029933098
4.249663029933098
4.261971974263091
4.280435390758092
4.2865898629231
4.27428091859311
4.27428091859311
4.27428091859311
4.27428091859311
4.261971974263091
4.261971974263091
4.261971974263091
4.2681264464281
4.2681264464281
4.255817502098108
4.249663029933098
4.255817502098108
4.237354085603107
4.237354085603107
4.218890669108104
4.225045141273086
4.249663029933098
4.249663029933098
4.249663029933098
4.249663029933098
4.243508557768089
4.243508557768089
4.243508557768089
4.188118308283084
4.200427252613103
4.212736196943095
4.261971974263091
4.261971974263091
4.261971974263091
4.27428091859311
4.292744335088111
4.305053279418103
4.348134584573115
4.37890694539811
4.391215889728128
4.360443528903107
4.292744335088111
4.188118308283084
4.077337809313075
4.052719920653064
4.089646753643067
4.169654891788083
4.218890669108104
4.231199613438097
4.243508557768089
4.243508557768089
4.261971974263091
4.2681264464281
4.255817502098108
4.261971974263091
4.255817502098108
4.261971974263091
4.261971974263091
4.255817502098108
4.200427252613103
4.181963836118102
4.231199613438097
4.280435390758092
4.298898807253093
4.2865898629231
4.27428091859311
4.280435390758092
4.2865898629231
4.27428091859311
4.261971974263091
4.27428091859311
4.305053279418103
4.2865898629231
4.280435390758092
4.261971974263091
4.255817502098108
4.249663029933098
4.261971974263091
4.2865898629231
4.2865898629231
4.298898807253093
4.2865898629231
4.280435390758092
4.280435390758092
4.2865898629231
4.2865898629231
4.280435390758092
4.280435390758092
4.2865898629231
4.298898807253093
4.298898807253093
4.3112077515831135
4.298898807253093
4.231199613438097
4.280435390758092
4.335825640243124
4.3727524732331275
4.360443528903107
4.329671168078114
4.329671168078114
4.335825640243124
4.354289056738125
4.354289056738125
4.360443528903107
4.366598001068117
4.366598001068117
4.366598001068117
4.37890694539811
4.3727524732331275
4.37890694539811
4.3727524732331275
4.37890694539811
4.3727524732331275
4.360443528903107
4.354289056738125
4.341980112408105
4.335825640243124
4.3173622237481215
4.305053279418103
4.292744335088111
4.280435390758092
4.2681264464281
4.2681264464281
4.200427252613103
4.181963836118102
4.218890669108104
4.255817502098108
4.249663029933098
4.231199613438097
4.237354085603107
4.249663029933098
4.255817502098108
4.243508557768089
4.237354085603107
4.231199613438097
4.237354085603107
4.225045141273086
4.231199613438097
4.231199613438097
4.237354085603107
4.231199613438097
4.231199613438097
4.225045141273086
4.218890669108104
4.218890669108104
4.225045141273086
4.218890669108104
4.231199613438097
4.231199613438097
4.243508557768089
4.225045141273086
4.1942727804480935
4.163500419623101
4.249663029933098
4.261971974263091
4.261971974263091
4.212736196943095
4.225045141273086
4.188118308283084
4.169654891788083
4.225045141273086
4.2681264464281
4.280435390758092
4.255817502098108
4.243508557768089
4.243508557768089
4.255817502098108
4.243508557768089
4.237354085603107
4.243508557768089
4.249663029933098
4.237354085603107
4.243508557768089
4.249663029933098
4.231199613438097
4.243508557768089
4.243508557768089
4.255817502098108
4.243508557768089
4.181963836118102
4.200427252613103
4.2681264464281
4.2681264464281
4.249663029933098
4.249663029933098
4.255817502098108
4.249663029933098
4.2065817247780855
4.2065817247780855
4.218890669108104
4.225045141273086
4.237354085603107
4.225045141273086
4.169654891788083
4.181963836118102
4.231199613438097
4.255817502098108
4.249663029933098
4.249663029933098
4.249663029933098
4.249663029933098
4.243508557768089
4.231199613438097
4.237354085603107
4.225045141273086
4.243508557768089
4.255817502098108
4.249663029933098
4.255817502098108
4.255817502098108
4.249663029933098
4.249663029933098
4.249663029933098
4.249663029933098
4.237354085603107
4.237354085603107
4.243508557768089
4.243508557768089
4.249663029933098
4.261971974263091
4.255817502098108
4.243508557768089
4.218890669108104
4.188118308283084
4.231199613438097
4.2681264464281
4.280435390758092
4.280435390758092
4.2865898629231
4.27428091859311
4.237354085603107
4.243508557768089
4.249663029933098
4.261971974263091
4.249663029933098
4.255817502098108
4.249663029933098
4.249663029933098
4.243508557768089
4.231199613438097
4.231199613438097
4.249663029933098
4.237354085603107
4.243508557768089
4.2681264464281
4.2681264464281
4.261971974263091
4.249663029933098
4.243508557768089
4.243508557768089
4.255817502098108
4.27428091859311
4.3112077515831135
4.366598001068117
4.385061417563119
4.329671168078114
4.3173622237481215
4.27428091859311
4.218890669108104
4.12657358663307
4.058874392818074
4.083492281478085
4.151191475293081
4.200427252613103
4.237354085603107
4.255817502098108
4.280435390758092
4.261971974263091
4.261971974263091
4.249663029933098
4.249663029933098
4.261971974263091
4.255817502098108
4.237354085603107
4.181963836118102
4.27428091859311
4.280435390758092
4.2681264464281
4.280435390758092
4.280435390758092
4.27428091859311
4.231199613438097
4.261971974263091
4.249663029933098
4.261971974263091
4.2681264464281
4.2681264464281
4.2681264464281
4.2681264464281
4.200427252613103
4.218890669108104
4.27428091859311
4.305053279418103
4.3112077515831135
4.298898807253093
4.3112077515831135
4.298898807253093
4.280435390758092
4.2865898629231
4.292744335088111
4.280435390758092
4.27428091859311
4.280435390758092
4.2865898629231
4.2865898629231
4.305053279418103
4.3112077515831135
4.3112077515831135
4.3112077515831135
4.3173622237481215
4.3112077515831135
4.3112077515831135
4.305053279418103
4.305053279418103
4.3173622237481215
4.335825640243124
4.335825640243124
4.335825640243124
4.280435390758092
4.2865898629231
4.335825640243124
4.391215889728128
4.391215889728128
4.37890694539811
4.360443528903107
4.366598001068117
4.366598001068117
4.354289056738125
4.354289056738125
4.366598001068117
4.366598001068117
4.348134584573115
4.3112077515831135
4.292744335088111
4.305053279418103
4.3173622237481215
4.305053279418103
4.280435390758092
4.27428091859311
4.2681264464281
4.249663029933098
4.243508557768089
4.218890669108104
4.181963836118102
4.095801225808078
4.052719920653064
4.009638615498079
3.9727117825080476
3.9788662546730578
3.9419394216830552
3.9111670608580615
3.831158922713046
3.800386561888025
3.8434678670430373
3.8680857557030492
3.874240227868059
3.8680857557030492
3.8434678670430373
3.831158922713046
3.8126955062180454
3.8188499783830263
3.8188499783830263
3.8065410340530352
3.7942320897230433
3.7942320897230433
3.800386561888025
3.7757686732280415
3.75115078456803
3.732687368073029
3.720378423743037
3.7265328959080186
3.720378423743037
3.7080694794130173
3.720378423743037
3.720378423743037
3.7080694794130173
3.695760535083026
3.695760535083026
3.671142646423015
3.6649881742580046
3.6834515907530063
3.695760535083026
3.701915007248036
3.7080694794130173
3.701915007248036
3.6465247577630033
3.6649881742580046
3.720378423743037
3.738841840238039
3.732687368073029
3.720378423743037
3.738841840238039
3.7696142010630322
3.75115078456803
3.738841840238039
3.7265328959080186
3.6896060629180156
3.763459728898022
3.720378423743037
3.738841840238039
3.7449963124030208
3.75115078456803
3.75730525673304
3.7757686732280415
3.788077617558033
3.800386561888025
3.8434678670430373
3.8680857557030492
3.886549172198051
3.8927036443630603
3.9111670608580615
3.9173215330230438
3.9604028381780574
4.009638615498079
4.028102031993082
4.021947559828071
4.083492281478085
4.157345947458091
4.249663029933098
4.335825640243124
4.341980112408105
4.323516695913104
4.341980112408105
4.341980112408105
4.348134584573115
4.360443528903107
4.37890694539811
4.3727524732331275
4.354289056738125
4.348134584573115
4.348134584573115
4.329671168078114
4.3173622237481215
4.341980112408105
4.385061417563119
4.434297194883113
4.458915083543125
4.483532972203136
4.563541110348153
4.618931359833156
4.588158999008135
4.575850054678144
4.569695582513134
4.5820045268431535
4.588158999008135
4.557386638183142
4.508150860863147
4.551232166018132
4.5943134711731455
4.612776887668146
4.5943134711731455
4.575850054678144
4.557386638183142
4.563541110348153
4.551232166018132
4.551232166018132
4.54507769385315
4.557386638183142
4.557386638183142
4.551232166018132
4.557386638183142
4.551232166018132
4.5820045268431535
4.618931359833156
4.649703720658149
4.637394776328158
4.5943134711731455
4.514305333028129
4.428142722718132
4.3727524732331275
4.323516695913104
4.329671168078114
4.366598001068117
4.421988250553122
4.465069555708134
4.434297194883113
4.415833778388112
4.483532972203136
4.538923221688139
4.54507769385315
4.471224027873144
4.440451667048122
4.465069555708134
4.514305333028129
4.508150860863147
4.471224027873144
4.446606139213133
4.40967930622313
4.366598001068117
4.3112077515831135
4.231199613438097
4.169654891788083
4.169654891788083
4.237354085603107
4.255817502098108
4.255817502098108
4.261971974263091
4.261971974263091
4.2681264464281
4.243508557768089
4.237354085603107
4.255817502098108
4.261971974263091
4.2681264464281
4.2865898629231
4.292744335088111
4.292744335088111
4.292744335088111
4.2681264464281
4.298898807253093
4.348134584573115
4.37890694539811
4.385061417563119
4.3727524732331275
4.360443528903107
4.366598001068117
4.366598001068117
4.354289056738125
4.335825640243124
4.391215889728128
4.391215889728128
4.391215889728128
4.3727524732331275
4.335825640243124
4.354289056738125
4.3727524732331275
4.40352483405812
4.415833778388112
4.421988250553122
4.40967930622313
4.40967930622313
4.40967930622313
4.421988250553122
4.434297194883113
4.421988250553122
4.434297194883113
4.428142722718132
4.421988250553122
4.415833778388112
4.40967930622313
4.348134584573115
4.360443528903107
4.391215889728128
4.421988250553122
4.415833778388112
4.391215889728128
4.360443528903107
4.354289056738125
4.341980112408105
4.335825640243124
4.335825640243124
4.329671168078114
4.329671168078114
4.3173622237481215
4.298898807253093
4.305053279418103
4.305053279418103
4.298898807253093
4.3112077515831135
4.3173622237481215
4.3112077515831135
4.292744335088111
4.280435390758092
4.292744335088111
4.3112077515831135
4.298898807253093
4.249663029933098
4.261971974263091
4.298898807253093
4.323516695913104
4.323516695913104
4.292744335088111
4.298898807253093
4.305053279418103
4.3173622237481215
4.305053279418103
4.3112077515831135
4.305053279418103
4.298898807253093
4.298898807253093
4.280435390758092
4.292744335088111
4.298898807253093
4.3112077515831135
4.2865898629231
4.27428091859311
4.292744335088111
4.305053279418103
4.305053279418103
4.3112077515831135
4.305053279418103
4.2865898629231
4.2681264464281
4.218890669108104
4.261971974263091
4.3173622237481215
4.323516695913104
4.305053279418103
4.298898807253093
4.3112077515831135
4.298898807253093
4.305053279418103
4.292744335088111
4.298898807253093
4.305053279418103
4.298898807253093
4.298898807253093
4.292744335088111
4.2865898629231
4.2865898629231
4.280435390758092
4.2865898629231
4.292744335088111
4.2865898629231
4.292744335088111
4.298898807253093
4.298898807253093
4.292744335088111
4.298898807253093
4.280435390758092
4.2865898629231
4.280435390758092
4.2865898629231
4.280435390758092
4.280435390758092
4.261971974263091
4.261971974263091
4.305053279418103
4.335825640243124
4.323516695913104
4.298898807253093
4.298898807253093
4.292744335088111
4.2865898629231
4.27428091859311
4.261971974263091
4.2681264464281
4.27428091859311
4.27428091859311
4.255817502098108
4.218890669108104
4.329671168078114
4.335825640243124
4.3112077515831135
4.298898807253093
4.298898807253093
4.298898807253093
4.27428091859311
4.243508557768089
4.261971974263091
4.2681264464281
4.2681264464281
4.2681264464281
4.280435390758092
4.280435390758092
4.27428091859311
4.261971974263091
4.200427252613103
4.200427252613103
4.261971974263091
4.298898807253093
4.292744335088111
4.292744335088111
4.298898807253093
4.305053279418103
4.298898807253093
4.280435390758092
4.2865898629231
4.2681264464281
4.27428091859311
4.280435390758092
4.2865898629231
4.329671168078114
4.335825640243124
4.341980112408105
4.3727524732331275
4.37890694539811
4.3727524732331275
4.3173622237481215
4.243508557768089
4.157345947458091
4.095801225808078
4.083492281478085
4.12657358663307
4.1758093639530935
4.200427252613103
4.181963836118102
4.231199613438097
4.2865898629231
4.3112077515831135
4.3112077515831135
4.298898807253093
4.2865898629231
4.280435390758092
4.280435390758092
4.280435390758092
4.292744335088111
4.261971974263091
4.237354085603107
4.249663029933098
4.27428091859311
4.292744335088111
4.292744335088111
4.2865898629231
4.2865898629231
4.2865898629231
4.2865898629231
4.280435390758092
4.292744335088111
4.292744335088111
4.27428091859311
4.255817502098108
4.255817502098108
4.2865898629231
4.305053279418103
4.323516695913104
4.298898807253093
4.225045141273086
4.212736196943095
4.2865898629231
4.335825640243124
4.335825640243124
4.323516695913104
4.3173622237481215
4.3112077515831135
4.323516695913104
4.305053279418103
4.292744335088111
4.305053279418103
4.3112077515831135
4.3112077515831135
4.3173622237481215
4.323516695913104
4.3173622237481215
4.3173622237481215
4.323516695913104
4.323516695913104
4.3173622237481215
4.323516695913104
4.348134584573115
4.360443528903107
4.360443528903107
4.360443528903107
4.366598001068117
4.3727524732331275
4.366598001068117
4.366598001068117
4.366598001068117
4.305053279418103
4.329671168078114
4.366598001068117
4.385061417563119
4.37890694539811
4.360443528903107
4.348134584573115
4.341980112408105
4.323516695913104
4.305053279418103
4.298898807253093
4.292744335088111
4.280435390758092
4.261971974263091
4.218890669108104
4.27428091859311
4.2681264464281
4.237354085603107
4.237354085603107
4.243508557768089
4.261971974263091
4.255817502098108
4.237354085603107
4.243508557768089
4.237354085603107
4.237354085603107
4.249663029933098
4.255817502098108
4.261971974263091
4.249663029933098
4.231199613438097
4.231199613438097
4.212736196943095
4.1758093639530935
4.231199613438097
4.27428091859311
4.280435390758092
4.2681264464281
4.255817502098108
4.27428091859311
4.261971974263091
4.261971974263091
4.249663029933098
4.237354085603107
4.243508557768089
4.261971974263091
4.249663029933098
4.249663029933098
4.261971974263091
4.280435390758092
4.2681264464281
4.2681264464281
4.261971974263091
4.2681264464281
4.2681264464281
4.255817502098108
4.231199613438097
4.2865898629231
4.298898807253093
4.2865898629231
4.298898807253093
4.2865898629231
4.27428091859311
4.218890669108104
4.12657358663307
4.188118308283084
4.255817502098108
4.292744335088111
4.2865898629231
4.27428091859311
4.27428091859311
4.27428091859311
4.2681264464281
4.27428091859311
4.2681264464281
4.27428091859311
4.27428091859311
4.27428091859311
4.280435390758092
4.2681264464281
4.2681264464281
4.249663029933098
4.249663029933098
4.255817502098108
4.237354085603107
4.225045141273086
4.243508557768089
4.27428091859311
4.298898807253093
4.27428091859311
4.2681264464281
4.2681264464281
4.280435390758092
4.2681264464281
4.237354085603107
4.212736196943095
4.27428091859311
4.3173622237481215
4.323516695913104
4.305053279418103
4.2865898629231
4.27428091859311
4.261971974263091
4.27428091859311
4.27428091859311
4.2865898629231
4.292744335088111
4.3112077515831135
4.3173622237481215
4.298898807253093
4.27428091859311
4.2681264464281
4.27428091859311
4.280435390758092
4.280435390758092
4.280435390758092
4.280435390758092
4.27428091859311
4.2681264464281
4.255817502098108
4.261971974263091
4.280435390758092
4.27428091859311
4.2681264464281
4.27428091859311
4.2681264464281
4.243508557768089
4.1758093639530935
4.2065817247780855
4.255817502098108
4.305053279418103
4.292744335088111
4.280435390758092
4.2681264464281
4.280435390758092
4.280435390758092
4.249663029933098
4.3173622237481215
4.323516695913104
4.335825640243124
4.360443528903107
4.385061417563119
4.37890694539811
4.385061417563119
4.354289056738125
4.2865898629231
4.1942727804480935
4.12657358663307
4.089646753643067
4.114264642303079
4.181963836118102
4.237354085603107
4.27428091859311
4.2681264464281
4.218890669108104
4.212736196943095
4.261971974263091
4.323516695913104
4.329671168078114
4.2865898629231
4.280435390758092
4.2865898629231
4.305053279418103
4.292744335088111
4.2865898629231
4.280435390758092
4.280435390758092
4.2865898629231
4.298898807253093
4.280435390758092
4.280435390758092
4.27428091859311
4.2865898629231
4.292744335088111
4.280435390758092
4.2865898629231
4.298898807253093
4.292744335088111
4.298898807253093
4.3112077515831135
4.298898807253093
4.292744335088111
4.298898807253093
4.298898807253093
4.298898807253093
4.305053279418103
4.305053279418103
4.305053279418103
4.27428091859311
4.218890669108104
4.261971974263091
4.323516695913104
4.323516695913104
4.323516695913104
4.3112077515831135
4.3112077515831135
4.323516695913104
4.341980112408105
4.348134584573115
4.341980112408105
4.366598001068117
4.348134584573115
4.354289056738125
4.360443528903107
4.348134584573115
4.360443528903107
4.366598001068117
4.391215889728128
4.385061417563119
4.3727524732331275
4.366598001068117
4.3727524732331275
4.366598001068117
4.3727524732331275
4.37890694539811
4.3727524732331275
4.341980112408105
4.2865898629231
4.2865898629231
4.341980112408105
4.37890694539811
4.360443528903107
4.335825640243124
4.298898807253093
4.305053279418103
4.3173622237481215
4.3112077515831135
4.298898807253093
4.280435390758092
4.27428091859311
4.27428091859311
4.255817502098108
4.249663029933098
4.243508557768089
4.249663029933098
4.249663029933098
4.249663029933098
4.243508557768089
4.243508557768089
4.243508557768089
4.237354085603107
4.237354085603107
4.237354085603107
4.231199613438097
4.218890669108104
4.212736196943095
4.218890669108104
4.237354085603107
4.243508557768089
4.1758093639530935
4.1942727804480935
4.255817502098108
4.305053279418103
4.292744335088111
4.2681264464281
4.249663029933098
4.243508557768089
4.237354085603107
4.2065817247780855
4.225045141273086
4.237354085603107
4.243508557768089
4.237354085603107
4.249663029933098
4.249663029933098
4.243508557768089
4.243508557768089
4.249663029933098
4.249663029933098
4.243508557768089
4.243508557768089
4.249663029933098
4.243508557768089
4.231199613438097
4.218890669108104
4.237354085603107
4.249663029933098
4.243508557768089
4.237354085603107
4.243508557768089
4.243508557768089
4.188118308283084
4.218890669108104
4.261971974263091
4.280435390758092
4.27428091859311
4.2681264464281
4.2681264464281
4.2681264464281
4.2681264464281
4.2681264464281
4.261971974263091
4.249663029933098
4.255817502098108
4.261971974263091
4.255817502098108
4.261971974263091
4.255817502098108
4.2681264464281
4.27428091859311
4.2681264464281
4.261971974263091
4.255817502098108
4.255817502098108
4.27428091859311
4.2865898629231
4.261971974263091
4.243508557768089
4.237354085603107
4.237354085603107
4.243508557768089
4.1942727804480935
4.218890669108104
4.261971974263091
4.298898807253093
4.292744335088111
4.27428091859311
4.261971974263091
4.2681264464281
4.27428091859311
4.261971974263091
4.255817502098108
4.280435390758092
4.280435390758092
4.27428091859311
4.280435390758092
4.280435390758092
4.2681264464281
4.261971974263091
4.27428091859311
4.2865898629231
4.27428091859311
4.2681264464281
4.261971974263091
4.2681264464281
4.261971974263091
4.255817502098108
4.243508557768089
4.261971974263091
4.255817502098108
4.261971974263091
4.2681264464281
4.27428091859311
4.255817502098108
4.200427252613103
4.218890669108104
4.27428091859311
4.2865898629231
4.27428091859311
4.27428091859311
4.27428091859311
4.2865898629231
4.3112077515831135
4.3112077515831135
4.341980112408105
4.40352483405812
4.440451667048122
4.415833778388112
4.385061417563119
4.3112077515831135
4.2065817247780855
4.12657358663307
4.101955697973087
4.114264642303079
4.1758093639530935
4.237354085603107
4.249663029933098
4.261971974263091
4.237354085603107
4.27428091859311
4.292744335088111
4.292744335088111
4.2865898629231
4.237354085603107
4.231199613438097
4.280435390758092
4.261971974263091
4.27428091859311
4.2681264464281
4.243508557768089
4.212736196943095
4.280435390758092
4.305053279418103
4.2865898629231
4.237354085603107
4.249663029933098
4.27428091859311
4.280435390758092
4.280435390758092
4.27428091859311
4.280435390758092
4.305053279418103
4.298898807253093
4.2865898629231
4.2681264464281
4.2681264464281
4.280435390758092
4.280435390758092
4.292744335088111
4.298898807253093
4.305053279418103
4.305053279418103
4.280435390758092
4.218890669108104
4.2681264464281
4.323516695913104
4.354289056738125
4.366598001068117
4.348134584573115
4.341980112408105
4.341980112408105
4.335825640243124
4.335825640243124
4.335825640243124
4.348134584573115
4.348134584573115
4.360443528903107
4.348134584573115
4.348134584573115
4.366598001068117
4.391215889728128
4.385061417563119
4.37890694539811
4.360443528903107
4.323516695913104
4.2865898629231
4.2865898629231
4.305053279418103
4.341980112408105
4.354289056738125
4.341980112408105
4.27428091859311
4.27428091859311
4.323516695913104
4.329671168078114
4.329671168078114
4.298898807253093
4.2865898629231
4.2681264464281
4.249663029933098
4.243508557768089
4.237354085603107
4.243508557768089
4.249663029933098
4.243508557768089
4.237354085603107
4.231199613438097
4.218890669108104
4.231199613438097
4.231199613438097
4.218890669108104
4.212736196943095
4.218890669108104
4.237354085603107
4.231199613438097
4.231199613438097
4.237354085603107
4.255817502098108
4.2681264464281
4.225045141273086
4.188118308283084
4.255817502098108
4.280435390758092
4.2681264464281
4.261971974263091
4.261971974263091
4.261971974263091
4.2681264464281
4.261971974263091
4.255817502098108
4.255817502098108
4.261971974263091
4.261971974263091
4.261971974263091
4.255817502098108
4.255817502098108
4.27428091859311
4.2865898629231
4.2865898629231
4.27428091859311
4.255817502098108
4.255817502098108
4.255817502098108
4.255817502098108
4.255817502098108
4.27428091859311
4.280435390758092
4.2681264464281
4.280435390758092
4.280435390758092
4.225045141273086
4.218890669108104
4.27428091859311
4.298898807253093
4.298898807253093
4.280435390758092
4.280435390758092
4.280435390758092
4.27428091859311
4.27428091859311
4.261971974263091
4.261971974263091
4.237354085603107
4.2865898629231
4.2865898629231
4.280435390758092
4.292744335088111
4.305053279418103
4.2865898629231
4.249663029933098
4.255817502098108
4.249663029933098
4.261971974263091
4.261971974263091
4.280435390758092
4.280435390758092
4.2681264464281
4.27428091859311
4.280435390758092
4.255817502098108
4.218890669108104
4.1942727804480935
4.261971974263091
4.323516695913104
4.335825640243124
4.292744335088111
4.280435390758092
4.280435390758092
4.298898807253093
4.292744335088111
4.2865898629231
4.292744335088111
4.280435390758092
4.292744335088111
4.305053279418103
4.305053279418103
4.305053279418103
4.3112077515831135
4.292744335088111
4.292744335088111
4.2865898629231
4.280435390758092
4.280435390758092
4.298898807253093
4.298898807253093
4.292744335088111
4.292744335088111
4.2865898629231
4.292744335088111
4.255817502098108
4.212736196943095
4.255817502098108
4.3112077515831135
4.323516695913104
4.3173622237481215
4.298898807253093
4.292744335088111
4.2865898629231
4.292744335088111
4.280435390758092
4.280435390758092
4.280435390758092
4.2865898629231
4.280435390758092
4.261971974263091
4.2681264464281
4.305053279418103
4.329671168078114
4.3727524732331275
4.415833778388112
4.421988250553122
4.415833778388112
4.360443528903107
4.249663029933098
4.1758093639530935
4.114264642303079
4.108110170138069
4.163500419623101
4.2065817247780855
4.1942727804480935
4.2065817247780855
4.27428091859311
4.323516695913104
4.335825640243124
4.292744335088111
4.27428091859311
4.2865898629231
4.2865898629231
4.292744335088111
4.292744335088111
4.298898807253093
4.305053279418103
4.305053279418103
4.305053279418103
4.2865898629231
4.2865898629231
4.27428091859311
4.255817502098108
4.261971974263091
4.27428091859311
4.280435390758092
4.305053279418103
4.3112077515831135
4.298898807253093
4.298898807253093
4.305053279418103
4.305053279418103
4.280435390758092
4.280435390758092
4.231199613438097
4.225045141273086
4.292744335088111
4.329671168078114
4.335825640243124
4.3173622237481215
4.3112077515831135
4.305053279418103
4.3112077515831135
4.298898807253093
4.298898807253093
4.323516695913104
4.323516695913104
4.323516695913104
4.292744335088111
4.249663029933098
4.305053279418103
4.2865898629231
4.3112077515831135
4.305053279418103
4.305053279418103
4.3112077515831135
4.335825640243124
4.348134584573115
4.341980112408105
4.348134584573115
4.329671168078114
4.298898807253093
4.348134584573115
4.40352483405812
4.421988250553122
4.40967930622313
4.385061417563119
4.391215889728128
4.397370361893111
4.397370361893111
4.397370361893111
4.391215889728128
4.366598001068117
4.341980112408105
4.3173622237481215
4.335825640243124
4.323516695913104
4.292744335088111
4.292744335088111
4.292744335088111
4.292744335088111
4.280435390758092
4.261971974263091
4.261971974263091
4.27428091859311
4.255817502098108
4.2681264464281
4.280435390758092
4.231199613438097
4.212736196943095
4.2681264464281
4.3112077515831135
4.3112077515831135
4.298898807253093
4.2865898629231
4.2865898629231
4.280435390758092
4.27428091859311
4.2681264464281
4.280435390758092
4.280435390758092
4.27428091859311
4.292744335088111
4.3173622237481215
4.3112077515831135
4.243508557768089
4.249663029933098
4.3112077515831135
4.298898807253093
4.2865898629231
4.2865898629231
4.298898807253093
4.2865898629231
4.237354085603107
4.237354085603107
4.255817502098108
4.261971974263091
4.261971974263091
4.2681264464281
4.261971974263091
4.2065817247780855
4.243508557768089
4.298898807253093
4.3112077515831135
4.298898807253093
4.280435390758092
4.298898807253093
4.305053279418103
4.3173622237481215
4.298898807253093
4.2865898629231
4.280435390758092
4.280435390758092
4.2865898629231
4.27428091859311
4.27428091859311
4.27428091859311
4.2865898629231
4.2865898629231
4.2865898629231
4.2865898629231
4.27428091859311
4.27428091859311
4.280435390758092
4.280435390758092
4.2865898629231
4.2865898629231
4.2865898629231
4.305053279418103
4.2681264464281
4.200427252613103
4.237354085603107
4.280435390758092
4.323516695913104
4.329671168078114
4.3112077515831135
4.298898807253093
4.292744335088111
4.2865898629231
4.305053279418103
4.305053279418103
4.305053279418103
4.292744335088111
4.298898807253093
4.280435390758092
4.27428091859311
4.2865898629231
4.27428091859311
4.2681264464281
4.292744335088111
4.298898807253093
4.2681264464281
4.335825640243124
4.335825640243124
4.3173622237481215
4.280435390758092
4.237354085603107
4.237354085603107
4.218890669108104
4.27428091859311
4.3173622237481215
4.341980112408105
4.329671168078114
4.298898807253093
4.2865898629231
4.2865898629231
4.292744335088111
4.292744335088111
4.2865898629231
4.292744335088111
4.292744335088111
4.2865898629231
4.2865898629231
4.280435390758092
4.2865898629231
4.305053279418103
4.298898807253093
4.292744335088111
4.298898807253093
4.298898807253093
4.2865898629231
4.27428091859311
4.292744335088111
4.3173622237481215
4.329671168078114
4.3173622237481215
4.366598001068117
4.40967930622313
4.415833778388112
4.341980112408105
4.231199613438097
4.151191475293081
4.101955697973087
4.101955697973087
4.157345947458091
4.212736196943095
4.2681264464281
4.2865898629231
4.298898807253093
4.305053279418103
4.298898807253093
4.2865898629231
4.2681264464281
4.261971974263091
4.280435390758092
4.292744335088111
4.305053279418103
4.305053279418103
4.3112077515831135
4.305053279418103
4.298898807253093
4.298898807253093
4.298898807253093
4.292744335088111
4.2865898629231
4.249663029933098
4.255817502098108
4.3112077515831135
4.341980112408105
4.323516695913104
4.292744335088111
4.305053279418103
4.298898807253093
4.3112077515831135
4.305053279418103
4.298898807253093
4.298898807253093
4.298898807253093
4.292744335088111
4.292744335088111
4.280435390758092
4.292744335088111
4.292744335088111
4.298898807253093
4.3112077515831135
4.3112077515831135
4.3112077515831135
4.3112077515831135
4.292744335088111
4.305053279418103
4.323516695913104
4.329671168078114
4.2865898629231
4.280435390758092
4.329671168078114
4.354289056738125
4.3727524732331275
4.37890694539811
4.37890694539811
4.397370361893111
4.391215889728128
4.40967930622313
4.40967930622313
4.397370361893111
4.391215889728128
4.391215889728128
4.3727524732331275
4.360443528903107
4.37890694539811
4.40352483405812
4.415833778388112
4.40352483405812
4.391215889728128
4.385061417563119
4.360443528903107
4.348134584573115
4.341980112408105
4.323516695913104
4.305053279418103
4.292744335088111
4.2681264464281
4.225045141273086
4.243508557768089
4.237354085603107
4.3173622237481215
4.305053279418103
4.298898807253093
4.2865898629231
4.280435390758092
4.280435390758092
4.231199613438097
4.200427252613103
4.237354085603107
4.243508557768089
4.249663029933098
4.249663029933098
4.255817502098108
4.249663029933098
4.255817502098108
4.255817502098108
4.255817502098108
4.237354085603107
4.237354085603107
4.255817502098108
4.27428091859311
4.27428091859311
4.280435390758092
4.292744335088111
4.305053279418103
4.292744335088111
4.243508557768089
4.218890669108104
4.2681264464281
4.3112077515831135
4.292744335088111
4.292744335088111
4.27428091859311
4.2681264464281
4.2681264464281
4.2681264464281
4.280435390758092
4.261971974263091
4.261971974263091
4.27428091859311
4.280435390758092
4.27428091859311
4.2865898629231
4.280435390758092
4.2681264464281
4.2681264464281
4.261971974263091
4.2681264464281
4.2681264464281
4.27428091859311
4.255817502098108
4.261971974263091
4.2681264464281
4.237354085603107
4.181963836118102
4.2065817247780855
4.2865898629231
4.305053279418103
4.2865898629231
4.261971974263091
4.255817502098108
4.2681264464281
4.27428091859311
4.2865898629231
4.255817502098108
4.261971974263091
4.280435390758092
4.280435390758092
4.261971974263091
4.261971974263091
4.27428091859311
4.280435390758092
4.280435390758092
4.27428091859311
4.261971974263091
4.255817502098108
4.27428091859311
4.261971974263091
4.243508557768089
4.2681264464281
4.2681264464281
4.261971974263091
4.255817502098108
4.261971974263091
4.237354085603107
4.163500419623101
4.1942727804480935
4.27428091859311
4.305053279418103
4.292744335088111
4.2865898629231
4.292744335088111
4.280435390758092
4.27428091859311
4.27428091859311
4.2681264464281
4.249663029933098
4.261971974263091
4.27428091859311
4.2865898629231
4.2865898629231
4.280435390758092
4.2865898629231
4.280435390758092
4.280435390758092
4.249663029933098
4.225045141273086
4.2065817247780855
4.212736196943095
4.212736196943095
4.2065817247780855
4.181963836118102
4.169654891788083
4.218890669108104
4.261971974263091
4.2681264464281
4.255817502098108
4.243508557768089
4.243508557768089
4.237354085603107
4.231199613438097
4.1942727804480935
4.280435390758092
4.249663029933098
4.212736196943095
4.323516695913104
4.391215889728128
4.40352483405812
4.391215889728128
4.329671168078114
4.237354085603107
4.101955697973087
4.028102031993082
4.052719920653064
4.114264642303079
4.169654891788083
4.218890669108104
4.212736196943095
4.200427252613103
4.225045141273086
4.255817502098108
4.261971974263091
4.231199613438097
4.181963836118102
4.243508557768089
4.292744335088111
4.3173622237481215
4.292744335088111
4.2865898629231
4.280435390758092
4.280435390758092
4.280435390758092
4.27428091859311
4.27428091859311
4.2681264464281
4.261971974263091
4.27428091859311
4.261971974263091
4.261971974263091
4.249663029933098
4.255817502098108
4.27428091859311
4.280435390758092
4.2681264464281
4.2865898629231
4.2865898629231
4.292744335088111
4.27428091859311
4.27428091859311
4.292744335088111
4.292744335088111
4.292744335088111
4.280435390758092
4.231199613438097
4.261971974263091
4.3112077515831135
4.323516695913104
4.3173622237481215
4.3112077515831135
4.305053279418103
4.305053279418103
4.292744335088111
4.27428091859311
4.280435390758092
4.323516695913104
4.348134584573115
4.348134584573115
4.335825640243124
4.335825640243124
4.348134584573115
4.366598001068117
4.360443528903107
4.3727524732331275
4.3727524732331275
4.366598001068117
4.3727524732331275
4.385061417563119
4.385061417563119
4.360443528903107
4.354289056738125
4.3727524732331275
4.3727524732331275
4.360443528903107
4.3173622237481215
4.341980112408105
4.360443528903107
4.366598001068117
4.335825640243124
4.305053279418103
4.298898807253093
4.292744335088111
4.2865898629231
4.2865898629231
4.292744335088111
4.2681264464281
4.255817502098108
4.243508557768089
4.243508557768089
4.237354085603107
4.231199613438097
4.231199613438097
4.237354085603107
4.231199613438097
4.231199613438097
4.225045141273086
4.231199613438097
4.225045141273086
4.212736196943095
4.212736196943095
4.200427252613103
4.1942727804480935
4.163500419623101
4.200427252613103
4.261971974263091
4.2865898629231
4.2681264464281
4.237354085603107
4.218890669108104
4.212736196943095
4.231199613438097
4.243508557768089
4.243508557768089
4.231199613438097
4.200427252613103
4.237354085603107
4.249663029933098
4.249663029933098
4.249663029933098
4.225045141273086
4.200427252613103
4.212736196943095
4.218890669108104
4.225045141273086
4.212736196943095
4.200427252613103
4.200427252613103
4.218890669108104
4.2065817247780855
4.163500419623101
4.2065817247780855
4.243508557768089
4.249663029933098
4.243508557768089
4.231199613438097
4.231199613438097
4.231199613438097
4.225045141273086
4.218890669108104
4.1942727804480935
4.200427252613103
4.212736196943095
4.2065817247780855
4.2065817247780855
4.249663029933098
4.255817502098108
4.243508557768089
4.237354085603107
4.237354085603107
4.231199613438097
4.2065817247780855
4.2065817247780855
4.225045141273086
4.237354085603107
4.231199613438097
4.231199613438097
4.231199613438097
4.225045141273086
4.225045141273086
4.218890669108104
4.188118308283084
4.163500419623101
4.218890669108104
4.249663029933098
4.261971974263091
4.243508557768089
4.212736196943095
4.225045141273086
4.225045141273086
4.237354085603107
4.243508557768089
4.231199613438097
4.225045141273086
4.231199613438097
4.225045141273086
4.225045141273086
4.225045141273086
4.212736196943095
4.225045141273086
4.225045141273086
4.237354085603107
4.249663029933098
4.225045141273086
4.225045141273086
4.225045141273086
4.231199613438097
4.231199613438097
4.225045141273086
4.225045141273086
4.249663029933098
4.237354085603107
4.200427252613103
4.200427252613103
4.212736196943095
4.218890669108104
4.231199613438097
4.1942727804480935
4.151191475293081
4.188118308283084
4.237354085603107
4.243508557768089
4.237354085603107
4.225045141273086
4.225045141273086
4.243508557768089
4.225045141273086
4.2065817247780855
4.218890669108104
4.237354085603107
4.261971974263091
4.280435390758092
4.3173622237481215
4.348134584573115
4.329671168078114
4.2865898629231
4.218890669108104
4.1327280587980795
4.052719920653064
4.015793087663061
4.0465654484880815
4.120419114468088
4.151191475293081
4.1942727804480935
4.218890669108104
4.225045141273086
4.2065817247780855
4.145037003128072
4.1758093639530935
4.231199613438097
4.237354085603107
4.249663029933098
4.243508557768089
4.243508557768089
4.255817502098108
4.243508557768089
4.218890669108104
4.163500419623101
4.2065817247780855
4.212736196943095
4.212736196943095
4.218890669108104
4.231199613438097
4.231199613438097
4.225045141273086
4.243508557768089
4.255817502098108
4.2681264464281
4.2681264464281
4.261971974263091
4.261971974263091
4.2681264464281
4.2681264464281
4.280435390758092
4.2681264464281
4.243508557768089
4.249663029933098
4.249663029933098
4.27428091859311
4.27428091859311
4.255817502098108
4.1942727804480935
4.231199613438097
4.292744335088111
4.323516695913104
4.3173622237481215
4.298898807253093
4.305053279418103
4.292744335088111
4.2865898629231
4.298898807253093
4.292744335088111
4.292744335088111
4.305053279418103
4.292744335088111
4.3112077515831135
4.323516695913104
4.335825640243124
4.335825640243124
4.335825640243124
4.329671168078114
4.335825640243124
4.341980112408105
4.354289056738125
4.348134584573115
4.341980112408105
4.348134584573115
4.341980112408105
4.341980112408105
4.329671168078114
4.27428091859311
4.237354085603107
4.2681264464281
4.3112077515831135
4.329671168078114
4.298898807253093
4.280435390758092
4.261971974263091
4.243508557768089
4.237354085603107
4.218890669108104
4.237354085603107
4.249663029933098
4.243508557768089
4.243508557768089
4.225045141273086
4.225045141273086
4.218890669108104
4.188118308283084
4.249663029933098
4.249663029933098
4.237354085603107
4.243508557768089
4.243508557768089
4.225045141273086
4.2065817247780855
4.163500419623101
4.138882530963089
4.138882530963089
4.200427252613103
4.231199613438097
4.255817502098108
4.255817502098108
4.237354085603107
4.225045141273086
4.218890669108104
4.225045141273086
4.243508557768089
4.243508557768089
4.231199613438097
4.218890669108104
4.225045141273086
4.243508557768089
4.249663029933098
4.249663029933098
4.237354085603107
4.243508557768089
4.237354085603107
4.231199613438097
4.225045141273086
4.2065817247780855
4.1942727804480935
4.225045141273086
4.237354085603107
4.243508557768089
4.237354085603107
4.249663029933098
4.249663029933098
4.218890669108104
4.151191475293081
4.218890669108104
4.2865898629231
4.305053279418103
4.261971974263091
4.237354085603107
4.237354085603107
4.237354085603107
4.249663029933098
4.225045141273086
4.181963836118102
4.243508557768089
4.243508557768089
4.2065817247780855
4.1758093639530935
4.200427252613103
4.225045141273086
4.231199613438097
4.243508557768089
4.243508557768089
4.237354085603107
4.231199613438097
4.231199613438097
4.218890669108104
4.188118308283084
4.169654891788083
4.163500419623101
4.225045141273086
4.2681264464281
4.27428091859311
4.261971974263091
4.255817502098108
4.249663029933098
4.237354085603107
4.231199613438097
4.231199613438097
4.243508557768089
4.243508557768089
4.243508557768089
4.237354085603107
4.231199613438097
4.225045141273086
4.218890669108104
4.218890669108104
4.225045141273086
4.225045141273086
4.225045141273086
4.231199613438097
4.225045141273086
4.218890669108104
4.200427252613103
4.218890669108104
4.237354085603107
4.225045141273086
4.225045141273086
4.2065817247780855
4.1327280587980795
4.169654891788083
4.231199613438097
4.261971974263091
4.243508557768089
4.225045141273086
4.218890669108104
4.218890669108104
4.231199613438097
4.218890669108104
4.231199613438097
4.231199613438097
4.243508557768089
4.243508557768089
4.261971974263091
4.3173622237481215
4.354289056738125
4.354289056738125
4.298898807253093
4.218890669108104
4.145037003128072
4.083492281478085
4.052719920653064
4.065028864983084
4.114264642303079
4.151191475293081
4.188118308283084
4.218890669108104
4.218890669108104
4.163500419623101
4.1942727804480935
4.243508557768089
4.2681264464281
4.261971974263091
4.243508557768089
4.255817502098108
4.243508557768089
4.243508557768089
4.243508557768089
4.243508557768089
4.261971974263091
4.231199613438097
4.2065817247780855
4.212736196943095
4.237354085603107
4.249663029933098
4.243508557768089
4.225045141273086
4.243508557768089
4.255817502098108
4.255817502098108
4.243508557768089
4.249663029933098
4.249663029933098
4.237354085603107
4.243508557768089
4.237354085603107
4.231199613438097
4.218890669108104
4.181963836118102
4.231199613438097
4.2681264464281
4.2865898629231
4.27428091859311
4.261971974263091
4.261971974263091
4.2681264464281
4.261971974263091
4.261971974263091
4.2681264464281
4.27428091859311
4.2865898629231
4.2865898629231
4.292744335088111
4.292744335088111
4.2865898629231
4.2681264464281
4.335825640243124
4.360443528903107
4.360443528903107
4.335825640243124
4.323516695913104
4.298898807253093
4.27428091859311
4.298898807253093
4.3112077515831135
4.305053279418103
4.261971974263091
4.2681264464281
4.323516695913104
4.335825640243124
4.341980112408105
4.335825640243124
4.335825640243124
4.329671168078114
4.3173622237481215
4.305053279418103
4.292744335088111
4.27428091859311
4.261971974263091
4.255817502098108
4.249663029933098
4.237354085603107
4.225045141273086
4.225045141273086
4.212736196943095
4.2065817247780855
4.212736196943095
4.218890669108104
4.225045141273086
4.212736196943095
4.2065817247780855
4.200427252613103
4.200427252613103
4.2065817247780855
4.200427252613103
4.1327280587980795
4.145037003128072
4.2065817247780855
4.243508557768089
4.255817502098108
4.231199613438097
4.212736196943095
4.225045141273086
4.212736196943095
4.200427252613103
4.200427252613103
4.212736196943095
4.212736196943095
4.188118308283084
4.181963836118102
4.218890669108104
4.243508557768089
4.255817502098108
4.243508557768089
4.237354085603107
4.225045141273086
4.218890669108104
4.225045141273086
4.212736196943095
4.218890669108104
4.231199613438097
4.243508557768089
4.243508557768089
4.225045141273086
4.169654891788083
4.163500419623101
4.237354085603107
4.2865898629231
4.2681264464281
4.237354085603107
4.243508557768089
4.255817502098108
4.2681264464281
4.243508557768089
4.225045141273086
4.231199613438097
4.231199613438097
4.243508557768089
4.237354085603107
4.243508557768089
4.212736196943095
4.218890669108104
4.249663029933098
4.261971974263091
4.255817502098108
4.255817502098108
4.249663029933098
4.225045141273086
4.231199613438097
4.231199613438097
4.255817502098108
4.261971974263091
4.261971974263091
4.249663029933098
4.231199613438097
4.163500419623101
4.181963836118102
4.255817502098108
4.2865898629231
4.2865898629231
4.27428091859311
4.261971974263091
4.255817502098108
4.249663029933098
4.255817502098108
4.2681264464281
4.249663029933098
4.255817502098108
4.261971974263091
4.261971974263091
4.255817502098108
4.243508557768089
4.237354085603107
4.225045141273086
4.243508557768089
4.255817502098108
4.243508557768089
4.2065817247780855
4.237354085603107
4.237354085603107
4.261971974263091
4.27428091859311
4.2681264464281
4.249663029933098
4.249663029933098
4.243508557768089
4.188118308283084
4.188118308283084
4.249663029933098
4.27428091859311
4.2865898629231
4.2865898629231
4.27428091859311
4.261971974263091
4.200427252613103
4.249663029933098
4.298898807253093
4.2865898629231
4.2681264464281
4.2681264464281
4.2681264464281
4.255817502098108
4.237354085603107
4.27428091859311
4.335825640243124
4.3727524732331275
4.391215889728128
4.3727524732331275
4.298898807253093
4.188118308283084
4.108110170138069
4.083492281478085
4.108110170138069
4.145037003128072
4.2065817247780855
4.261971974263091
4.2681264464281
4.218890669108104
4.261971974263091
4.305053279418103
4.3112077515831135
4.298898807253093
4.2865898629231
4.280435390758092
4.292744335088111
4.2865898629231
4.2681264464281
4.280435390758092
4.292744335088111
4.292744335088111
4.298898807253093
4.292744335088111
4.305053279418103
4.305053279418103
4.27428091859311
4.27428091859311
4.27428091859311
4.27428091859311
4.292744335088111
4.298898807253093
4.212736196943095
4.237354085603107
4.305053279418103
4.3173622237481215
4.305053279418103
4.305053279418103
4.3173622237481215
4.298898807253093
4.292744335088111
4.3112077515831135
4.329671168078114
4.329671168078114
4.3112077515831135
4.298898807253093
4.305053279418103
4.3173622237481215
4.3173622237481215
4.3173622237481215
4.3112077515831135
4.329671168078114
4.354289056738125
4.3112077515831135
4.3173622237481215
4.3727524732331275
4.40352483405812
4.40967930622313
4.391215889728128
4.385061417563119
4.385061417563119
4.391215889728128
4.391215889728128
4.385061417563119
4.385061417563119
4.40967930622313
4.415833778388112
4.40967930622313
4.415833778388112
4.428142722718132
4.434297194883113
4.421988250553122
4.40352483405812
4.397370361893111
4.366598001068117
4.348134584573115
4.335825640243124
4.335825640243124
4.348134584573115
4.335825640243124
4.3112077515831135
4.305053279418103
4.280435390758092
4.237354085603107
4.2681264464281
4.3173622237481215
4.329671168078114
4.305053279418103
4.2865898629231
4.298898807253093
4.27428091859311
4.231199613438097
4.298898807253093
4.305053279418103
4.298898807253093
4.261971974263091
4.237354085603107
4.261971974263091
4.261971974263091
4.261971974263091
4.255817502098108
4.2681264464281
4.292744335088111
4.3112077515831135
4.305053279418103
4.27428091859311
4.255817502098108
4.243508557768089
4.261971974263091
4.2865898629231
4.225045141273086
4.225045141273086
4.2865898629231
4.305053279418103
4.323516695913104
4.305053279418103
4.298898807253093
4.305053279418103
4.305053279418103
4.292744335088111
4.298898807253093
4.280435390758092
4.2681264464281
4.280435390758092
4.292744335088111
4.292744335088111
4.280435390758092
4.2865898629231
4.2865898629231
4.292744335088111
4.292744335088111
4.280435390758092
4.2681264464281
4.280435390758092
4.280435390758092
4.27428091859311
4.280435390758092
4.2865898629231
4.3112077515831135
4.249663029933098
4.237354085603107
4.2865898629231
4.323516695913104
4.323516695913104
4.2865898629231
4.2681264464281
4.2681264464281
4.292744335088111
4.298898807253093
4.298898807253093
4.2865898629231
4.298898807253093
4.2865898629231
4.2865898629231
4.292744335088111
4.292744335088111
4.2865898629231
4.27428091859311
4.2681264464281
4.2865898629231
4.298898807253093
4.280435390758092
4.27428091859311
4.280435390758092
4.2865898629231
4.2865898629231
4.292744335088111
4.2865898629231
4.2065817247780855
4.212736196943095
4.280435390758092
4.323516695913104
4.341980112408105
4.323516695913104
4.323516695913104
4.3112077515831135
4.3112077515831135
4.305053279418103
4.298898807253093
4.3112077515831135
4.3112077515831135
4.305053279418103
4.292744335088111
4.2865898629231
4.298898807253093
4.292744335088111
4.2865898629231
4.2681264464281
4.255817502098108
4.27428091859311
4.2865898629231
4.292744335088111
4.27428091859311
4.261971974263091
4.261971974263091
4.280435390758092
4.2865898629231
4.298898807253093
4.292744335088111
4.237354085603107
4.237354085603107
4.280435390758092
4.305053279418103
4.3173622237481215
4.3173622237481215
4.329671168078114
4.354289056738125
4.40967930622313
4.440451667048122
4.421988250553122
4.391215889728128
4.292744335088111
4.169654891788083
4.0711833371480655
4.120419114468088
4.169654891788083
4.243508557768089
4.298898807253093
4.2865898629231
4.280435390758092
4.255817502098108
4.249663029933098
4.27428091859311
4.292744335088111
4.2865898629231
4.2865898629231
4.2865898629231
4.237354085603107
4.225045141273086
4.27428091859311
4.323516695913104
4.341980112408105
4.3112077515831135
4.3112077515831135
4.305053279418103
4.280435390758092
4.298898807253093
4.323516695913104
4.3112077515831135
4.305053279418103
4.2865898629231
4.292744335088111
4.292744335088111
4.2681264464281
4.2865898629231
4.3173622237481215
4.335825640243124
4.341980112408105
4.341980112408105
4.329671168078114
4.323516695913104
4.3173622237481215
4.305053279418103
4.3173622237481215
4.329671168078114
4.341980112408105
4.335825640243124
4.329671168078114
4.3173622237481215
4.249663029933098
4.2681264464281
4.335825640243124
4.366598001068117
4.366598001068117
4.354289056738125
4.3727524732331275
4.366598001068117
4.366598001068117
4.360443528903107
4.366598001068117
4.3727524732331275
4.37890694539811
4.397370361893111
4.385061417563119
4.360443528903107
4.385061417563119
4.421988250553122
4.434297194883113
4.40967930622313
4.40967930622313
4.421988250553122
4.428142722718132
4.421988250553122
4.421988250553122
4.428142722718132
4.397370361893111
4.385061417563119
4.37890694539811
4.335825640243124
4.261971974263091
4.3173622237481215
4.360443528903107
4.341980112408105
4.298898807253093
4.27428091859311
4.280435390758092
4.261971974263091
4.261971974263091
4.243508557768089
4.2681264464281
4.3112077515831135
4.298898807253093
4.2865898629231
4.2865898629231
4.261971974263091
4.249663029933098
4.212736196943095
4.212736196943095
4.225045141273086
4.243508557768089
4.243508557768089
4.243508557768089
4.237354085603107
4.249663029933098
4.218890669108104
4.2065817247780855
4.255817502098108
4.298898807253093
4.280435390758092
4.261971974263091
4.280435390758092
4.2865898629231
4.2865898629231
4.261971974263091
4.243508557768089
4.225045141273086
4.237354085603107
4.255817502098108
4.261971974263091
4.261971974263091
4.249663029933098
4.249663029933098
4.2681264464281
4.280435390758092
4.261971974263091
4.218890669108104
4.27428091859311
4.237354085603107
4.188118308283084
4.1942727804480935
4.212736196943095
4.2065817247780855
4.145037003128072
4.169654891788083
4.231199613438097
4.249663029933098
4.261971974263091
4.243508557768089
4.225045141273086
4.231199613438097
4.225045141273086
4.218890669108104
4.249663029933098
4.261971974263091
4.261971974263091
4.261971974263091
4.255817502098108
4.249663029933098
4.237354085603107
4.243508557768089
4.249663029933098
4.261971974263091
4.2681264464281
4.2681264464281
4.2681264464281
4.261971974263091
4.2681264464281
4.2681264464281
4.249663029933098
4.255817502098108
4.218890669108104
4.145037003128072
4.212736196943095
4.280435390758092
4.305053279418103
4.298898807253093
4.27428091859311
4.27428091859311
4.261971974263091
4.2681264464281
4.249663029933098
4.249663029933098
4.261971974263091
4.261971974263091
4.27428091859311
4.280435390758092
4.305053279418103
4.305053279418103
4.292744335088111
4.2865898629231
4.2681264464281
4.261971974263091
4.2681264464281
4.2865898629231
4.280435390758092
4.2681264464281
4.27428091859311
4.261971974263091
4.243508557768089
4.261971974263091
4.243508557768089
4.200427252613103
4.249663029933098
4.3112077515831135
4.329671168078114
4.3173622237481215
4.298898807253093
4.292744335088111
4.292744335088111
4.2865898629231
4.27428091859311
4.280435390758092
4.280435390758092
4.261971974263091
4.255817502098108
4.280435390758092
4.298898807253093
4.329671168078114
4.366598001068117
4.40352483405812
4.40967930622313
4.360443528903107
4.298898807253093
4.212736196943095
4.114264642303079
4.058874392818074
4.089646753643067
4.157345947458091
4.200427252613103
4.181963836118102
4.188118308283084
4.2681264464281
4.305053279418103
4.323516695913104
4.3112077515831135
4.298898807253093
4.298898807253093
4.298898807253093
4.292744335088111
4.280435390758092
4.2681264464281
4.261971974263091
4.2865898629231
4.298898807253093
4.298898807253093
4.298898807253093
4.2865898629231
4.280435390758092
4.27428091859311
4.2865898629231
4.3173622237481215
4.3173622237481215
4.298898807253093
4.292744335088111
4.2865898629231
4.280435390758092
4.2865898629231
4.2681264464281
4.3173622237481215
4.3173622237481215
4.2681264464281
4.231199613438097
4.249663029933098
4.292744335088111
4.3173622237481215
4.298898807253093
4.292744335088111
4.292744335088111
4.3112077515831135
4.3112077515831135
4.298898807253093
4.3173622237481215
4.323516695913104
4.3112077515831135
4.3112077515831135
4.329671168078114
4.329671168078114
4.335825640243124
4.348134584573115
4.354289056738125
4.366598001068117
4.360443528903107
4.360443528903107
4.366598001068117
4.3727524732331275
4.37890694539811
4.3727524732331275
4.37890694539811
4.385061417563119
4.335825640243124
4.354289056738125
4.397370361893111
4.421988250553122
4.40352483405812
4.385061417563119
4.3727524732331275
4.354289056738125
4.348134584573115
4.360443528903107
4.348134584573115
4.341980112408105
4.329671168078114
4.3173622237481215
4.305053279418103
4.27428091859311
4.261971974263091
4.261971974263091
4.280435390758092
4.27428091859311
4.261971974263091
4.261971974263091
4.2681264464281
4.255817502098108
4.255817502098108
4.249663029933098
4.237354085603107
4.237354085603107
4.249663029933098
4.2681264464281
4.261971974263091
4.231199613438097
4.212736196943095
4.2681264464281
4.3112077515831135
4.298898807253093
4.2865898629231
4.280435390758092
4.280435390758092
4.280435390758092
4.292744335088111
4.298898807253093
4.280435390758092
4.2865898629231
4.2865898629231
4.280435390758092
4.292744335088111
4.305053279418103
4.292744335088111
4.2681264464281
4.280435390758092
4.280435390758092
4.2681264464281
4.261971974263091
4.261971974263091
4.2865898629231
4.298898807253093
4.249663029933098
4.212736196943095
4.261971974263091
4.3112077515831135
4.323516695913104
4.2865898629231
4.27428091859311
4.261971974263091
4.2681264464281
4.2681264464281
4.261971974263091
4.261971974263091
4.27428091859311
4.27428091859311
4.261971974263091
4.27428091859311
4.2681264464281
4.2681264464281
4.255817502098108
4.255817502098108
4.255817502098108
4.280435390758092
4.305053279418103
4.298898807253093
4.280435390758092
4.2681264464281
4.261971974263091
4.261971974263091
4.255817502098108
4.231199613438097
4.200427252613103
4.243508557768089
4.249663029933098
4.231199613438097
4.2865898629231
4.280435390758092
4.280435390758092
4.298898807253093
4.298898807253093
4.298898807253093
4.2865898629231
4.255817502098108
4.255817502098108
4.261971974263091
4.27428091859311
4.261971974263091
4.2681264464281
4.27428091859311
4.2865898629231
4.292744335088111
4.27428091859311
4.27428091859311
4.280435390758092
4.27428091859311
4.27428091859311
4.280435390758092
4.255817502098108
4.255817502098108
4.261971974263091
4.255817502098108
4.200427252613103
4.231199613438097
4.27428091859311
4.305053279418103
4.27428091859311
4.225045141273086
4.280435390758092
4.298898807253093
4.298898807253093
4.305053279418103
4.292744335088111
4.280435390758092
4.249663029933098
4.225045141273086
4.249663029933098
4.261971974263091
4.2681264464281
4.280435390758092
4.2865898629231
4.305053279418103
4.3173622237481215
4.348134584573115
4.385061417563119
4.3727524732331275
4.323516695913104
4.231199613438097
4.120419114468088
4.052719920653064
4.058874392818074
4.083492281478085
4.138882530963089
4.243508557768089
4.3112077515831135
4.3173622237481215
4.280435390758092
4.27428091859311
4.27428091859311
4.280435390758092
4.280435390758092
4.27428091859311
4.261971974263091
4.261971974263091
4.2865898629231
4.305053279418103
4.298898807253093
4.2681264464281
4.255817502098108
4.27428091859311
4.2865898629231
4.305053279418103
4.292744335088111
4.2865898629231
4.2865898629231
4.2865898629231
4.2681264464281
4.27428091859311
4.2681264464281
4.212736196943095
4.261971974263091
4.3173622237481215
4.323516695913104
4.305053279418103
4.298898807253093
4.305053279418103
4.298898807253093
4.298898807253093
4.298898807253093
4.2865898629231
4.2865898629231
4.305053279418103
4.298898807253093
4.2865898629231
4.292744335088111
4.2865898629231
4.305053279418103
4.305053279418103
4.3112077515831135
4.329671168078114
4.341980112408105
4.341980112408105
4.329671168078114
4.3173622237481215
4.335825640243124
4.335825640243124
4.341980112408105
4.341980112408105
4.3112077515831135
4.3173622237481215
4.3727524732331275
4.40352483405812
4.385061417563119
4.37890694539811
4.354289056738125
4.360443528903107
4.37890694539811
4.3727524732331275
4.397370361893111
4.385061417563119
4.348134584573115
4.335825640243124
4.348134584573115
4.335825640243124
4.323516695913104
4.3112077515831135
4.3112077515831135
4.298898807253093
4.280435390758092
4.27428091859311
4.261971974263091
4.255817502098108
4.255817502098108
4.261971974263091
4.27428091859311
4.261971974263091
4.255817502098108
4.255817502098108
4.188118308283084
4.1942727804480935
4.255817502098108
4.280435390758092
4.2681264464281
4.27428091859311
4.27428091859311
4.261971974263091
4.27428091859311
4.27428091859311
4.255817502098108
4.261971974263091
4.27428091859311
4.255817502098108
4.2681264464281
4.261971974263091
4.249663029933098
4.249663029933098
4.225045141273086
4.225045141273086
4.261971974263091
4.27428091859311
4.292744335088111
4.280435390758092
4.2681264464281
4.2681264464281
4.2681264464281
4.2681264464281
4.27428091859311
4.231199613438097
4.169654891788083
4.212736196943095
4.27428091859311
4.305053279418103
4.292744335088111
4.2865898629231
4.27428091859311
4.2681264464281
4.261971974263091
4.27428091859311
4.2681264464281
4.261971974263091
4.231199613438097
4.237354085603107
4.255817502098108
4.249663029933098
4.261971974263091
4.261971974263091
4.255817502098108
4.249663029933098
4.249663029933098
4.231199613438097
4.218890669108104
4.231199613438097
4.255817502098108
4.261971974263091
4.261971974263091
4.255817502098108
4.255817502098108
4.225045141273086
4.169654891788083
4.212736196943095
4.280435390758092
4.305053279418103
4.292744335088111
4.27428091859311
4.261971974263091
4.261971974263091
4.255817502098108
4.261971974263091
4.261971974263091
4.243508557768089
4.255817502098108
4.249663029933098
4.280435390758092
4.27428091859311
4.249663029933098
4.243508557768089
4.243508557768089
4.255817502098108
4.261971974263091
4.2681264464281
4.280435390758092
4.280435390758092
4.261971974263091
4.261971974263091
4.2681264464281
4.261971974263091
4.255817502098108
4.255817502098108
4.2065817247780855
4.212736196943095
4.225045141273086
4.249663029933098
4.280435390758092
4.305053279418103
4.292744335088111
4.2865898629231
4.27428091859311
4.255817502098108
4.261971974263091
4.231199613438097
4.292744335088111
4.292744335088111
4.2865898629231
4.280435390758092
4.261971974263091
4.2065817247780855
4.2065817247780855
4.231199613438097
4.255817502098108
4.249663029933098
4.2681264464281
4.280435390758092
4.27428091859311
4.2681264464281
4.3112077515831135
4.366598001068117
4.391215889728128
4.37890694539811
4.323516695913104
4.212736196943095
4.065028864983084
4.040410976323072
4.089646753643067
4.169654891788083
4.237354085603107
4.255817502098108
4.27428091859311
4.280435390758092
4.2681264464281
4.237354085603107
4.237354085603107
4.255817502098108
4.2681264464281
4.27428091859311
4.27428091859311
4.255817502098108
4.2681264464281
4.2865898629231
4.2865898629231
4.2865898629231
4.280435390758092
4.2865898629231
4.2865898629231
4.292744335088111
4.292744335088111
4.298898807253093
4.2865898629231
4.249663029933098
4.218890669108104
4.261971974263091
4.323516695913104
4.329671168078114
4.3173622237481215
4.292744335088111
4.292744335088111
4.305053279418103
4.305053279418103
4.305053279418103
4.3112077515831135
4.305053279418103
4.3112077515831135
4.329671168078114
4.3112077515831135
4.3173622237481215
4.3112077515831135
4.3112077515831135
4.305053279418103
4.2865898629231
4.280435390758092
4.2865898629231
4.3112077515831135
4.341980112408105
4.335825640243124
4.3173622237481215
4.329671168078114
4.354289056738125
4.3727524732331275
4.385061417563119
4.385061417563119
4.360443528903107
4.323516695913104
4.3727524732331275
4.421988250553122
4.421988250553122
4.40967930622313
4.397370361893111
4.397370361893111
4.40967930622313
4.40352483405812
4.40352483405812
4.397370361893111
4.397370361893111
4.391215889728128
4.391215889728128
4.3727524732331275
4.354289056738125
4.341980112408105
4.323516695913104
4.298898807253093
4.255817502098108
4.298898807253093
4.2865898629231
4.2865898629231
4.298898807253093
4.298898807253093
4.2865898629231
4.261971974263091
4.218890669108104
4.237354085603107
4.2065817247780855
4.188118308283084
4.249663029933098
4.280435390758092
4.280435390758092
4.249663029933098
4.237354085603107
4.261971974263091
4.27428091859311
4.27428091859311
4.27428091859311
4.255817502098108
4.218890669108104
4.225045141273086
4.218890669108104
4.237354085603107
4.255817502098108
4.261971974263091
4.2681264464281
4.280435390758092
4.261971974263091
4.27428091859311
4.2865898629231
4.27428091859311
4.2681264464281
4.261971974263091
4.261971974263091
4.2681264464281
4.280435390758092
4.27428091859311
4.255817502098108
4.212736196943095
4.200427252613103
4.2681264464281
4.280435390758092
4.2865898629231
4.292744335088111
4.27428091859311
4.243508557768089
4.255817502098108
4.261971974263091
4.255817502098108
4.237354085603107
4.249663029933098
4.243508557768089
4.225045141273086
4.2065817247780855
4.243508557768089
4.305053279418103
4.3112077515831135
4.305053279418103
4.298898807253093
4.292744335088111
4.2865898629231
4.280435390758092
4.280435390758092
4.2865898629231
4.280435390758092
4.27428091859311
4.27428091859311
4.231199613438097
4.200427252613103
4.249663029933098
4.2681264464281
4.27428091859311
4.27428091859311
4.292744335088111
4.298898807253093
4.305053279418103
4.298898807253093
4.27428091859311
4.27428091859311
4.261971974263091
4.261971974263091
4.261971974263091
4.249663029933098
4.2681264464281
4.255817502098108
4.255817502098108
4.249663029933098
4.255817502098108
4.261971974263091
4.261971974263091
4.261971974263091
4.2681264464281
4.2681264464281
4.27428091859311
4.243508557768089
4.188118308283084
4.218890669108104
4.2681264464281
4.3173622237481215
4.305053279418103
4.280435390758092
4.27428091859311
4.27428091859311
4.27428091859311
4.237354085603107
4.218890669108104
4.255817502098108
4.280435390758092
4.280435390758092
4.280435390758092
4.298898807253093
4.27428091859311
4.27428091859311
4.261971974263091
4.255817502098108
4.261971974263091
4.261971974263091
4.261971974263091
4.249663029933098
4.243508557768089
4.243508557768089
4.249663029933098
4.27428091859311
4.305053279418103
4.354289056738125
4.391215889728128
4.397370361893111
4.3173622237481215
4.3112077515831135
4.2681264464281
4.1942727804480935
4.12657358663307
4.095801225808078
4.138882530963089
4.2065817247780855
4.243508557768089
4.2681264464281
4.261971974263091
4.261971974263091
4.255817502098108
4.237354085603107
4.2065817247780855
4.280435390758092
4.27428091859311
4.261971974263091
4.212736196943095
4.218890669108104
4.249663029933098
4.2681264464281
4.2681264464281
4.261971974263091
4.2681264464281
4.261971974263091
4.261971974263091
4.255817502098108
4.2065817247780855
4.212736196943095
4.255817502098108
4.298898807253093
4.3112077515831135
4.305053279418103
4.3112077515831135
4.305053279418103
4.298898807253093
4.305053279418103
4.298898807253093
4.280435390758092
4.27428091859311
4.27428091859311
4.27428091859311
4.298898807253093
4.3173622237481215
4.323516695913104
4.3173622237481215
4.3112077515831135
4.323516695913104
4.3112077515831135
4.323516695913104
4.329671168078114
4.329671168078114
4.323516695913104
4.323516695913104
4.3173622237481215
4.323516695913104
4.329671168078114
4.280435390758092
4.261971974263091
4.323516695913104
4.3727524732331275
