-1.7386383866127564
-1.7509473309427481
-1.7755652196027594
-1.7755652196027594
-1.7509473309427481
-1.7447928587777384
-1.7817196917677414
-1.7878741639327511
-1.7817196917677414
-1.7878741639327511
-1.7817196917677414
-1.7940286360977609
-1.757101803107758
-1.7447928587777384
-1.7509473309427481
-1.7509473309427481
-1.7447928587777384
-1.7263294422827367
-1.7324839144477464
-1.7324839144477464
-1.7324839144477464
-1.7263294422827367
-1.7324839144477464
-1.7324839144477464
-1.7324839144477464
-1.7509473309427481
-1.7201749701177547
-1.6709391927977324
-1.6647847206327224
-1.6709391927977324
-1.677093664962742
-1.683248137127724
-1.6709391927977324
-1.6647847206327224
-1.6709391927977324
-1.6709391927977324
-1.6647847206327224
-1.6647847206327224
-1.6709391927977324
-1.677093664962742
-1.683248137127724
-1.7017115536227536
-1.7140204979527456
-1.7386383866127564
-1.7755652196027594
-1.8248009969227534
-1.818646524757745
-1.818646524757745
-1.8432644134177558
-1.8678823020777668
-1.8801912464077586
-1.8801912464077586
-1.8801912464077586
-1.8863457185727683
-1.8801912464077586
-1.8801912464077586
-1.892500190737778
-1.9048091350677696
-1.8863457185727683
-1.892500190737778
-1.9048091350677696
-1.9294270237277809
-1.9232725515627715
-1.892500190737778
-1.8801912464077586
-1.892500190737778
-1.8863457185727683
-1.8863457185727683
-1.892500190737778
-1.9171180793977614
-1.861727829912757
-1.8432644134177558
-1.849418885582765
-1.8432644134177558
-1.8432644134177558
-1.8432644134177558
-1.861727829912757
-1.9048091350677696
-1.892500190737778
-1.8740367742427766
-1.8801912464077586
-1.8863457185727683
-1.8678823020777668
-1.861727829912757
-1.8801912464077586
-1.8740367742427766
-1.861727829912757
-1.861727829912757
-1.8678823020777668
-1.8678823020777668
-1.8678823020777668
-1.855573357747775
-1.855573357747775
-1.861727829912757
-1.8678823020777668
-1.849418885582765
-1.830955469087764
-1.855573357747775
-1.849418885582765
-1.8371099412527454
-1.8248009969227534
-1.8432644134177558
-1.830955469087764
-1.8248009969227534
-1.8371099412527454
-1.830955469087764
-1.8432644134177558
-1.849418885582765
-1.8432644134177558
-1.8371099412527454
-1.8432644134177558
-1.8678823020777668
-1.855573357747775
-1.8371099412527454
-1.849418885582765
-1.855573357747775
-1.8371099412527454
-1.830955469087764
-1.8678823020777668
-1.8432644134177558
-1.830955469087764
-1.8432644134177558
-1.8432644134177558
-1.849418885582765
-1.849418885582765
-1.8432644134177558
-1.830955469087764
-1.8432644134177558
-1.830955469087764
-1.830955469087764
-1.8248009969227534
-1.8371099412527454
-1.8432644134177558
-1.8248009969227534
-1.818646524757745
-1.8248009969227534
-1.8124920525927626
-1.818646524757745
-1.8124920525927626
-1.8063375804277528
-1.818646524757745
-1.818646524757745
-1.8063375804277528
-1.8063375804277528
-1.8248009969227534
-1.8063375804277528
-1.7878741639327511
-1.7878741639327511
-1.7940286360977609
-1.8063375804277528
-1.7940286360977609
-1.7940286360977609
-1.7878741639327511
-1.7878741639327511
-1.7878741639327511
-1.7878741639327511
-1.7878741639327511
-1.7878741639327511
-1.7940286360977609
-1.8001831082627426
-1.8001831082627426
-1.8001831082627426
-1.7940286360977609
-1.7817196917677414
-1.7694107474377496
-1.7694107474377496
-1.7817196917677414
-1.8001831082627426
-1.7878741639327511
-1.7755652196027594
-1.7694107474377496
-1.7694107474377496
-1.7755652196027594
-1.7940286360977609
-1.7755652196027594
-1.757101803107758
-1.7632562752727399
-1.757101803107758
-1.7632562752727399
-1.7632562752727399
-1.7632562752727399
-1.7694107474377496
-1.7694107474377496
-1.7632562752727399
-1.757101803107758
-1.7755652196027594
-1.7632562752727399
-1.7632562752727399
-1.7755652196027594
-1.7940286360977609
-1.757101803107758
-1.7201749701177547
-1.6955570814577436
-1.7078660257877356
-1.7324839144477464
-1.7817196917677414
-1.7817196917677414
-1.7755652196027594
-1.7632562752727399
-1.7694107474377496
-1.7632562752727399
-1.7509473309427481
-1.7447928587777384
-1.7632562752727399
-1.7755652196027594
-1.7755652196027594
-1.757101803107758
-1.757101803107758
-1.7632562752727399
-1.7386383866127564
-1.7509473309427481
-1.7632562752727399
-1.7509473309427481
-1.757101803107758
-1.7447928587777384
-1.7509473309427481
-1.7632562752727399
-1.7632562752727399
-1.7632562752727399
-1.7817196917677414
-1.7755652196027594
-1.7632562752727399
-1.757101803107758
-1.7509473309427481
-1.7509473309427481
-1.7509473309427481
-1.7509473309427481
-1.7694107474377496
-1.7817196917677414
-1.7817196917677414
-1.7632562752727399
-1.7386383866127564
-1.7324839144477464
-1.7263294422827367
-1.7201749701177547
-1.7201749701177547
-1.7263294422827367
-1.7263294422827367
-1.7447928587777384
-1.7447928587777384
-1.7447928587777384
-1.7509473309427481
-1.757101803107758
-1.7632562752727399
-1.7694107474377496
-1.7755652196027594
-1.7694107474377496
-1.757101803107758
-1.7509473309427481
-1.7386383866127564
-1.7447928587777384
-1.7509473309427481
-1.7632562752727399
-1.7632562752727399
-1.7632562752727399
-1.7447928587777384
-1.757101803107758
-1.7632562752727399
-1.7509473309427481
-1.7447928587777384
-1.7509473309427481
-1.7509473309427481
-1.7017115536227536
-1.615548943312728
-1.4986139721777092
-1.3816790010426905
-1.3078253350626845
-1.3755245288776807
-1.4924595000126994
-1.6032399989827366
-1.7755652196027594
-1.954044912387765
-2.070979883522784
-2.089443300017785
-1.9601993845527748
-1.8124920525927626
-1.757101803107758
-1.7201749701177547
-1.7201749701177547
-1.7447928587777384
-1.7386383866127564
-1.7386383866127564
-1.7324839144477464
-1.7386383866127564
-1.7509473309427481
-1.7509473309427481
-1.7447928587777384
-1.7509473309427481
-1.7386383866127564
-1.7447928587777384
-1.7386383866127564
-1.7324839144477464
-1.7324839144477464
-1.7447928587777384
-1.7447928587777384
-1.7263294422827367
-1.7263294422827367
-1.7324839144477464
-1.7386383866127564
-1.7694107474377496
-1.7324839144477464
-1.7140204979527456
-1.7324839144477464
-1.7201749701177547
-1.7078660257877356
-1.7201749701177547
-1.7201749701177547
-1.7078660257877356
-1.7201749701177547
-1.7078660257877356
-1.7017115536227536
-1.7263294422827367
-1.7263294422827367
-1.7263294422827367
-1.7140204979527456
-1.683248137127724
-1.7078660257877356
-1.6955570814577436
-1.677093664962742
-1.677093664962742
-1.683248137127724
-1.7201749701177547
-1.7263294422827367
-1.7078660257877356
-1.7017115536227536
-1.7140204979527456
-1.7140204979527456
-1.7078660257877356
-1.689402609292734
-1.683248137127724
-1.683248137127724
-1.689402609292734
-1.7017115536227536
-1.677093664962742
-1.6586302484677409
-1.6401668319727392
-1.6340123598077294
-1.6340123598077294
-1.6401668319727392
-1.6401668319727392
-1.6463213041377216
-1.6647847206327224
-1.6524757763027313
-1.615548943312728
-1.6032399989827366
-1.6093944711477182
-1.6093944711477182
-1.6217034154777374
-1.6278578876427194
-1.6340123598077294
-1.6340123598077294
-1.6524757763027313
-1.6586302484677409
-1.689402609292734
-1.7140204979527456
-1.7324839144477464
-1.757101803107758
-1.7878741639327511
-1.7878741639327511
-1.7940286360977609
-1.8063375804277528
-1.8248009969227534
-1.8432644134177558
-1.830955469087764
-1.8124920525927626
-1.8371099412527454
-1.849418885582765
-1.8432644134177558
-1.818646524757745
-1.818646524757745
-1.830955469087764
-1.8248009969227534
-1.818646524757745
-1.8124920525927626
-1.8248009969227534
-1.8248009969227534
-1.8371099412527454
-1.861727829912757
-1.849418885582765
-1.849418885582765
-1.818646524757745
-1.8001831082627426
-1.7878741639327511
-1.8001831082627426
-1.8001831082627426
-1.7817196917677414
-1.7878741639327511
-1.7817196917677414
-1.8063375804277528
-1.7940286360977609
-1.7694107474377496
-1.7940286360977609
-1.7878741639327511
-1.7632562752727399
-1.7694107474377496
-1.7632562752727399
-1.7694107474377496
-1.7817196917677414
-1.7878741639327511
-1.7755652196027594
-1.757101803107758
-1.7509473309427481
-1.7509473309427481
-1.7509473309427481
-1.757101803107758
-1.7632562752727399
-1.7755652196027594
-1.7509473309427481
-1.7386383866127564
-1.7447928587777384
-1.7509473309427481
-1.7509473309427481
-1.7447928587777384
-1.7447928587777384
-1.7755652196027594
-1.7694107474377496
-1.7386383866127564
-1.7509473309427481
-1.7632562752727399
-1.7509473309427481
-1.7324839144477464
-1.7263294422827367
-1.7386383866127564
-1.7386383866127564
-1.7386383866127564
-1.7386383866127564
-1.7447928587777384
-1.7447928587777384
-1.7509473309427481
-1.7447928587777384
-1.7386383866127564
-1.7447928587777384
-1.7509473309427481
-1.7694107474377496
-1.7755652196027594
-1.7386383866127564
-1.7140204979527456
-1.7263294422827367
-1.7509473309427481
-1.7817196917677414
-1.7817196917677414
-1.7878741639327511
-1.7632562752727399
-1.7509473309427481
-1.7694107474377496
-1.7755652196027594
-1.7878741639327511
-1.7940286360977609
-1.7694107474377496
-1.7447928587777384
-1.7447928587777384
-1.7509473309427481
-1.7509473309427481
-1.7509473309427481
-1.7509473309427481
-1.7632562752727399
-1.7694107474377496
-1.757101803107758
-1.757101803107758
-1.7509473309427481
-1.7447928587777384
-1.757101803107758
-1.757101803107758
-1.757101803107758
-1.7632562752727399
-1.757101803107758
-1.7755652196027594
-1.7940286360977609
-1.7694107474377496
-1.7324839144477464
-1.7447928587777384
-1.757101803107758
-1.7447928587777384
-1.7386383866127564
-1.7263294422827367
-1.7201749701177547
-1.7324839144477464
-1.7447928587777384
-1.7386383866127564
-1.7324839144477464
-1.7447928587777384
-1.7386383866127564
-1.7324839144477464
-1.7509473309427481
-1.757101803107758
-1.7509473309427481
-1.757101803107758
-1.7632562752727399
-1.7632562752727399
-1.7632562752727399
-1.757101803107758
-1.7509473309427481
-1.7386383866127564
-1.7632562752727399
-1.7755652196027594
-1.7509473309427481
-1.757101803107758
-1.7878741639327511
-1.7755652196027594
-1.7324839144477464
-1.7386383866127564
-1.7263294422827367
-1.7140204979527456
-1.689402609292734
-1.615548943312728
-1.4863050278477177
-1.3693700567126987
-1.2955163907326928
-1.3324432237226955
-1.4493781948577145
-1.5663131659927332
-1.7324839144477464
-1.892500190737778
-2.003280689707787
-2.0278985783677985
-1.9601993845527748
-1.8678823020777668
-1.7755652196027594
-1.7263294422827367
-1.6955570814577436
-1.7078660257877356
-1.7078660257877356
-1.7140204979527456
-1.7324839144477464
-1.7509473309427481
-1.7263294422827367
-1.7017115536227536
-1.7140204979527456
-1.7201749701177547
-1.689402609292734
-1.689402609292734
-1.6955570814577436
-1.6955570814577436
-1.689402609292734
-1.689402609292734
-1.7078660257877356
-1.6955570814577436
-1.689402609292734
-1.6955570814577436
-1.677093664962742
-1.683248137127724
-1.683248137127724
-1.6955570814577436
-1.683248137127724
-1.6709391927977324
-1.683248137127724
-1.689402609292734
-1.683248137127724
-1.683248137127724
-1.6955570814577436
-1.689402609292734
-1.689402609292734
-1.689402609292734
-1.6586302484677409
-1.6524757763027313
-1.689402609292734
-1.689402609292734
-1.6709391927977324
-1.6463213041377216
-1.6401668319727392
-1.6463213041377216
-1.6401668319727392
-1.6524757763027313
-1.6524757763027313
-1.6586302484677409
-1.6955570814577436
-1.6955570814577436
-1.683248137127724
-1.689402609292734
-1.6647847206327224
-1.6463213041377216
-1.6340123598077294
-1.6401668319727392
-1.6340123598077294
-1.6463213041377216
-1.6217034154777374
-1.6032399989827366
-1.6217034154777374
-1.615548943312728
-1.6032399989827366
-1.6093944711477182
-1.5970855268177266
-1.590931054652717
-1.590931054652717
-1.5847765824877347
-1.590931054652717
-1.5847765824877347
-1.5847765824877347
-1.5724676381577152
-1.5663131659927332
-1.578622110322725
-1.6093944711477182
-1.6340123598077294
-1.6709391927977324
-1.689402609292734
-1.7140204979527456
-1.7324839144477464
-1.757101803107758
-1.7755652196027594
-1.7940286360977609
-1.8248009969227534
-1.8124920525927626
-1.8063375804277528
-1.8124920525927626
-1.8063375804277528
-1.8124920525927626
-1.818646524757745
-1.8432644134177558
-1.8248009969227534
-1.8063375804277528
-1.830955469087764
-1.8432644134177558
-1.8432644134177558
-1.8124920525927626
-1.7940286360977609
-1.8063375804277528
-1.8063375804277528
-1.8124920525927626
-1.8063375804277528
-1.8124920525927626
-1.8124920525927626
-1.7940286360977609
-1.7878741639327511
-1.7940286360977609
-1.8001831082627426
-1.8063375804277528
-1.7817196917677414
-1.7878741639327511
-1.7817196917677414
-1.7694107474377496
-1.7755652196027594
-1.7940286360977609
-1.8432644134177558
-1.8432644134177558
-1.8248009969227534
-1.818646524757745
-1.861727829912757
-1.8248009969227534
-1.8124920525927626
-1.8063375804277528
-1.7940286360977609
-1.7940286360977609
-1.7940286360977609
-1.7940286360977609
-1.8063375804277528
-1.8063375804277528
-1.8063375804277528
-1.7817196917677414
-1.7509473309427481
-1.7694107474377496
-1.7878741639327511
-1.7940286360977609
-1.8001831082627426
-1.7940286360977609
-1.7878741639327511
-1.7817196917677414
-1.7694107474377496
-1.7755652196027594
-1.7878741639327511
-1.8063375804277528
-1.7878741639327511
-1.7878741639327511
-1.7878741639327511
-1.7878741639327511
-1.7694107474377496
-1.7755652196027594
-1.7755652196027594
-1.7817196917677414
-1.7878741639327511
-1.7878741639327511
-1.7878741639327511
-1.7817196917677414
-1.7878741639327511
-1.7817196917677414
-1.7817196917677414
-1.757101803107758
-1.757101803107758
-1.7694107474377496
-1.7632562752727399
-1.757101803107758
-1.7140204979527456
-1.7263294422827367
-1.757101803107758
-1.8124920525927626
-1.8063375804277528
-1.8124920525927626
-1.8063375804277528
-1.7878741639327511
-1.7509473309427481
-1.7509473309427481
-1.7632562752727399
-1.7509473309427481
-1.7632562752727399
-1.7694107474377496
-1.7878741639327511
-1.7755652196027594
-1.7755652196027594
-1.7817196917677414
-1.7694107474377496
-1.7817196917677414
-1.7694107474377496
-1.7694107474377496
-1.7632562752727399
-1.757101803107758
-1.7509473309427481
-1.757101803107758
-1.7632562752727399
-1.7694107474377496
-1.7755652196027594
-1.7755652196027594
-1.7694107474377496
-1.7878741639327511
-1.7817196917677414
-1.7755652196027594
-1.7694107474377496
-1.7386383866127564
-1.757101803107758
-1.7632562752727399
-1.7632562752727399
-1.7694107474377496
-1.7632562752727399
-1.7755652196027594
-1.7755652196027594
-1.7509473309427481
-1.7386383866127564
-1.7509473309427481
-1.757101803107758
-1.7817196917677414
-1.8001831082627426
-1.7878741639327511
-1.7817196917677414
-1.7755652196027594
-1.7632562752727399
-1.757101803107758
-1.7694107474377496
-1.7755652196027594
-1.7755652196027594
-1.7817196917677414
-1.757101803107758
-1.7324839144477464
-1.7263294422827367
-1.7201749701177547
-1.7263294422827367
-1.7324839144477464
-1.7386383866127564
-1.7386383866127564
-1.7447928587777384
-1.7632562752727399
-1.7755652196027594
-1.7632562752727399
-1.757101803107758
-1.757101803107758
-1.7632562752727399
-1.7632562752727399
-1.7632562752727399
-1.7694107474377496
-1.7755652196027594
-1.7694107474377496
-1.7694107474377496
-1.7878741639327511
-1.7940286360977609
-1.7817196917677414
-1.7755652196027594
-1.7755652196027594
-1.7878741639327511
-1.757101803107758
-1.7509473309427481
-1.7632562752727399
-1.7694107474377496
-1.757101803107758
-1.7447928587777384
-1.6524757763027313
-1.4986139721777092
-1.363215584547689
-1.3016708628976748
-1.3385976958876775
-1.4493781948577145
-1.5663131659927332
-1.7386383866127564
-1.9232725515627715
-2.0586709391927913
-2.0463619948628
-1.91096360723278
-1.818646524757745
-1.757101803107758
-1.7263294422827367
-1.7324839144477464
-1.7386383866127564
-1.7509473309427481
-1.7694107474377496
-1.7817196917677414
-1.757101803107758
-1.7324839144477464
-1.7324839144477464
-1.7509473309427481
-1.7632562752727399
-1.7509473309427481
-1.7447928587777384
-1.7324839144477464
-1.7324839144477464
-1.757101803107758
-1.7447928587777384
-1.7386383866127564
-1.7263294422827367
-1.7140204979527456
-1.7201749701177547
-1.7140204979527456
-1.7078660257877356
-1.7386383866127564
-1.7694107474377496
-1.757101803107758
-1.757101803107758
-1.7447928587777384
-1.7447928587777384
-1.7324839144477464
-1.7386383866127564
-1.757101803107758
-1.7509473309427481
-1.7140204979527456
-1.6955570814577436
-1.7078660257877356
-1.7078660257877356
-1.7140204979527456
-1.7324839144477464
-1.7263294422827367
-1.7324839144477464
-1.7386383866127564
-1.7017115536227536
-1.689402609292734
-1.6955570814577436
-1.7078660257877356
-1.7140204979527456
-1.7017115536227536
-1.7140204979527456
-1.7201749701177547
-1.7140204979527456
-1.683248137127724
-1.677093664962742
-1.689402609292734
-1.683248137127724
-1.677093664962742
-1.6586302484677409
-1.6709391927977324
-1.677093664962742
-1.6586302484677409
-1.6463213041377216
-1.6401668319727392
-1.6340123598077294
-1.6093944711477182
-1.615548943312728
-1.615548943312728
-1.6032399989827366
-1.6032399989827366
-1.6032399989827366
-1.6217034154777374
-1.6217034154777374
-1.615548943312728
-1.6217034154777374
-1.6401668319727392
-1.6709391927977324
-1.6955570814577436
-1.7263294422827367
-1.7263294422827367
-1.757101803107758
-1.7878741639327511
-1.7632562752727399
-1.7755652196027594
-1.8001831082627426
-1.818646524757745
-1.8432644134177558
-1.849418885582765
-1.8371099412527454
-1.8678823020777668
-1.8432644134177558
-1.8371099412527454
-1.8432644134177558
-1.861727829912757
-1.855573357747775
-1.830955469087764
-1.830955469087764
-1.8432644134177558
-1.8371099412527454
-1.830955469087764
-1.849418885582765
-1.855573357747775
-1.8248009969227534
-1.8124920525927626
-1.818646524757745
-1.8371099412527454
-1.8371099412527454
-1.830955469087764
-1.818646524757745
-1.818646524757745
-1.8248009969227534
-1.8371099412527454
-1.849418885582765
-1.830955469087764
-1.8124920525927626
-1.8248009969227534
-1.8124920525927626
-1.8248009969227534
-1.818646524757745
-1.8063375804277528
-1.8063375804277528
-1.8063375804277528
-1.8001831082627426
-1.8124920525927626
-1.8063375804277528
-1.8248009969227534
-1.830955469087764
-1.8063375804277528
-1.8001831082627426
-1.7878741639327511
-1.8001831082627426
-1.8063375804277528
-1.7878741639327511
-1.7940286360977609
-1.7878741639327511
-1.7940286360977609
-1.8124920525927626
-1.818646524757745
-1.7878741639327511
-1.7755652196027594
-1.7694107474377496
-1.757101803107758
-1.7509473309427481
-1.7755652196027594
-1.830955469087764
-1.8432644134177558
-1.8248009969227534
-1.7817196917677414
-1.7817196917677414
-1.7755652196027594
-1.7878741639327511
-1.7940286360977609
-1.8001831082627426
-1.7755652196027594
-1.757101803107758
-1.7632562752727399
-1.7632562752727399
-1.7694107474377496
-1.7694107474377496
-1.7817196917677414
-1.7694107474377496
-1.7386383866127564
-1.7386383866127564
-1.7386383866127564
-1.7632562752727399
-1.7694107474377496
-1.7694107474377496
-1.8124920525927626
-1.8371099412527454
-1.8001831082627426
-1.7632562752727399
-1.7755652196027594
-1.7878741639327511
-1.7878741639327511
-1.7755652196027594
-1.7878741639327511
-1.7817196917677414
-1.757101803107758
-1.7632562752727399
-1.7632562752727399
-1.7447928587777384
-1.7447928587777384
-1.757101803107758
-1.7694107474377496
-1.7755652196027594
-1.7632562752727399
-1.7632562752727399
-1.757101803107758
-1.757101803107758
-1.7632562752727399
-1.7755652196027594
-1.7632562752727399
-1.7447928587777384
-1.757101803107758
-1.757101803107758
-1.7632562752727399
-1.7694107474377496
-1.757101803107758
-1.7386383866127564
-1.7447928587777384
-1.7447928587777384
-1.7509473309427481
-1.7694107474377496
-1.7694107474377496
-1.757101803107758
-1.757101803107758
-1.7386383866127564
-1.757101803107758
-1.7755652196027594
-1.757101803107758
-1.7447928587777384
-1.7447928587777384
-1.7386383866127564
-1.7509473309427481
-1.7509473309427481
-1.757101803107758
-1.7509473309427481
-1.757101803107758
-1.757101803107758
-1.7694107474377496
-1.7940286360977609
-1.7940286360977609
-1.7817196917677414
-1.7386383866127564
-1.7201749701177547
-1.7447928587777384
-1.7386383866127564
-1.7509473309427481
-1.7632562752727399
-1.7509473309427481
-1.7447928587777384
-1.7447928587777384
-1.7386383866127564
-1.7386383866127564
-1.7447928587777384
-1.757101803107758
-1.7755652196027594
-1.7509473309427481
-1.7324839144477464
-1.7324839144477464
-1.7447928587777384
-1.757101803107758
-1.757101803107758
-1.7694107474377496
-1.7755652196027594
-1.7694107474377496
-1.757101803107758
-1.7632562752727399
-1.7386383866127564
-1.7324839144477464
-1.7447928587777384
-1.7817196917677414
-1.7694107474377496
-1.7447928587777384
-1.7324839144477464
-1.7447928587777384
-1.7509473309427481
-1.7632562752727399
-1.7447928587777384
-1.7509473309427481
-1.7447928587777384
-1.7509473309427481
-1.7447928587777384
-1.7263294422827367
-1.7263294422827367
-1.7263294422827367
-1.7263294422827367
-1.7386383866127564
-1.7447928587777384
-1.7694107474377496
-1.7940286360977609
-1.7940286360977609
-1.7817196917677414
-1.7694107474377496
-1.757101803107758
-1.7324839144477464
-1.7509473309427481
-1.757101803107758
-1.7509473309427481
-1.7386383866127564
-1.757101803107758
-1.757101803107758
-1.7386383866127564
-1.7324839144477464
-1.7509473309427481
-1.7509473309427481
-1.7632562752727399
-1.757101803107758
-1.7509473309427481
-1.7509473309427481
-1.7509473309427481
-1.757101803107758
-1.7509473309427481
-1.7263294422827367
-1.7201749701177547
-1.7263294422827367
-1.7386383866127564
-1.7447928587777384
-1.7509473309427481
-1.7694107474377496
-1.7201749701177547
-1.7140204979527456
-1.7201749701177547
-1.6955570814577436
-1.689402609292734
-1.7078660257877356
-1.7078660257877356
-1.6955570814577436
-1.683248137127724
-1.6955570814577436
-1.7078660257877356
-1.7201749701177547
-1.7386383866127564
-1.7447928587777384
-1.7447928587777384
-1.7201749701177547
-1.7201749701177547
-1.7201749701177547
-1.7263294422827367
-1.7263294422827367
-1.7324839144477464
-1.7324839144477464
-1.7386383866127564
-1.7324839144477464
-1.7263294422827367
-1.7509473309427481
-1.7386383866127564
-1.7078660257877356
-1.7386383866127564
-1.7632562752727399
-1.7632562752727399
-1.7386383866127564
-1.6586302484677409
-1.5355408051677124
-1.4062968897027015
-1.2955163907326928
-1.2647440299076718
-1.3693700567126987
-1.4924595000126994
-1.6463213041377216
-1.8371099412527454
-2.003280689707787
-2.064825411357801
-1.972508328882766
-1.8371099412527454
-1.757101803107758
-1.7263294422827367
-1.7263294422827367
-1.7263294422827367
-1.7324839144477464
-1.7694107474377496
-1.7509473309427481
-1.7078660257877356
-1.7201749701177547
-1.7386383866127564
-1.7386383866127564
-1.7263294422827367
-1.7201749701177547
-1.7140204979527456
-1.7386383866127564
-1.7324839144477464
-1.7263294422827367
-1.7263294422827367
-1.7386383866127564
-1.7324839144477464
-1.7324839144477464
-1.7324839144477464
-1.7201749701177547
-1.7078660257877356
-1.7201749701177547
-1.7201749701177547
-1.7201749701177547
-1.7201749701177547
-1.7140204979527456
-1.7140204979527456
-1.7078660257877356
-1.7078660257877356
-1.7140204979527456
-1.7386383866127564
-1.7263294422827367
-1.7017115536227536
-1.7017115536227536
-1.7140204979527456
-1.7386383866127564
-1.6955570814577436
-1.6463213041377216
-1.6340123598077294
-1.6647847206327224
-1.7078660257877356
-1.7140204979527456
-1.7078660257877356
-1.689402609292734
-1.6955570814577436
-1.7017115536227536
-1.689402609292734
-1.689402609292734
-1.689402609292734
-1.677093664962742
-1.6524757763027313
-1.6709391927977324
-1.6709391927977324
-1.6586302484677409
-1.6586302484677409
-1.6463213041377216
-1.6586302484677409
-1.677093664962742
-1.6524757763027313
-1.6032399989827366
-1.5847765824877347
-1.5970855268177266
-1.5970855268177266
-1.6032399989827366
-1.6032399989827366
-1.6032399989827366
-1.590931054652717
-1.5970855268177266
-1.6093944711477182
-1.6093944711477182
-1.6093944711477182
-1.6093944711477182
-1.6217034154777374
-1.6524757763027313
-1.6709391927977324
-1.677093664962742
-1.677093664962742
-1.6955570814577436
-1.7324839144477464
-1.7509473309427481
-1.7694107474377496
-1.7694107474377496
-1.7817196917677414
-1.8063375804277528
-1.830955469087764
-1.8432644134177558
-1.830955469087764
-1.7878741639327511
-1.7817196917677414
-1.8001831082627426
-1.818646524757745
-1.8063375804277528
-1.7940286360977609
-1.8001831082627426
-1.8124920525927626
-1.8001831082627426
-1.8001831082627426
-1.8063375804277528
-1.818646524757745
-1.8124920525927626
-1.7940286360977609
-1.7878741639327511
-1.7817196917677414
-1.7878741639327511
-1.7817196917677414
-1.7878741639327511
-1.7817196917677414
-1.7878741639327511
-1.7817196917677414
-1.7755652196027594
-1.7817196917677414
-1.7755652196027594
-1.7694107474377496
-1.7817196917677414
-1.7817196917677414
-1.7817196917677414
-1.8001831082627426
-1.8001831082627426
-1.7755652196027594
-1.8001831082627426
-1.8063375804277528
-1.7755652196027594
-1.7755652196027594
-1.7878741639327511
-1.7817196917677414
-1.7755652196027594
-1.8001831082627426
-1.7755652196027594
-1.757101803107758
-1.7632562752727399
-1.7694107474377496
-1.7878741639327511
-1.7817196917677414
-1.7878741639327511
-1.8248009969227534
-1.8001831082627426
-1.7940286360977609
-1.8063375804277528
-1.8063375804277528
-1.7940286360977609
-1.7817196917677414
-1.7940286360977609
-1.7940286360977609
-1.7755652196027594
-1.7755652196027594
-1.7878741639327511
-1.8063375804277528
-1.7817196917677414
-1.7632562752727399
-1.7694107474377496
-1.7632562752727399
-1.7694107474377496
-1.7755652196027594
-1.7755652196027594
-1.7694107474377496
-1.7694107474377496
-1.7817196917677414
-1.7694107474377496
-1.7694107474377496
-1.7386383866127564
-1.7386383866127564
-1.7447928587777384
-1.7509473309427481
-1.7447928587777384
-1.7447928587777384
-1.7755652196027594
-1.830955469087764
-1.8063375804277528
-1.7878741639327511
-1.7755652196027594
-1.7694107474377496
-1.7817196917677414
-1.7878741639327511
-1.7694107474377496
-1.7694107474377496
-1.7694107474377496
-1.7632562752727399
-1.7755652196027594
-1.7755652196027594
-1.7694107474377496
-1.7694107474377496
-1.7694107474377496
-1.7509473309427481
-1.7632562752727399
-1.7817196917677414
-1.7632562752727399
-1.7694107474377496
-1.7817196917677414
-1.7755652196027594
-1.7632562752727399
-1.7509473309427481
-1.7447928587777384
-1.7509473309427481
-1.757101803107758
-1.757101803107758
-1.757101803107758
-1.7632562752727399
-1.7632562752727399
-1.7632562752727399
-1.7632562752727399
-1.7755652196027594
-1.7755652196027594
-1.7632562752727399
-1.7447928587777384
-1.757101803107758
-1.757101803107758
-1.7509473309427481
-1.7632562752727399
-1.7878741639327511
-1.7694107474377496
-1.757101803107758
-1.7632562752727399
-1.7755652196027594
-1.7632562752727399
-1.7324839144477464
-1.7324839144477464
-1.7447928587777384
-1.7447928587777384
-1.7694107474377496
-1.7940286360977609
-1.7755652196027594
-1.757101803107758
-1.7509473309427481
-1.7509473309427481
-1.7632562752727399
-1.7694107474377496
-1.7694107474377496
-1.7694107474377496
-1.7694107474377496
-1.7755652196027594
-1.7694107474377496
-1.7817196917677414
-1.7694107474377496
-1.757101803107758
-1.7755652196027594
-1.7940286360977609
-1.7817196917677414
-1.7632562752727399
-1.757101803107758
-1.7694107474377496
-1.7817196917677414
-1.7755652196027594
-1.7447928587777384
-1.7386383866127564
-1.757101803107758
-1.7632562752727399
-1.757101803107758
-1.7755652196027594
-1.7817196917677414
-1.7447928587777384
-1.7509473309427481
-1.7386383866127564
-1.7324839144477464
-1.757101803107758
-1.7447928587777384
-1.7386383866127564
-1.7509473309427481
-1.7509473309427481
-1.7447928587777384
-1.7324839144477464
-1.7324839144477464
-1.7386383866127564
-1.757101803107758
-1.757101803107758
-1.7632562752727399
-1.7447928587777384
-1.7324839144477464
-1.7509473309427481
-1.7509473309427481
-1.7324839144477464
-1.7263294422827367
-1.7386383866127564
-1.7632562752727399
-1.7694107474377496
-1.7694107474377496
-1.7509473309427481
-1.7447928587777384
-1.7324839144477464
-1.7201749701177547
-1.7078660257877356
-1.7263294422827367
-1.7078660257877356
-1.7078660257877356
-1.7324839144477464
-1.757101803107758
-1.7447928587777384
-1.7263294422827367
-1.7263294422827367
-1.7386383866127564
-1.7447928587777384
-1.7509473309427481
-1.7386383866127564
-1.7447928587777384
-1.7324839144477464
-1.7263294422827367
-1.7201749701177547
-1.7324839144477464
-1.7324839144477464
-1.7386383866127564
-1.7386383866127564
-1.7509473309427481
-1.7632562752727399
-1.7632562752727399
-1.7447928587777384
-1.7324839144477464
-1.7509473309427481
-1.757101803107758
-1.7447928587777384
-1.7201749701177547
-1.6340123598077294
-1.5232318608377204
-1.3878334732077002
-1.2832074464026733
-1.3078253350626845
-1.400142417537692
-1.5355408051677124
-1.7140204979527456
-1.89865466290276
-2.04020752269779
-2.064825411357801
-1.972508328882766
-1.855573357747775
-1.7694107474377496
-1.7386383866127564
-1.6955570814577436
-1.7078660257877356
-1.7324839144477464
-1.7447928587777384
-1.7386383866127564
-1.7447928587777384
-1.7386383866127564
-1.7386383866127564
-1.7324839144477464
-1.7324839144477464
-1.7324839144477464
-1.7324839144477464
-1.7447928587777384
-1.7447928587777384
-1.7386383866127564
-1.7201749701177547
-1.7263294422827367
-1.7324839144477464
-1.7386383866127564
-1.7324839144477464
-1.7201749701177547
-1.7263294422827367
-1.6955570814577436
-1.7017115536227536
-1.6955570814577436
-1.7017115536227536
-1.6955570814577436
-1.6955570814577436
-1.683248137127724
-1.6955570814577436
-1.677093664962742
-1.6709391927977324
-1.6709391927977324
-1.6463213041377216
-1.6586302484677409
-1.6524757763027313
-1.6524757763027313
-1.6524757763027313
-1.6647847206327224
-1.6709391927977324
-1.6709391927977324
-1.6647847206327224
-1.6586302484677409
-1.6586302484677409
-1.6586302484677409
-1.677093664962742
-1.683248137127724
-1.683248137127724
-1.6955570814577436
-1.689402609292734
-1.677093664962742
-1.6524757763027313
-1.6586302484677409
-1.6709391927977324
-1.6709391927977324
-1.6524757763027313
-1.6586302484677409
-1.6524757763027313
-1.6463213041377216
-1.6463213041377216
-1.6647847206327224
-1.6647847206327224
-1.6463213041377216
-1.6463213041377216
-1.6340123598077294
-1.6340123598077294
-1.6340123598077294
-1.6401668319727392
-1.6524757763027313
-1.6278578876427194
-1.6278578876427194
-1.6463213041377216
-1.6524757763027313
-1.6709391927977324
-1.683248137127724
-1.6955570814577436
-1.7140204979527456
-1.7324839144477464
-1.7694107474377496
-1.7632562752727399
-1.7817196917677414
-1.8063375804277528
-1.8124920525927626
-1.8248009969227534
-1.8371099412527454
-1.861727829912757
-1.89865466290276
-1.9048091350677696
-1.892500190737778
-1.8678823020777668
-1.8678823020777668
-1.8678823020777668
-1.8740367742427766
-1.861727829912757
-1.8740367742427766
-1.89865466290276
-1.89865466290276
-1.855573357747775
-1.855573357747775
-1.8432644134177558
-1.855573357747775
-1.849418885582765
-1.8371099412527454
-1.855573357747775
-1.861727829912757
-1.8801912464077586
-1.861727829912757
-1.849418885582765
-1.861727829912757
-1.855573357747775
-1.855573357747775
-1.861727829912757
-1.8432644134177558
-1.830955469087764
-1.8371099412527454
-1.849418885582765
-1.8371099412527454
-1.855573357747775
-1.830955469087764
-1.8124920525927626
-1.8248009969227534
-1.855573357747775
-1.855573357747775
-1.8371099412527454
-1.8248009969227534
-1.849418885582765
-1.855573357747775
-1.849418885582765
-1.855573357747775
-1.861727829912757
-1.861727829912757
-1.849418885582765
-1.849418885582765
-1.8740367742427766
-1.861727829912757
-1.849418885582765
-1.849418885582765
-1.855573357747775
-1.849418885582765
-1.849418885582765
-1.8371099412527454
-1.8371099412527454
-1.830955469087764
-1.830955469087764
-1.8371099412527454
-1.8248009969227534
-1.8124920525927626
-1.8248009969227534
-1.818646524757745
-1.7940286360977609
-1.8001831082627426
-1.8063375804277528
-1.8124920525927626
-1.8001831082627426
-1.8001831082627426
-1.7940286360977609
-1.8124920525927626
-1.8124920525927626
-1.8063375804277528
-1.8124920525927626
-1.8124920525927626
-1.7878741639327511
-1.7817196917677414
-1.7940286360977609
-1.8124920525927626
-1.8001831082627426
-1.7755652196027594
-1.7817196917677414
-1.7817196917677414
-1.7755652196027594
-1.7878741639327511
-1.8001831082627426
-1.8001831082627426
-1.8063375804277528
-1.8001831082627426
-1.7940286360977609
-1.7878741639327511
-1.7817196917677414
-1.7817196917677414
-1.7878741639327511
-1.7940286360977609
-1.7878741639327511
-1.7755652196027594
-1.7817196917677414
-1.7878741639327511
-1.7878741639327511
-1.7694107474377496
-1.7878741639327511
-1.7878741639327511
-1.7817196917677414
-1.7755652196027594
-1.7817196917677414
-1.7632562752727399
-1.7509473309427481
-1.7509473309427481
-1.7386383866127564
-1.757101803107758
-1.7632562752727399
-1.7201749701177547
-1.7140204979527456
-1.7324839144477464
-1.7078660257877356
-1.7201749701177547
-1.7386383866127564
-1.7878741639327511
-1.7940286360977609
-1.7694107474377496
-1.7755652196027594
-1.7817196917677414
-1.7878741639327511
-1.8063375804277528
-1.8124920525927626
-1.7817196917677414
-1.7694107474377496
-1.7632562752727399
-1.7632562752727399
-1.7694107474377496
-1.7817196917677414
-1.7694107474377496
-1.7694107474377496
-1.7817196917677414
-1.7817196917677414
-1.7632562752727399
-1.7755652196027594
-1.7755652196027594
-1.757101803107758
-1.689402609292734
-1.5724676381577152
-1.4309147783627132
-1.3385976958876775
-1.3447521680526875
-1.4186058340326935
-1.5355408051677124
-1.6955570814577436
-1.89865466290276
-2.052516467027782
-2.1017522443478045
-2.003280689707787
-1.8801912464077586
-1.7817196917677414
-1.757101803107758
-1.7386383866127564
-1.7509473309427481
-1.7447928587777384
-1.7509473309427481
-1.757101803107758
-1.757101803107758
-1.7632562752727399
-1.7632562752727399
-1.7386383866127564
-1.7447928587777384
-1.7509473309427481
-1.7509473309427481
-1.7324839144477464
-1.7324839144477464
-1.7509473309427481
-1.757101803107758
-1.7386383866127564
-1.7324839144477464
-1.757101803107758
-1.7386383866127564
-1.7140204979527456
-1.7263294422827367
-1.7386383866127564
-1.7263294422827367
-1.7201749701177547
-1.7078660257877356
-1.7017115536227536
-1.7078660257877356
-1.7263294422827367
-1.7263294422827367
-1.7140204979527456
-1.7140204979527456
-1.7201749701177547
-1.7201749701177547
-1.7263294422827367
-1.7140204979527456
-1.7140204979527456
-1.7201749701177547
-1.7263294422827367
-1.7017115536227536
-1.689402609292734
-1.6955570814577436
-1.7017115536227536
-1.7078660257877356
-1.7017115536227536
-1.7017115536227536
-1.7140204979527456
-1.7263294422827367
-1.689402609292734
-1.6709391927977324
-1.677093664962742
-1.6647847206327224
-1.6709391927977324
-1.6709391927977324
-1.683248137127724
-1.6647847206327224
-1.6463213041377216
-1.6401668319727392
-1.6401668319727392
-1.6340123598077294
-1.6340123598077294
-1.6401668319727392
-1.6340123598077294
-1.6093944711477182
-1.5847765824877347
-1.5847765824877347
-1.5970855268177266
-1.6032399989827366
-1.5970855268177266
-1.6032399989827366
-1.6093944711477182
-1.6340123598077294
-1.683248137127724
-1.6524757763027313
-1.6463213041377216
-1.6955570814577436
-1.7324839144477464
-1.757101803107758
-1.7755652196027594
-1.7940286360977609
-1.8001831082627426
-1.8063375804277528
-1.818646524757745
-1.849418885582765
-1.8432644134177558
-1.830955469087764
-1.8371099412527454
-1.855573357747775
-1.8678823020777668
-1.892500190737778
-1.8863457185727683
-1.8678823020777668
-1.855573357747775
-1.855573357747775
-1.849418885582765
-1.855573357747775
-1.855573357747775
-1.849418885582765
-1.8432644134177558
-1.8432644134177558
-1.849418885582765
-1.849418885582765
-1.8371099412527454
-1.8371099412527454
-1.849418885582765
-1.818646524757745
-1.818646524757745
-1.818646524757745
-1.818646524757745
-1.818646524757745
-1.818646524757745
-1.8371099412527454
-1.830955469087764
-1.8063375804277528
-1.8124920525927626
-1.818646524757745
-1.8001831082627426
-1.8001831082627426
-1.818646524757745
-1.818646524757745
-1.8063375804277528
-1.830955469087764
-1.8248009969227534
-1.8063375804277528
-1.7940286360977609
-1.8124920525927626
-1.8124920525927626
-1.8063375804277528
-1.8063375804277528
-1.8124920525927626
-1.8124920525927626
-1.8124920525927626
-1.8124920525927626
-1.8371099412527454
-1.8063375804277528
-1.8124920525927626
-1.818646524757745
-1.8001831082627426
-1.7817196917677414
-1.8001831082627426
-1.7940286360977609
-1.7878741639327511
-1.7878741639327511
-1.8001831082627426
-1.818646524757745
-1.7940286360977609
-1.8001831082627426
-1.8001831082627426
-1.7940286360977609
-1.8001831082627426
-1.7940286360977609
-1.7940286360977609
-1.7817196917677414
-1.7940286360977609
-1.7817196917677414
-1.7817196917677414
-1.7755652196027594
-1.7878741639327511
-1.8124920525927626
-1.7817196917677414
-1.7755652196027594
-1.7817196917677414
-1.7817196917677414
-1.7817196917677414
-1.7817196917677414
-1.7817196917677414
-1.7940286360977609
-1.8001831082627426
-1.7940286360977609
-1.8001831082627426
-1.7940286360977609
-1.7817196917677414
-1.7878741639327511
-1.7940286360977609
-1.7817196917677414
-1.7755652196027594
-1.7817196917677414
-1.7878741639327511
-1.7817196917677414
-1.7878741639327511
-1.7817196917677414
-1.7878741639327511
-1.7878741639327511
-1.8124920525927626
-1.8063375804277528
-1.7817196917677414
-1.7817196917677414
-1.7878741639327511
-1.7940286360977609
-1.7878741639327511
-1.7694107474377496
-1.7632562752727399
-1.7694107474377496
-1.7694107474377496
-1.7878741639327511
-1.7817196917677414
-1.7694107474377496
-1.7817196917677414
-1.7817196917677414
-1.818646524757745
-1.8124920525927626
-1.8248009969227534
-1.8001831082627426
-1.7878741639327511
-1.7509473309427481
-1.7632562752727399
-1.8063375804277528
-1.8432644134177558
-1.8124920525927626
-1.8248009969227534
-1.8063375804277528
-1.7755652196027594
-1.7817196917677414
-1.7694107474377496
-1.7817196917677414
-1.7817196917677414
-1.8001831082627426
-1.8001831082627426
-1.8001831082627426
-1.7878741639327511
-1.7817196917677414
-1.7940286360977609
-1.8063375804277528
-1.7940286360977609
-1.7878741639327511
-1.7817196917677414
-1.7817196917677414
-1.7755652196027594
-1.7755652196027594
-1.7878741639327511
-1.7878741639327511
-1.7878741639327511
-1.7817196917677414
-1.7817196917677414
-1.7755652196027594
-1.7817196917677414
-1.818646524757745
-1.7940286360977609
-1.7632562752727399
-1.7755652196027594
-1.7755652196027594
-1.7694107474377496
-1.7878741639327511
-1.7940286360977609
-1.7817196917677414
-1.7755652196027594
-1.7878741639327511
-1.7878741639327511
-1.8001831082627426
-1.7755652196027594
-1.757101803107758
-1.757101803107758
-1.7509473309427481
-1.7632562752727399
-1.7632562752727399
-1.757101803107758
-1.7694107474377496
-1.757101803107758
-1.7324839144477464
-1.7263294422827367
-1.7201749701177547
-1.7263294422827367
-1.7263294422827367
-1.7263294422827367
-1.7201749701177547
-1.7324839144477464
-1.7509473309427481
-1.757101803107758
-1.757101803107758
-1.7447928587777384
-1.7694107474377496
-1.757101803107758
-1.7263294422827367
-1.7386383866127564
-1.7386383866127564
-1.7509473309427481
-1.7632562752727399
-1.7632562752727399
-1.7632562752727399
-1.7694107474377496
-1.7632562752727399
-1.757101803107758
-1.7632562752727399
-1.757101803107758
-1.7509473309427481
-1.7632562752727399
-1.7755652196027594
-1.7694107474377496
-1.7324839144477464
-1.6647847206327224
-1.5478497494977315
-1.39398794537271
-1.2955163907326928
-1.3201342793926762
-1.4309147783627132
-1.5601586938277234
-1.7263294422827367
-1.9232725515627715
-2.0463619948628
-2.070979883522784
-1.9355814958927628
-1.818646524757745
-1.7632562752727399
-1.7324839144477464
-1.7324839144477464
-1.7324839144477464
-1.7386383866127564
-1.7447928587777384
-1.7447928587777384
-1.7632562752727399
-1.7755652196027594
-1.757101803107758
-1.7324839144477464
-1.7386383866127564
-1.7386383866127564
-1.7447928587777384
-1.7509473309427481
-1.7447928587777384
-1.7263294422827367
-1.7324839144477464
-1.7324839144477464
-1.7386383866127564
-1.757101803107758
-1.7694107474377496
-1.7632562752727399
-1.7324839144477464
-1.6955570814577436
-1.7263294422827367
-1.7509473309427481
-1.7201749701177547
-1.7078660257877356
-1.7078660257877356
-1.7201749701177547
-1.7632562752727399
-1.7509473309427481
-1.7324839144477464
-1.757101803107758
-1.757101803107758
-1.7324839144477464
-1.7324839144477464
-1.7263294422827367
-1.7263294422827367
-1.7140204979527456
-1.7201749701177547
-1.7201749701177547
-1.7263294422827367
-1.7201749701177547
-1.7078660257877356
-1.7017115536227536
-1.7078660257877356
-1.7078660257877356
-1.6955570814577436
-1.7017115536227536
-1.7140204979527456
-1.7078660257877356
-1.689402609292734
-1.683248137127724
-1.683248137127724
-1.6709391927977324
-1.677093664962742
-1.6955570814577436
-1.6709391927977324
-1.6278578876427194
-1.6340123598077294
-1.6463213041377216
-1.6340123598077294
-1.6401668319727392
-1.6463213041377216
-1.615548943312728
-1.6217034154777374
-1.6217034154777374
-1.6032399989827366
-1.6093944711477182
-1.6278578876427194
-1.6278578876427194
-1.6340123598077294
-1.6709391927977324
-1.6955570814577436
-1.7017115536227536
-1.7201749701177547
-1.7201749701177547
-1.7447928587777384
-1.7694107474377496
-1.7940286360977609
-1.8124920525927626
-1.818646524757745
-1.8248009969227534
-1.8371099412527454
-1.855573357747775
-1.8432644134177558
-1.8432644134177558
-1.8678823020777668
-1.855573357747775
-1.8371099412527454
-1.855573357747775
-1.849418885582765
-1.8432644134177558
-1.861727829912757
-1.8740367742427766
-1.8432644134177558
-1.8371099412527454
-1.8371099412527454
-1.8432644134177558
-1.8371099412527454
-1.818646524757745
-1.8124920525927626
-1.8124920525927626
-1.818646524757745
-1.8248009969227534
-1.830955469087764
-1.8371099412527454
-1.8371099412527454
-1.8432644134177558
-1.8371099412527454
-1.8371099412527454
-1.830955469087764
-1.830955469087764
-1.8248009969227534
-1.8248009969227534
-1.8371099412527454
-1.830955469087764
-1.8248009969227534
-1.8248009969227534
-1.830955469087764
-1.8432644134177558
-1.818646524757745
-1.8063375804277528
-1.830955469087764
-1.8371099412527454
-1.8124920525927626
-1.8248009969227534
-1.8248009969227534
-1.8063375804277528
-1.8063375804277528
-1.8124920525927626
-1.8124920525927626
-1.8124920525927626
-1.8248009969227534
-1.8124920525927626
-1.8124920525927626
-1.818646524757745
-1.818646524757745
-1.830955469087764
-1.830955469087764
-1.8124920525927626
-1.8063375804277528
-1.818646524757745
-1.8063375804277528
-1.7940286360977609
-1.8001831082627426
-1.818646524757745
-1.849418885582765
-1.8371099412527454
-1.8371099412527454
-1.830955469087764
-1.8248009969227534
-1.830955469087764
-1.830955469087764
-1.830955469087764
-1.8248009969227534
-1.8124920525927626
-1.8124920525927626
-1.8063375804277528
-1.8063375804277528
-1.8124920525927626
-1.818646524757745
-1.8371099412527454
-1.818646524757745
-1.7940286360977609
-1.8063375804277528
-1.818646524757745
-1.8063375804277528
-1.7878741639327511
-1.8001831082627426
-1.818646524757745
-1.8001831082627426
-1.7817196917677414
-1.7817196917677414
-1.7817196917677414
-1.7878741639327511
-1.7878741639327511
-1.7878741639327511
-1.7878741639327511
-1.7817196917677414
-1.7755652196027594
-1.7817196917677414
-1.7755652196027594
-1.7694107474377496
-1.7817196917677414
-1.7817196917677414
-1.7817196917677414
-1.7817196917677414
-1.7940286360977609
-1.7940286360977609
-1.8001831082627426
-1.7878741639327511
-1.7878741639327511
-1.7817196917677414
-1.7878741639327511
-1.7878741639327511
-1.7878741639327511
-1.7940286360977609
-1.7694107474377496
-1.7694107474377496
-1.7755652196027594
-1.7755652196027594
-1.7940286360977609
-1.7632562752727399
-1.757101803107758
-1.7694107474377496
-1.7755652196027594
-1.7817196917677414
-1.7632562752727399
-1.7755652196027594
-1.8124920525927626
-1.818646524757745
-1.8001831082627426
-1.8063375804277528
-1.8063375804277528
-1.7940286360977609
-1.7755652196027594
-1.7694107474377496
-1.7755652196027594
-1.7817196917677414
-1.7817196917677414
-1.7694107474377496
-1.7694107474377496
-1.7755652196027594
-1.7755652196027594
-1.757101803107758
-1.7447928587777384
-1.7447928587777384
-1.7509473309427481
-1.7632562752727399
-1.7755652196027594
-1.7755652196027594
-1.7632562752727399
-1.7694107474377496
-1.7694107474377496
-1.7817196917677414
-1.7817196917677414
-1.7817196917677414
-1.7632562752727399
-1.7817196917677414
-1.7940286360977609
-1.7940286360977609
-1.7940286360977609
-1.8001831082627426
-1.7940286360977609
-1.7878741639327511
-1.7817196917677414
-1.7817196917677414
-1.7817196917677414
-1.7632562752727399
-1.7817196917677414
-1.7878741639327511
-1.7940286360977609
-1.7878741639327511
-1.7755652196027594
-1.7817196917677414
-1.8001831082627426
-1.7878741639327511
-1.7817196917677414
-1.7878741639327511
-1.7817196917677414
-1.7878741639327511
-1.7940286360977609
-1.8001831082627426
-1.8063375804277528
-1.8063375804277528
-1.7694107474377496
-1.757101803107758
-1.757101803107758
-1.757101803107758
-1.7694107474377496
-1.7878741639327511
-1.8063375804277528
-1.818646524757745
-1.7940286360977609
-1.8001831082627426
-1.8063375804277528
-1.7878741639327511
-1.7878741639327511
-1.7878741639327511
-1.7817196917677414
-1.7878741639327511
-1.7817196917677414
-1.7694107474377496
-1.7509473309427481
-1.7386383866127564
-1.7509473309427481
-1.757101803107758
-1.757101803107758
-1.757101803107758
-1.7509473309427481
-1.757101803107758
-1.7632562752727399
-1.7755652196027594
-1.7755652196027594
-1.7817196917677414
-1.7878741639327511
-1.7817196917677414
-1.7940286360977609
-1.7878741639327511
-1.7878741639327511
-1.7940286360977609
-1.7817196917677414
-1.7817196917677414
-1.7878741639327511
-1.7940286360977609
-1.7817196917677414
-1.7817196917677414
-1.7878741639327511
-1.7817196917677414
-1.7755652196027594
-1.7817196917677414
-1.7817196917677414
-1.7817196917677414
-1.7263294422827367
-1.6217034154777374
-1.467841611352716
-1.3447521680526875
-1.2955163907326928
-1.3570611123826792
-1.473996083517698
-1.6093944711477182
-1.7940286360977609
-1.972508328882766
-2.1017522443478045
-2.052516467027782
-1.91096360723278
-1.8063375804277528
-1.757101803107758
-1.7263294422827367
-1.7263294422827367
-1.757101803107758
-1.757101803107758
-1.757101803107758
-1.7509473309427481
-1.7447928587777384
-1.7386383866127564
-1.7386383866127564
-1.7447928587777384
-1.7386383866127564
-1.7324839144477464
-1.7386383866127564
-1.7447928587777384
-1.7447928587777384
-1.7447928587777384
-1.7324839144477464
-1.7263294422827367
-1.7263294422827367
-1.7263294422827367
-1.7201749701177547
-1.7140204979527456
-1.7140204979527456
-1.689402609292734
-1.683248137127724
-1.689402609292734
-1.683248137127724
-1.6709391927977324
-1.6586302484677409
-1.6586302484677409
-1.6586302484677409
-1.6647847206327224
-1.6647847206327224
-1.6647847206327224
-1.6647847206327224
-1.677093664962742
-1.6709391927977324
-1.6709391927977324
-1.6647847206327224
-1.6524757763027313
-1.6524757763027313
-1.6586302484677409
-1.6586302484677409
-1.6586302484677409
-1.6463213041377216
-1.6524757763027313
-1.6586302484677409
-1.6586302484677409
-1.6586302484677409
-1.6586302484677409
-1.6586302484677409
-1.6524757763027313
-1.6463213041377216
-1.6463213041377216
-1.6524757763027313
-1.6524757763027313
-1.6340123598077294
-1.6278578876427194
-1.6217034154777374
-1.590931054652717
-1.5847765824877347
-1.6032399989827366
-1.6463213041377216
-1.6217034154777374
-1.6032399989827366
-1.6093944711477182
-1.6093944711477182
-1.615548943312728
-1.6032399989827366
-1.5970855268177266
-1.5970855268177266
-1.5970855268177266
-1.615548943312728
-1.6463213041377216
-1.6647847206327224
-1.677093664962742
-1.7078660257877356
-1.7263294422827367
-1.757101803107758
-1.7694107474377496
-1.7940286360977609
-1.818646524757745
-1.830955469087764
-1.830955469087764
-1.8371099412527454
-1.849418885582765
-1.8432644134177558
-1.849418885582765
-1.855573357747775
-1.855573357747775
-1.855573357747775
-1.8740367742427766
-1.89865466290276
-1.9048091350677696
-1.8740367742427766
-1.8740367742427766
-1.8801912464077586
-1.861727829912757
-1.849418885582765
-1.8740367742427766
-1.849418885582765
-1.8432644134177558
-1.861727829912757
-1.861727829912757
-1.8678823020777668
-1.8678823020777668
-1.861727829912757
-1.8740367742427766
-1.861727829912757
-1.8678823020777668
-1.861727829912757
-1.8432644134177558
-1.8432644134177558
-1.855573357747775
-1.849418885582765
-1.830955469087764
-1.8248009969227534
-1.8248009969227534
-1.8432644134177558
-1.830955469087764
-1.8063375804277528
-1.830955469087764
-1.830955469087764
-1.830955469087764
-1.8432644134177558
-1.8432644134177558
-1.8124920525927626
-1.8248009969227534
-1.8248009969227534
-1.8371099412527454
-1.8678823020777668
-1.861727829912757
-1.855573357747775
-1.849418885582765
-1.849418885582765
-1.8432644134177558
-1.8371099412527454
-1.818646524757745
-1.7878741639327511
-1.7755652196027594
-1.7878741639327511
-1.7817196917677414
-1.7386383866127564
-1.7324839144477464
-1.7324839144477464
-1.7201749701177547
-1.7447928587777384
-1.7755652196027594
-1.8001831082627426
-1.8371099412527454
-1.855573357747775
-1.8801912464077586
-1.892500190737778
-1.9232725515627715
-1.9601993845527748
-1.9786628010477763
-1.990971745377768
-2.003280689707787
-2.0463619948628
-2.052516467027782
-2.0955977721827947
-2.114061188677796
-2.089443300017785
-2.077134355687793
-2.070979883522784
-2.04020752269779
-1.990971745377768
-1.9601993845527748
-1.9417359680577726
-1.9171180793977614
-1.861727829912757
-1.818646524757745
-1.8063375804277528
-1.7817196917677414
-1.757101803107758
-1.757101803107758
-1.757101803107758
-1.7509473309427481
-1.7817196917677414
-1.8248009969227534
-1.849418885582765
-1.8001831082627426
-1.8124920525927626
-1.830955469087764
-1.8371099412527454
-1.8063375804277528
-1.7817196917677414
-1.8248009969227534
-1.855573357747775
-1.830955469087764
-1.8063375804277528
-1.8001831082627426
-1.818646524757745
-1.830955469087764
-1.8432644134177558
-1.8678823020777668
-1.8863457185727683
-1.8863457185727683
-1.8801912464077586
-1.8678823020777668
-1.8432644134177558
-1.8432644134177558
-1.830955469087764
-1.8248009969227534
-1.849418885582765
-1.8740367742427766
-1.855573357747775
-1.830955469087764
-1.8371099412527454
-1.8063375804277528
-1.8001831082627426
-1.7940286360977609
-1.7940286360977609
-1.7940286360977609
-1.7940286360977609
-1.7817196917677414
-1.757101803107758
-1.757101803107758
-1.7632562752727399
-1.7694107474377496
-1.757101803107758
-1.7632562752727399
-1.757101803107758
-1.7694107474377496
-1.7509473309427481
-1.7263294422827367
-1.7140204979527456
-1.7201749701177547
-1.7201749701177547
-1.7017115536227536
-1.6955570814577436
-1.689402609292734
-1.6709391927977324
-1.6032399989827366
-1.4986139721777092
-1.363215584547689
-1.2462806134126705
-1.2278171969176688
-1.3139798072276945
-1.4493781948577145
-1.590931054652717
-1.7755652196027594
-1.9048091350677696
-1.954044912387765
-1.9232725515627715
-1.818646524757745
-1.7447928587777384
-1.683248137127724
-1.6217034154777374
-1.6093944711477182
-1.6340123598077294
-1.6217034154777374
-1.6093944711477182
-1.6217034154777374
-1.5970855268177266
-1.5970855268177266
-1.6093944711477182
-1.6217034154777374
-1.6217034154777374
-1.6401668319727392
-1.6586302484677409
-1.6709391927977324
-1.683248137127724
-1.7078660257877356
-1.6955570814577436
-1.7017115536227536
-1.6955570814577436
-1.683248137127724
-1.683248137127724
-1.683248137127724
-1.683248137127724
-1.6709391927977324
-1.6586302484677409
-1.6463213041377216
-1.6647847206327224
-1.689402609292734
-1.689402609292734
-1.683248137127724
-1.6709391927977324
-1.683248137127724
-1.689402609292734
-1.6955570814577436
-1.7017115536227536
-1.7201749701177547
-1.7263294422827367
-1.7140204979527456
-1.7078660257877356
-1.7201749701177547
-1.7140204979527456
-1.7078660257877356
-1.7140204979527456
-1.683248137127724
-1.6586302484677409
-1.6647847206327224
-1.6709391927977324
-1.6586302484677409
-1.6401668319727392
-1.6463213041377216
-1.6463213041377216
-1.6463213041377216
-1.6586302484677409
-1.6647847206327224
-1.6647847206327224
-1.6032399989827366
-1.6032399989827366
-1.6217034154777374
-1.6278578876427194
-1.6032399989827366
-1.578622110322725
-1.5724676381577152
-1.5601586938277234
-1.5601586938277234
-1.5601586938277234
-1.5540042216627135
-1.5416952773327224
-1.5478497494977315
-1.5416952773327224
-1.5416952773327224
-1.5416952773327224
-1.5601586938277234
-1.590931054652717
-1.6278578876427194
-1.6463213041377216
-1.6709391927977324
-1.6955570814577436
-1.7324839144477464
-1.7447928587777384
-1.7632562752727399
-1.7755652196027594
-1.7755652196027594
-1.7632562752727399
-1.7817196917677414
-1.8063375804277528
-1.8124920525927626
-1.8001831082627426
-1.818646524757745
-1.8124920525927626
-1.8063375804277528
-1.8001831082627426
-1.8124920525927626
-1.818646524757745
-1.8124920525927626
-1.8124920525927626
-1.8063375804277528
-1.818646524757745
-1.818646524757745
-1.8124920525927626
-1.8001831082627426
-1.8001831082627426
-1.7940286360977609
-1.7878741639327511
-1.7817196917677414
-1.7878741639327511
-1.7817196917677414
-1.7878741639327511
-1.7878741639327511
-1.7817196917677414
-1.7817196917677414
-1.7878741639327511
-1.8063375804277528
-1.7940286360977609
-1.7755652196027594
-1.7755652196027594
-1.7817196917677414
-1.8001831082627426
-1.8124920525927626
-1.7940286360977609
-1.7878741639327511
-1.7878741639327511
-1.7940286360977609
-1.7940286360977609
-1.7817196917677414
-1.7694107474377496
-1.7755652196027594
-1.7755652196027594
-1.7694107474377496
-1.7878741639327511
-1.7878741639327511
-1.7755652196027594
-1.7878741639327511
-1.7940286360977609
-1.8063375804277528
-1.8063375804277528
-1.7878741639327511
-1.8001831082627426
-1.8001831082627426
-1.7878741639327511
-1.7817196917677414
-1.7817196917677414
-1.7817196917677414
-1.7878741639327511
-1.8063375804277528
-1.8063375804277528
-1.7817196917677414
-1.7694107474377496
-1.7755652196027594
-1.7817196917677414
-1.7694107474377496
-1.7817196917677414
-1.8124920525927626
-1.8124920525927626
-1.8001831082627426
-1.7755652196027594
-1.7694107474377496
-1.7632562752727399
-1.7694107474377496
-1.7694107474377496
-1.7694107474377496
-1.7694107474377496
-1.7817196917677414
-1.7817196917677414
-1.7817196917677414
-1.7878741639327511
-1.7878741639327511
-1.7940286360977609
-1.8063375804277528
-1.8248009969227534
-1.818646524757745
-1.8001831082627426
-1.8001831082627426
-1.7878741639327511
-1.7817196917677414
-1.7878741639327511
-1.7940286360977609
-1.8063375804277528
-1.7509473309427481
-1.7324839144477464
-1.7201749701177547
-1.7140204979527456
-1.7201749701177547
-1.7201749701177547
-1.7755652196027594
-1.7755652196027594
-1.7694107474377496
-1.7755652196027594
-1.7632562752727399
-1.7694107474377496
-1.7755652196027594
-1.7694107474377496
-1.7755652196027594
-1.7817196917677414
-1.7817196917677414
-1.7694107474377496
-1.757101803107758
-1.7324839144477464
-1.7509473309427481
-1.7632562752727399
-1.7632562752727399
-1.7447928587777384
-1.7386383866127564
-1.7447928587777384
-1.7447928587777384
-1.7447928587777384
-1.7447928587777384
-1.7447928587777384
-1.7386383866127564
-1.7140204979527456
-1.6524757763027313
-1.5416952773327224
-1.4062968897027015
-1.2832074464026733
-1.25243508557768
-1.3201342793926762
-1.467841611352716
-1.6340123598077294
-1.8248009969227534
-1.990971745377768
-2.0463619948628
-1.954044912387765
-1.8432644134177558
-1.7878741639327511
-1.7694107474377496
-1.7509473309427481
-1.7632562752727399
-1.7694107474377496
-1.757101803107758
-1.7632562752727399
-1.7694107474377496
-1.7694107474377496
-1.7694107474377496
-1.757101803107758
-1.757101803107758
-1.7632562752727399
-1.757101803107758
-1.7694107474377496
-1.7755652196027594
-1.7694107474377496
-1.757101803107758
-1.7263294422827367
-1.7324839144477464
-1.7263294422827367
-1.7263294422827367
-1.7263294422827367
-1.7324839144477464
-1.7386383866127564
-1.7201749701177547
-1.7201749701177547
-1.7201749701177547
-1.7078660257877356
-1.7017115536227536
-1.7017115536227536
-1.7078660257877356
-1.7078660257877356
-1.683248137127724
-1.683248137127724
-1.6955570814577436
-1.683248137127724
-1.677093664962742
-1.6709391927977324
-1.6955570814577436
-1.7447928587777384
-1.7509473309427481
-1.7201749701177547
-1.7017115536227536
-1.7078660257877356
-1.6955570814577436
-1.689402609292734
-1.6709391927977324
-1.6524757763027313
-1.6586302484677409
-1.6647847206327224
-1.6586302484677409
-1.6524757763027313
-1.6586302484677409
-1.6586302484677409
-1.6463213041377216
-1.6524757763027313
-1.6463213041377216
-1.6463213041377216
-1.6340123598077294
-1.6217034154777374
-1.6093944711477182
-1.6093944711477182
-1.6093944711477182
-1.6032399989827366
-1.5970855268177266
-1.590931054652717
-1.5663131659927332
-1.5601586938277234
-1.5724676381577152
-1.590931054652717
-1.6032399989827366
-1.590931054652717
-1.590931054652717
-1.6032399989827366
-1.6340123598077294
-1.6524757763027313
-1.6586302484677409
-1.7017115536227536
-1.7632562752727399
-1.8063375804277528
-1.8001831082627426
-1.8124920525927626
-1.8124920525927626
-1.8248009969227534
-1.8371099412527454
-1.8248009969227534
-1.8371099412527454
-1.849418885582765
-1.849418885582765
-1.849418885582765
-1.8432644134177558
-1.8248009969227534
-1.8063375804277528
-1.8063375804277528
-1.8001831082627426
-1.7878741639327511
-1.8001831082627426
-1.7940286360977609
-1.7817196917677414
-1.7817196917677414
-1.7940286360977609
-1.7940286360977609
-1.7817196917677414
-1.7509473309427481
-1.7509473309427481
-1.7694107474377496
-1.7694107474377496
-1.7694107474377496
-1.7755652196027594
-1.7694107474377496
-1.757101803107758
-1.7632562752727399
-1.7694107474377496
-1.7694107474377496
-1.757101803107758
-1.7632562752727399
-1.757101803107758
-1.7694107474377496
-1.7878741639327511
-1.7940286360977609
-1.7878741639327511
-1.8001831082627426
-1.8124920525927626
-1.8124920525927626
-1.8063375804277528
-1.8063375804277528
-1.8001831082627426
-1.7878741639327511
-1.7878741639327511
-1.7817196917677414
-1.8001831082627426
-1.8001831082627426
-1.8063375804277528
-1.8001831082627426
-1.7940286360977609
-1.7940286360977609
-1.8063375804277528
-1.8063375804277528
-1.818646524757745
-1.7940286360977609
-1.8001831082627426
-1.8063375804277528
-1.8001831082627426
-1.7694107474377496
-1.7817196917677414
-1.7755652196027594
-1.7632562752727399
-1.7632562752727399
-1.7632562752727399
-1.7694107474377496
-1.7755652196027594
-1.7817196917677414
-1.7755652196027594
-1.7509473309427481
-1.7386383866127564
-1.7509473309427481
-1.7509473309427481
-1.7509473309427481
-1.7509473309427481
-1.757101803107758
-1.7632562752727399
-1.7632562752727399
-1.7694107474377496
-1.757101803107758
-1.757101803107758
-1.7632562752727399
-1.757101803107758
-1.7694107474377496
-1.7878741639327511
-1.7755652196027594
-1.7509473309427481
-1.757101803107758
-1.7632562752727399
-1.7694107474377496
-1.7755652196027594
-1.7817196917677414
-1.7940286360977609
-1.7878741639327511
-1.7940286360977609
-1.8001831082627426
-1.8248009969227534
-1.849418885582765
-1.8371099412527454
-1.818646524757745
-1.8248009969227534
-1.8371099412527454
-1.8432644134177558
-1.8432644134177558
-1.8432644134177558
-1.8432644134177558
-1.8432644134177558
-1.861727829912757
-1.861727829912757
-1.849418885582765
-1.830955469087764
-1.830955469087764
-1.8432644134177558
-1.8678823020777668
-1.818646524757745
-1.8001831082627426
-1.8001831082627426
-1.7940286360977609
-1.7755652196027594
-1.7755652196027594
-1.8063375804277528
-1.830955469087764
-1.8063375804277528
-1.7817196917677414
-1.7755652196027594
-1.7755652196027594
-1.7878741639327511
-1.7940286360977609
-1.7940286360977609
-1.8001831082627426
-1.818646524757745
-1.8124920525927626
-1.8001831082627426
-1.7940286360977609
-1.8248009969227534
-1.8248009969227534
-1.8124920525927626
-1.8001831082627426
-1.7940286360977609
-1.7940286360977609
-1.8001831082627426
-1.818646524757745
-1.8124920525927626
-1.8063375804277528
-1.8248009969227534
-1.8371099412527454
-1.818646524757745
-1.8124920525927626
-1.8063375804277528
-1.757101803107758
-1.6278578876427194
-1.4924595000126994
-1.3693700567126987
-1.3385976958876775
-1.4432237226927047
-1.5540042216627135
-1.677093664962742
-1.8740367742427766
-2.0217441062027888
-2.083288827852803
-1.9848172732127856
-1.861727829912757
-1.8001831082627426
-1.7694107474377496
-1.7755652196027594
-1.7940286360977609
-1.8063375804277528
-1.8371099412527454
-1.818646524757745
-1.7940286360977609
-1.7878741639327511
-1.7878741639327511
-1.7878741639327511
-1.7878741639327511
-1.7878741639327511
-1.7817196917677414
-1.7940286360977609
-1.7755652196027594
-1.7694107474377496
-1.7755652196027594
-1.7694107474377496
-1.757101803107758
-1.7447928587777384
-1.7447928587777384
-1.7509473309427481
-1.7509473309427481
-1.7447928587777384
-1.757101803107758
-1.7509473309427481
-1.7509473309427481
-1.7509473309427481
-1.7386383866127564
-1.7324839144477464
-1.7263294422827367
-1.7140204979527456
-1.7201749701177547
-1.7201749701177547
-1.7324839144477464
-1.7324839144477464
-1.7263294422827367
-1.7263294422827367
-1.7447928587777384
-1.7447928587777384
-1.7140204979527456
-1.7140204979527456
-1.7201749701177547
-1.7140204979527456
-1.7140204979527456
-1.7201749701177547
-1.7201749701177547
-1.7263294422827367
-1.7140204979527456
-1.7140204979527456
-1.7201749701177547
-1.6955570814577436
-1.689402609292734
-1.683248137127724
-1.677093664962742
-1.6709391927977324
-1.6524757763027313
-1.6463213041377216
-1.6463213041377216
-1.6401668319727392
-1.6524757763027313
-1.6463213041377216
-1.6463213041377216
-1.6278578876427194
-1.6217034154777374
-1.6032399989827366
-1.6032399989827366
-1.6032399989827366
-1.6278578876427194
-1.6217034154777374
-1.615548943312728
-1.615548943312728
-1.615548943312728
-1.5970855268177266
-1.6340123598077294
-1.689402609292734
-1.7386383866127564
-1.7509473309427481
-1.7694107474377496
-1.7878741639327511
-1.8063375804277528
-1.8124920525927626
-1.8248009969227534
-1.8432644134177558
-1.861727829912757
-1.855573357747775
-1.8432644134177558
-1.855573357747775
-1.861727829912757
-1.8678823020777668
-1.861727829912757
-1.861727829912757
-1.8678823020777668
-1.8740367742427766
-1.8678823020777668
-1.8678823020777668
-1.861727829912757
-1.8678823020777668
-1.8678823020777668
-1.861727829912757
-1.8124920525927626
-1.7940286360977609
-1.818646524757745
-1.830955469087764
-1.8371099412527454
-1.8248009969227534
-1.8124920525927626
-1.849418885582765
-1.8678823020777668
-1.849418885582765
-1.8371099412527454
-1.855573357747775
-1.8432644134177558
-1.818646524757745
-1.8001831082627426
-1.8063375804277528
-1.8124920525927626
-1.818646524757745
-1.818646524757745
-1.8248009969227534
-1.830955469087764
-1.8248009969227534
-1.8371099412527454
-1.8371099412527454
-1.849418885582765
-1.8371099412527454
-1.818646524757745
-1.818646524757745
-1.8371099412527454
-1.830955469087764
-1.8248009969227534
-1.830955469087764
-1.830955469087764
-1.830955469087764
-1.830955469087764
-1.830955469087764
-1.830955469087764
-1.830955469087764
-1.8248009969227534
-1.849418885582765
-1.855573357747775
-1.8248009969227534
-1.818646524757745
-1.8124920525927626
-1.8124920525927626
-1.818646524757745
-1.818646524757745
-1.8124920525927626
-1.8248009969227534
-1.8248009969227534
-1.8124920525927626
-1.7878741639327511
-1.7878741639327511
-1.7878741639327511
-1.7940286360977609
-1.7878741639327511
-1.7878741639327511
-1.8001831082627426
-1.8124920525927626
-1.830955469087764
-1.8248009969227534
-1.830955469087764
-1.8371099412527454
-1.8248009969227534
-1.818646524757745
-1.8248009969227534
-1.830955469087764
-1.830955469087764
-1.8063375804277528
-1.8063375804277528
-1.818646524757745
-1.8124920525927626
-1.8248009969227534
-1.8248009969227534
-1.818646524757745
-1.8063375804277528
-1.8124920525927626
-1.8124920525927626
-1.8001831082627426
-1.7940286360977609
-1.8001831082627426
-1.8063375804277528
-1.7940286360977609
-1.7878741639327511
-1.7817196917677414
-1.7940286360977609
-1.8001831082627426
-1.8001831082627426
-1.8063375804277528
-1.818646524757745
-1.8001831082627426
-1.7755652196027594
-1.7694107474377496
-1.7817196917677414
-1.8001831082627426
-1.7509473309427481
-1.7447928587777384
-1.7632562752727399
-1.7694107474377496
-1.7755652196027594
-1.7632562752727399
-1.7878741639327511
-1.8063375804277528
-1.7940286360977609
-1.7940286360977609
-1.7940286360977609
-1.7878741639327511
-1.7940286360977609
-1.7940286360977609
-1.8001831082627426
-1.8001831082627426
-1.8001831082627426
-1.7940286360977609
-1.7694107474377496
-1.7878741639327511
-1.7878741639327511
-1.8001831082627426
-1.7940286360977609
-1.7817196917677414
-1.8001831082627426
-1.8001831082627426
-1.7878741639327511
-1.7755652196027594
-1.7817196917677414
-1.7817196917677414
-1.7817196917677414
-1.7694107474377496
-1.7694107474377496
-1.7694107474377496
-1.757101803107758
-1.757101803107758
-1.7694107474377496
-1.7817196917677414
-1.7878741639327511
-1.757101803107758
-1.7509473309427481
-1.7632562752727399
-1.757101803107758
-1.757101803107758
-1.757101803107758
-1.7632562752727399
-1.7817196917677414
-1.7632562752727399
-1.7447928587777384
-1.7386383866127564
-1.7447928587777384
-1.7509473309427481
-1.757101803107758
-1.7632562752727399
-1.7694107474377496
-1.757101803107758
-1.7694107474377496
-1.7817196917677414
-1.7940286360977609
-1.7632562752727399
-1.757101803107758
-1.7878741639327511
-1.8001831082627426
-1.7755652196027594
-1.7755652196027594
-1.7755652196027594
-1.7878741639327511
-1.8001831082627426
-1.7817196917677414
-1.7755652196027594
-1.7755652196027594
-1.7755652196027594
-1.7694107474377496
-1.7755652196027594
-1.7817196917677414
-1.7755652196027594
-1.7755652196027594
-1.7817196917677414
-1.7878741639327511
-1.8001831082627426
-1.7878741639327511
-1.7694107474377496
-1.7694107474377496
-1.7694107474377496
-1.7755652196027594
-1.7694107474377496
-1.7694107474377496
-1.7755652196027594
-1.7755652196027594
-1.7755652196027594
-1.7632562752727399
-1.7386383866127564
-1.7201749701177547
-1.7263294422827367
-1.7324839144477464
-1.7386383866127564
-1.7509473309427481
-1.7632562752727399
-1.757101803107758
-1.7694107474377496
-1.7940286360977609
-1.7878741639327511
-1.757101803107758
-1.7632562752727399
-1.7694107474377496
-1.7755652196027594
-1.7755652196027594
-1.7755652196027594
-1.7817196917677414
-1.7940286360977609
-1.8001831082627426
-1.7940286360977609
-1.7817196917677414
-1.7632562752727399
-1.7509473309427481
-1.757101803107758
-1.757101803107758
-1.7632562752727399
-1.7694107474377496
-1.7324839144477464
-1.6524757763027313
-1.5355408051677124
-1.3878334732077002
-1.3385976958876775
-1.400142417537692
-1.510922916507701
-1.6032399989827366
-1.7447928587777384
-1.9232725515627715
-2.0463619948628
-2.0586709391927913
-1.9971262175427773
-1.892500190737778
-1.8248009969227534
-1.7817196917677414
-1.7817196917677414
-1.7694107474377496
-1.7632562752727399
-1.7817196917677414
-1.7940286360977609
-1.8001831082627426
-1.7755652196027594
-1.7694107474377496
-1.7694107474377496
-1.7694107474377496
-1.7817196917677414
-1.7694107474377496
-1.7447928587777384
-1.7509473309427481
-1.7694107474377496
-1.7755652196027594
-1.7694107474377496
-1.7386383866127564
-1.7386383866127564
-1.7386383866127564
-1.7386383866127564
-1.7447928587777384
-1.7447928587777384
-1.7509473309427481
-1.7447928587777384
-1.7263294422827367
-1.7201749701177547
-1.7201749701177547
-1.7201749701177547
-1.7324839144477464
-1.7324839144477464
-1.7324839144477464
-1.7386383866127564
-1.7263294422827367
-1.7324839144477464
-1.7263294422827367
-1.7140204979527456
-1.7140204979527456
-1.7201749701177547
-1.7017115536227536
-1.6955570814577436
-1.689402609292734
-1.6955570814577436
-1.6955570814577436
-1.7078660257877356
-1.7201749701177547
-1.7017115536227536
-1.7017115536227536
-1.6955570814577436
-1.7017115536227536
-1.677093664962742
-1.6709391927977324
-1.6647847206327224
-1.677093664962742
-1.6709391927977324
-1.6709391927977324
-1.677093664962742
-1.6709391927977324
-1.6586302484677409
-1.6524757763027313
-1.6524757763027313
-1.6401668319727392
-1.6524757763027313
-1.6340123598077294
-1.615548943312728
-1.615548943312728
-1.6093944711477182
-1.615548943312728
-1.6217034154777374
-1.6217034154777374
-1.6217034154777374
-1.6340123598077294
-1.6340123598077294
-1.6401668319727392
-1.6586302484677409
-1.683248137127724
-1.6955570814577436
-1.7263294422827367
-1.7447928587777384
-1.757101803107758
-1.7632562752727399
-1.7817196917677414
-1.7817196917677414
-1.8063375804277528
-1.8371099412527454
-1.7817196917677414
-1.7817196917677414
-1.7755652196027594
-1.7878741639327511
-1.7940286360977609
-1.7940286360977609
-1.818646524757745
-1.849418885582765
-1.8248009969227534
-1.8248009969227534
-1.8248009969227534
-1.8248009969227534
-1.8248009969227534
-1.8248009969227534
-1.8001831082627426
-1.8001831082627426
-1.818646524757745
-1.8248009969227534
-1.8124920525927626
-1.7878741639327511
-1.7878741639327511
-1.7755652196027594
-1.7694107474377496
-1.7817196917677414
-1.757101803107758
-1.7694107474377496
-1.7755652196027594
-1.7632562752727399
-1.7694107474377496
-1.7694107474377496
-1.8001831082627426
-1.8248009969227534
-1.8124920525927626
-1.8124920525927626
-1.818646524757745
-1.818646524757745
-1.7940286360977609
-1.7817196917677414
-1.7817196917677414
-1.7755652196027594
-1.7878741639327511
-1.7878741639327511
-1.7755652196027594
-1.7817196917677414
-1.7817196917677414
-1.7755652196027594
-1.7940286360977609
-1.8001831082627426
-1.7878741639327511
-1.7755652196027594
-1.7755652196027594
-1.7817196917677414
-1.7755652196027594
-1.7755652196027594
-1.7817196917677414
-1.7694107474377496
-1.7817196917677414
-1.7817196917677414
-1.7755652196027594
-1.7817196917677414
-1.7817196917677414
-1.7632562752727399
-1.7632562752727399
-1.7755652196027594
-1.7755652196027594
-1.7755652196027594
-1.7694107474377496
-1.7694107474377496
-1.7632562752727399
-1.7632562752727399
-1.7694107474377496
-1.7694107474377496
-1.7755652196027594
-1.7694107474377496
-1.757101803107758
-1.7632562752727399
-1.7632562752727399
-1.7878741639327511
-1.7878741639327511
-1.7940286360977609
-1.7878741639327511
-1.757101803107758
-1.7509473309427481
-1.7632562752727399
-1.7755652196027594
-1.7755652196027594
-1.7755652196027594
-1.7694107474377496
-1.7755652196027594
-1.7878741639327511
-1.7694107474377496
-1.7447928587777384
-1.757101803107758
-1.7694107474377496
-1.7632562752727399
-1.757101803107758
-1.7694107474377496
-1.7940286360977609
-1.7817196917677414
-1.7632562752727399
-1.7509473309427481
-1.7509473309427481
-1.7509473309427481
-1.7632562752727399
-1.7632562752727399
-1.757101803107758
-1.7509473309427481
-1.7509473309427481
-1.757101803107758
-1.757101803107758
-1.7694107474377496
-1.7694107474377496
-1.7447928587777384
-1.7447928587777384
-1.757101803107758
-1.7632562752727399
-1.7509473309427481
-1.7447928587777384
-1.7509473309427481
-1.7632562752727399
-1.7509473309427481
-1.7386383866127564
-1.7386383866127564
-1.7447928587777384
-1.757101803107758
-1.7755652196027594
-1.7694107474377496
-1.7632562752727399
-1.7632562752727399
-1.757101803107758
-1.7632562752727399
-1.7755652196027594
-1.757101803107758
-1.7386383866127564
-1.7509473309427481
-1.7632562752727399
-1.7509473309427481
-1.7509473309427481
-1.7509473309427481
-1.757101803107758
-1.7632562752727399
-1.7755652196027594
-1.7817196917677414
-1.7755652196027594
-1.7632562752727399
-1.7509473309427481
-1.7447928587777384
-1.7509473309427481
-1.7940286360977609
-1.8001831082627426
-1.7817196917677414
-1.8001831082627426
-1.8063375804277528
-1.7878741639327511
-1.757101803107758
-1.7509473309427481
-1.7694107474377496
-1.7694107474377496
-1.757101803107758
-1.757101803107758
-1.7509473309427481
-1.7386383866127564
-1.7509473309427481
-1.7509473309427481
-1.7263294422827367
-1.7386383866127564
-1.7447928587777384
-1.7447928587777384
-1.7632562752727399
-1.7755652196027594
-1.7632562752727399
-1.7386383866127564
-1.757101803107758
-1.7509473309427481
-1.7694107474377496
-1.7755652196027594
-1.7817196917677414
-1.7817196917677414
-1.7755652196027594
-1.7755652196027594
-1.7940286360977609
-1.7940286360977609
-1.7755652196027594
-1.7694107474377496
-1.7694107474377496
-1.7817196917677414
-1.7755652196027594
-1.7694107474377496
-1.7694107474377496
-1.7632562752727399
-1.7324839144477464
-1.6401668319727392
-1.510922916507701
-1.39398794537271
-1.326288751557686
-1.3755245288776807
-1.473996083517698
-1.5663131659927332
-1.7140204979527456
-1.91096360723278
-2.0278985783677985
-2.0217441062027888
-1.91096360723278
-1.8248009969227534
-1.7940286360977609
-1.7509473309427481
-1.7263294422827367
-1.7386383866127564
-1.757101803107758
-1.7447928587777384
-1.7509473309427481
-1.7509473309427481
-1.757101803107758
-1.7694107474377496
-1.7694107474377496
-1.7755652196027594
-1.7694107474377496
-1.7447928587777384
-1.7386383866127564
-1.7447928587777384
-1.7447928587777384
-1.7509473309427481
-1.7509473309427481
-1.7509473309427481
-1.7509473309427481
-1.757101803107758
-1.7632562752727399
-1.7632562752727399
-1.7509473309427481
-1.7386383866127564
-1.7447928587777384
-1.7447928587777384
-1.7324839144477464
-1.7324839144477464
-1.7201749701177547
-1.7263294422827367
-1.7201749701177547
-1.7324839144477464
-1.7386383866127564
-1.7201749701177547
-1.7140204979527456
-1.7201749701177547
-1.7324839144477464
-1.7509473309427481
-1.7386383866127564
-1.7263294422827367
-1.7078660257877356
-1.7017115536227536
-1.7017115536227536
-1.7017115536227536
-1.7017115536227536
-1.7078660257877356
-1.7078660257877356
-1.7017115536227536
-1.6955570814577436
-1.6955570814577436
-1.7017115536227536
-1.6955570814577436
-1.677093664962742
-1.689402609292734
-1.6955570814577436
-1.6955570814577436
-1.6955570814577436
-1.6647847206327224
-1.6401668319727392
-1.6340123598077294
-1.6401668319727392
-1.6463213041377216
-1.6217034154777374
-1.6217034154777374
-1.6217034154777374
-1.6217034154777374
-1.6217034154777374
-1.6340123598077294
-1.6647847206327224
-1.677093664962742
-1.6586302484677409
-1.6463213041377216
-1.6524757763027313
-1.6647847206327224
-1.683248137127724
-1.7201749701177547
-1.7386383866127564
-1.7632562752727399
-1.8001831082627426
-1.8124920525927626
-1.8124920525927626
-1.8124920525927626
-1.818646524757745
-1.8371099412527454
-1.849418885582765
-1.855573357747775
-1.861727829912757
-1.8678823020777668
-1.8740367742427766
-1.8678823020777668
-1.8740367742427766
-1.8740367742427766
-1.861727829912757
-1.855573357747775
-1.855573357747775
-1.8740367742427766
-1.861727829912757
-1.849418885582765
-1.849418885582765
-1.849418885582765
-1.855573357747775
-1.855573357747775
-1.849418885582765
-1.8432644134177558
-1.849418885582765
-1.849418885582765
-1.8432644134177558
-1.8678823020777668
-1.861727829912757
-1.8001831082627426
-1.8001831082627426
-1.8063375804277528
-1.8124920525927626
-1.8248009969227534
-1.8248009969227534
-1.849418885582765
-1.8678823020777668
-1.861727829912757
-1.849418885582765
-1.8432644134177558
-1.849418885582765
-1.8678823020777668
-1.849418885582765
-1.8248009969227534
-1.8248009969227534
-1.830955469087764
-1.8432644134177558
-1.8371099412527454
-1.8124920525927626
-1.8248009969227534
-1.818646524757745
-1.8248009969227534
-1.830955469087764
-1.8371099412527454
-1.8371099412527454
-1.818646524757745
-1.8001831082627426
-1.8124920525927626
-1.8001831082627426
-1.8063375804277528
-1.818646524757745
-1.8248009969227534
-1.818646524757745
-1.818646524757745
-1.8248009969227534
-1.8063375804277528
-1.8001831082627426
-1.8001831082627426
-1.8124920525927626
-1.818646524757745
-1.8124920525927626
-1.8248009969227534
-1.830955469087764
-1.830955469087764
-1.8432644134177558
-1.830955469087764
-1.8001831082627426
-1.8063375804277528
-1.8124920525927626
-1.818646524757745
-1.818646524757745
-1.8124920525927626
-1.8248009969227534
-1.830955469087764
-1.849418885582765
-1.8432644134177558
-1.8063375804277528
-1.7878741639327511
-1.7940286360977609
-1.8001831082627426
-1.818646524757745
-1.818646524757745
-1.8124920525927626
-1.818646524757745
-1.830955469087764
-1.818646524757745
-1.8124920525927626
-1.8001831082627426
-1.7940286360977609
-1.8124920525927626
-1.8248009969227534
-1.8063375804277528
-1.8124920525927626
-1.8001831082627426
-1.7878741639327511
-1.7817196917677414
-1.818646524757745
-1.8371099412527454
-1.8371099412527454
-1.8371099412527454
-1.830955469087764
-1.8001831082627426
-1.7940286360977609
-1.7878741639327511
-1.8001831082627426
-1.8001831082627426
-1.8001831082627426
-1.8063375804277528
-1.8063375804277528
-1.8063375804277528
-1.8063375804277528
-1.8063375804277528
-1.8248009969227534
-1.8063375804277528
-1.7817196917677414
-1.7817196917677414
-1.7755652196027594
-1.7632562752727399
-1.7755652196027594
-1.7694107474377496
-1.7817196917677414
-1.7878741639327511
-1.7755652196027594
-1.7755652196027594
-1.7755652196027594
-1.7632562752727399
-1.7878741639327511
-1.7940286360977609
-1.7878741639327511
-1.7755652196027594
-1.7817196917677414
-1.7878741639327511
-1.7940286360977609
-1.8063375804277528
-1.8063375804277528
-1.7940286360977609
-1.7755652196027594
-1.7817196917677414
-1.8001831082627426
-1.7878741639327511
-1.7694107474377496
-1.7755652196027594
-1.7755652196027594
-1.7817196917677414
-1.7878741639327511
-1.7878741639327511
-1.7694107474377496
-1.7201749701177547
-1.6340123598077294
-1.5232318608377204
-1.4247603061977032
-1.3509066402176972
-1.3878334732077002
-1.4863050278477177
-1.5970855268177266
-1.7447928587777384
-1.9232725515627715
-2.009435161872797
-2.0278985783677985
-1.9971262175427773
-1.9232725515627715
-1.855573357747775
-1.7878741639327511
-1.7755652196027594
-1.7694107474377496
-1.7632562752727399
-1.7755652196027594
-1.7817196917677414
-1.7755652196027594
-1.7755652196027594
-1.7878741639327511
-1.7878741639327511
-1.757101803107758
-1.7632562752727399
-1.7694107474377496
-1.7694107474377496
-1.7694107474377496
-1.7694107474377496
-1.7694107474377496
-1.757101803107758
-1.7509473309427481
-1.7509473309427481
-1.7632562752727399
-1.7447928587777384
-1.7201749701177547
-1.7201749701177547
-1.7263294422827367
-1.7263294422827367
-1.7386383866127564
-1.7386383866127564
-1.7386383866127564
-1.7509473309427481
-1.7447928587777384
-1.7509473309427481
-1.7632562752727399
-1.7386383866127564
-1.7201749701177547
-1.7201749701177547
-1.7324839144477464
-1.7386383866127564
-1.7201749701177547
-1.7201749701177547
-1.7140204979527456
-1.7263294422827367
-1.7386383866127564
-1.7324839144477464
-1.7201749701177547
-1.7140204979527456
-1.7078660257877356
-1.7078660257877356
-1.7078660257877356
-1.6955570814577436
-1.689402609292734
-1.689402609292734
-1.6955570814577436
-1.683248137127724
-1.6278578876427194
-1.6401668319727392
-1.6524757763027313
-1.6586302484677409
-1.6278578876427194
-1.6217034154777374
-1.6586302484677409
-1.6647847206327224
-1.6586302484677409
-1.6524757763027313
-1.6463213041377216
-1.6524757763027313
-1.6586302484677409
-1.6586302484677409
-1.6524757763027313
-1.6524757763027313
-1.6524757763027313
-1.6647847206327224
-1.677093664962742
-1.6955570814577436
-1.7140204979527456
-1.7324839144477464
-1.7509473309427481
-1.7632562752727399
-1.7817196917677414
-1.8001831082627426
-1.818646524757745
-1.849418885582765
-1.855573357747775
-1.855573357747775
-1.8432644134177558
-1.830955469087764
-1.8371099412527454
-1.8432644134177558
-1.861727829912757
-1.8678823020777668
-1.849418885582765
-1.8371099412527454
-1.8371099412527454
-1.8432644134177558
-1.849418885582765
-1.8432644134177558
-1.8432644134177558
-1.8371099412527454
-1.849418885582765
-1.8432644134177558
-1.849418885582765
-1.8432644134177558
-1.8432644134177558
-1.8432644134177558
-1.849418885582765
-1.855573357747775
-1.849418885582765
-1.8124920525927626
-1.8248009969227534
-1.8248009969227534
-1.8248009969227534
-1.8432644134177558
-1.8371099412527454
-1.8371099412527454
-1.830955469087764
-1.8371099412527454
-1.861727829912757
-1.830955469087764
-1.818646524757745
-1.830955469087764
-1.818646524757745
-1.8063375804277528
-1.818646524757745
-1.818646524757745
-1.8248009969227534
-1.830955469087764
-1.8432644134177558
-1.830955469087764
-1.8063375804277528
-1.8124920525927626
-1.8248009969227534
-1.8124920525927626
-1.8124920525927626
-1.818646524757745
-1.8124920525927626
-1.8124920525927626
-1.830955469087764
-1.8371099412527454
-1.830955469087764
-1.8124920525927626
-1.8063375804277528
-1.8248009969227534
-1.8371099412527454
-1.818646524757745
-1.8063375804277528
-1.8124920525927626
-1.8124920525927626
-1.8248009969227534
-1.8248009969227534
-1.8371099412527454
-1.8432644134177558
-1.8248009969227534
-1.7878741639327511
-1.8001831082627426
-1.8124920525927626
-1.8124920525927626
-1.8124920525927626
-1.818646524757745
-1.8063375804277528
-1.8248009969227534
-1.818646524757745
-1.8063375804277528
-1.8001831082627426
-1.7940286360977609
-1.7878741639327511
-1.7817196917677414
-1.7817196917677414
-1.7817196917677414
-1.7878741639327511
-1.7940286360977609
-1.8063375804277528
-1.7817196917677414
-1.7694107474377496
-1.7755652196027594
-1.7878741639327511
-1.8432644134177558
-1.8001831082627426
-1.7694107474377496
-1.8124920525927626
-1.8371099412527454
-1.8371099412527454
-1.818646524757745
-1.7940286360977609
-1.7940286360977609
-1.8063375804277528
-1.7940286360977609
-1.7940286360977609
-1.7817196917677414
-1.7817196917677414
-1.7878741639327511
-1.8063375804277528
-1.8248009969227534
-1.8063375804277528
-1.7755652196027594
-1.7940286360977609
-1.8001831082627426
-1.7755652196027594
-1.7817196917677414
-1.7940286360977609
-1.7878741639327511
-1.7817196917677414
-1.8001831082627426
-1.7940286360977609
-1.7694107474377496
-1.757101803107758
-1.7632562752727399
-1.7817196917677414
-1.7817196917677414
-1.7817196917677414
-1.7940286360977609
-1.8001831082627426
-1.8001831082627426
-1.7817196917677414
-1.757101803107758
-1.7632562752727399
-1.7755652196027594
-1.7878741639327511
-1.7878741639327511
-1.7694107474377496
-1.7817196917677414
-1.7878741639327511
-1.7817196917677414
-1.8001831082627426
-1.8124920525927626
-1.8124920525927626
-1.7878741639327511
-1.7694107474377496
-1.7755652196027594
-1.7755652196027594
-1.7694107474377496
-1.7509473309427481
-1.7509473309427481
-1.757101803107758
-1.7755652196027594
-1.7755652196027594
-1.7694107474377496
-1.7694107474377496
-1.7878741639327511
-1.8124920525927626
-1.7878741639327511
-1.7817196917677414
-1.7755652196027594
-1.7878741639327511
-1.7940286360977609
-1.8063375804277528
-1.8063375804277528
-1.7755652196027594
-1.7509473309427481
-1.7817196917677414
-1.8063375804277528
-1.7878741639327511
-1.7755652196027594
-1.7755652196027594
-1.7755652196027594
-1.7817196917677414
-1.7694107474377496
-1.7694107474377496
-1.7324839144477464
-1.6401668319727392
-1.5170773886727107
-1.400142417537692
-1.3385976958876775
-1.3878334732077002
-1.5293863330027024
-1.6524757763027313
-1.7940286360977609
-1.9355814958927628
-2.0217441062027888
-1.9971262175427773
-1.89865466290276
-1.818646524757745
-1.7817196917677414
-1.7509473309427481
-1.7386383866127564
-1.7386383866127564
-1.757101803107758
-1.757101803107758
-1.7447928587777384
-1.7509473309427481
-1.7694107474377496
-1.7755652196027594
-1.757101803107758
-1.7632562752727399
-1.7694107474377496
-1.7694107474377496
-1.757101803107758
-1.7263294422827367
-1.7324839144477464
-1.7324839144477464
-1.7386383866127564
-1.7386383866127564
-1.7324839144477464
-1.7509473309427481
-1.7447928587777384
-1.7386383866127564
-1.7509473309427481
-1.757101803107758
-1.7509473309427481
-1.757101803107758
-1.7447928587777384
-1.7386383866127564
-1.7324839144477464
-1.7386383866127564
-1.7447928587777384
-1.7940286360977609
-1.7940286360977609
-1.757101803107758
-1.7509473309427481
-1.757101803107758
-1.757101803107758
-1.7509473309427481
-1.7447928587777384
-1.7447928587777384
-1.7386383866127564
-1.7263294422827367
-1.7201749701177547
-1.7386383866127564
-1.7263294422827367
-1.7386383866127564
-1.7140204979527456
-1.689402609292734
-1.7017115536227536
-1.689402609292734
-1.6955570814577436
-1.6955570814577436
-1.689402609292734
-1.689402609292734
-1.689402609292734
-1.683248137127724
-1.677093664962742
-1.677093664962742
-1.6586302484677409
-1.6463213041377216
-1.6524757763027313
-1.677093664962742
-1.6709391927977324
-1.6586302484677409
-1.6647847206327224
-1.6524757763027313
-1.6524757763027313
-1.6586302484677409
-1.6647847206327224
-1.6647847206327224
-1.6463213041377216
-1.6586302484677409
-1.683248137127724
-1.7078660257877356
-1.7263294422827367
-1.7447928587777384
-1.7817196917677414
-1.7878741639327511
-1.7878741639327511
-1.818646524757745
-1.8371099412527454
-1.8432644134177558
-1.855573357747775
-1.855573357747775
-1.8678823020777668
-1.8678823020777668
-1.8740367742427766
-1.8740367742427766
-1.849418885582765
-1.8678823020777668
-1.892500190737778
-1.8863457185727683
-1.849418885582765
-1.830955469087764
-1.8371099412527454
-1.8432644134177558
-1.849418885582765
-1.861727829912757
-1.849418885582765
-1.830955469087764
-1.8248009969227534
-1.8371099412527454
-1.830955469087764
-1.8371099412527454
-1.855573357747775
-1.849418885582765
-1.855573357747775
-1.8740367742427766
-1.855573357747775
-1.8248009969227534
-1.8124920525927626
-1.8124920525927626
-1.8063375804277528
-1.818646524757745
-1.830955469087764
-1.8371099412527454
-1.830955469087764
-1.830955469087764
-1.8371099412527454
-1.8248009969227534
-1.8124920525927626
-1.830955469087764
-1.8371099412527454
-1.830955469087764
-1.818646524757745
-1.8248009969227534
-1.8248009969227534
-1.8063375804277528
-1.8063375804277528
-1.8124920525927626
-1.8063375804277528
-1.8063375804277528
-1.8248009969227534
-1.830955469087764
-1.818646524757745
-1.8001831082627426
-1.8001831082627426
-1.8001831082627426
-1.8063375804277528
-1.8063375804277528
-1.8124920525927626
-1.8124920525927626
-1.8248009969227534
-1.830955469087764
-1.8001831082627426
-1.8001831082627426
-1.7940286360977609
-1.7878741639327511
-1.8001831082627426
-1.8432644134177558
-1.849418885582765
-1.830955469087764
-1.818646524757745
-1.8124920525927626
-1.8124920525927626
-1.8063375804277528
-1.8063375804277528
-1.8063375804277528
-1.8063375804277528
-1.8124920525927626
-1.818646524757745
-1.818646524757745
-1.8248009969227534
-1.7940286360977609
-1.7817196917677414
-1.7940286360977609
-1.7878741639327511
-1.8001831082627426
-1.8063375804277528
-1.7940286360977609
-1.7878741639327511
-1.7940286360977609
-1.8001831082627426
-1.8124920525927626
-1.8001831082627426
-1.7817196917677414
-1.7878741639327511
-1.7817196917677414
-1.7817196917677414
-1.7878741639327511
-1.7817196917677414
-1.7817196917677414
-1.7817196917677414
-1.7940286360977609
-1.8063375804277528
-1.8063375804277528
-1.7940286360977609
-1.7878741639327511
-1.7940286360977609
-1.8248009969227534
-1.818646524757745
-1.7878741639327511
-1.7817196917677414
-1.7878741639327511
-1.8001831082627426
-1.8001831082627426
-1.8063375804277528
-1.7878741639327511
-1.7755652196027594
-1.7755652196027594
-1.7817196917677414
-1.7940286360977609
-1.7878741639327511
-1.7940286360977609
-1.8001831082627426
-1.8001831082627426
-1.8063375804277528
-1.8001831082627426
-1.818646524757745
-1.8432644134177558
-1.818646524757745
-1.8063375804277528
-1.7940286360977609
-1.7632562752727399
-1.7694107474377496
-1.7694107474377496
-1.7632562752727399
-1.7694107474377496
-1.7817196917677414
-1.8001831082627426
-1.8371099412527454
-1.818646524757745
-1.7940286360977609
-1.8001831082627426
-1.8001831082627426
-1.8001831082627426
-1.7940286360977609
-1.8063375804277528
-1.8001831082627426
-1.8001831082627426
-1.8124920525927626
-1.8248009969227534
-1.830955469087764
-1.8248009969227534
-1.8124920525927626
-1.7940286360977609
-1.8063375804277528
-1.7878741639327511
-1.7940286360977609
-1.7940286360977609
-1.7940286360977609
-1.7878741639327511
-1.8001831082627426
-1.8001831082627426
-1.7755652196027594
-1.7755652196027594
-1.7817196917677414
-1.7694107474377496
-1.7817196917677414
-1.8063375804277528
-1.8001831082627426
-1.7878741639327511
-1.7940286360977609
-1.7940286360977609
-1.8001831082627426
-1.8063375804277528
-1.8063375804277528
-1.7940286360977609
-1.7755652196027594
-1.7817196917677414
-1.7755652196027594
-1.7940286360977609
-1.8063375804277528
-1.818646524757745
-1.7817196917677414
-1.7447928587777384
-1.7694107474377496
-1.7817196917677414
-1.7694107474377496
-1.757101803107758
-1.7878741639327511
-1.8063375804277528
-1.8124920525927626
-1.7878741639327511
-1.7694107474377496
-1.8001831082627426
-1.8124920525927626
-1.8063375804277528
-1.8124920525927626
-1.8063375804277528
-1.8063375804277528
-1.8063375804277528
-1.8124920525927626
-1.8124920525927626
-1.8001831082627426
-1.7878741639327511
-1.8001831082627426
-1.8001831082627426
-1.7509473309427481
-1.6401668319727392
-1.510922916507701
-1.400142417537692
-1.363215584547689
-1.4186058340326935
-1.5416952773327224
-1.6586302484677409
-1.7694107474377496
-1.9478904402227823
-2.064825411357801
-2.0463619948628
-1.91096360723278
-1.8432644134177558
-1.7878741639327511
-1.7755652196027594
-1.7878741639327511
-1.7632562752727399
-1.7632562752727399
-1.7878741639327511
-1.7817196917677414
-1.7632562752727399
-1.7632562752727399
-1.7817196917677414
-1.7817196917677414
-1.7694107474377496
-1.7632562752727399
-1.7694107474377496
-1.7755652196027594
-1.8001831082627426
-1.7878741639327511
-1.7509473309427481
-1.7386383866127564
-1.757101803107758
-1.757101803107758
-1.7694107474377496
-1.7755652196027594
-1.7632562752727399
-1.7509473309427481
-1.757101803107758
-1.7694107474377496
-1.7817196917677414
-1.7755652196027594
-1.7694107474377496
-1.7632562752727399
-1.7694107474377496
-1.7694107474377496
-1.757101803107758
-1.757101803107758
-1.7447928587777384
-1.757101803107758
-1.7755652196027594
-1.7755652196027594
-1.7509473309427481
-1.7386383866127564
-1.7324839144477464
-1.7509473309427481
-1.7509473309427481
-1.7324839144477464
-1.7201749701177547
-1.7201749701177547
-1.7140204979527456
-1.7324839144477464
-1.7386383866127564
-1.7386383866127564
-1.7263294422827367
-1.7140204979527456
-1.6955570814577436
-1.7078660257877356
-1.7140204979527456
-1.7140204979527456
-1.7140204979527456
-1.6955570814577436
-1.683248137127724
-1.689402609292734
-1.689402609292734
-1.7078660257877356
-1.689402609292734
-1.6647847206327224
-1.6586302484677409
-1.6586302484677409
-1.6463213041377216
-1.6524757763027313
-1.6647847206327224
-1.677093664962742
-1.689402609292734
-1.6647847206327224
-1.6647847206327224
-1.6647847206327224
-1.683248137127724
-1.7017115536227536
-1.7324839144477464
-1.7509473309427481
-1.7694107474377496
-1.7878741639327511
-1.818646524757745
-1.830955469087764
-1.849418885582765
-1.855573357747775
-1.8801912464077586
-1.8678823020777668
-1.861727829912757
-1.861727829912757
-1.849418885582765
-1.855573357747775
-1.8863457185727683
-1.892500190737778
-1.8863457185727683
-1.8801912464077586
-1.8801912464077586
-1.89865466290276
-1.89865466290276
-1.8740367742427766
-1.861727829912757
-1.8371099412527454
-1.855573357747775
-1.8740367742427766
-1.8740367742427766
-1.8432644134177558
-1.830955469087764
-1.849418885582765
-1.8432644134177558
-1.8432644134177558
-1.849418885582765
-1.849418885582765
-1.849418885582765
-1.830955469087764
-1.8432644134177558
-1.8371099412527454
-1.8678823020777668
-1.8678823020777668
-1.8432644134177558
-1.8371099412527454
-1.818646524757745
-1.830955469087764
-1.8371099412527454
-1.849418885582765
-1.8678823020777668
-1.861727829912757
-1.849418885582765
-1.8371099412527454
-1.830955469087764
-1.849418885582765
-1.8432644134177558
-1.8371099412527454
-1.8432644134177558
-1.855573357747775
-1.861727829912757
-1.8801912464077586
-1.849418885582765
-1.818646524757745
-1.830955469087764
-1.8248009969227534
-1.818646524757745
-1.830955469087764
-1.8371099412527454
-1.8432644134177558
-1.8432644134177558
-1.855573357747775
-1.8432644134177558
-1.8371099412527454
-1.861727829912757
-1.8678823020777668
-1.8432644134177558
-1.8248009969227534
-1.849418885582765
-1.8371099412527454
-1.8248009969227534
-1.8371099412527454
-1.855573357747775
-1.855573357747775
-1.849418885582765
-1.855573357747775
-1.8740367742427766
-1.855573357747775
-1.8248009969227534
-1.8248009969227534
-1.8371099412527454
-1.830955469087764
-1.8371099412527454
-1.8432644134177558
-1.855573357747775
-1.855573357747775
-1.8371099412527454
-1.849418885582765
-1.855573357747775
-1.830955469087764
-1.830955469087764
-1.830955469087764
-1.8248009969227534
-1.818646524757745
-1.8371099412527454
-1.830955469087764
-1.830955469087764
-1.8124920525927626
-1.8001831082627426
-1.8124920525927626
-1.830955469087764
-1.8371099412527454
-1.8248009969227534
-1.8371099412527454
-1.8432644134177558
-1.8432644134177558
-1.8371099412527454
-1.818646524757745
-1.8124920525927626
-1.8124920525927626
-1.830955469087764
-1.855573357747775
-1.8432644134177558
-1.830955469087764
-1.818646524757745
-1.8248009969227534
-1.8248009969227534
-1.8124920525927626
-1.830955469087764
-1.849418885582765
-1.8371099412527454
-1.8371099412527454
-1.8432644134177558
-1.830955469087764
-1.830955469087764
-1.818646524757745
-1.8248009969227534
-1.830955469087764
-1.7940286360977609
-1.7817196917677414
-1.7940286360977609
-1.8063375804277528
-1.818646524757745
-1.818646524757745
-1.849418885582765
-1.8740367742427766
-1.855573357747775
-1.8248009969227534
-1.818646524757745
-1.818646524757745
-1.8248009969227534
-1.8432644134177558
-1.849418885582765
-1.7878741639327511
-1.7632562752727399
-1.7878741639327511
-1.8063375804277528
-1.7940286360977609
-1.7940286360977609
-1.8248009969227534
-1.861727829912757
-1.8432644134177558
-1.8248009969227534
-1.830955469087764
-1.818646524757745
-1.818646524757745
-1.8001831082627426
-1.8124920525927626
-1.8248009969227534
-1.818646524757745
-1.830955469087764
-1.8248009969227534
-1.8063375804277528
-1.8063375804277528
-1.8063375804277528
-1.7940286360977609
-1.8124920525927626
-1.818646524757745
-1.8124920525927626
-1.8063375804277528
-1.8248009969227534
-1.8248009969227534
-1.818646524757745
-1.8063375804277528
-1.8124920525927626
-1.8063375804277528
-1.8001831082627426
-1.8063375804277528
-1.7878741639327511
-1.7817196917677414
-1.7755652196027594
-1.7755652196027594
-1.7940286360977609
-1.7878741639327511
-1.7632562752727399
-1.7694107474377496
-1.7755652196027594
-1.7817196917677414
-1.8001831082627426
-1.830955469087764
-1.8001831082627426
-1.7878741639327511
-1.7878741639327511
-1.7940286360977609
-1.8063375804277528
-1.8124920525927626
-1.818646524757745
-1.8124920525927626
-1.8124920525927626
-1.8124920525927626
-1.8124920525927626
-1.8432644134177558
-1.830955469087764
-1.8124920525927626
-1.8063375804277528
-1.818646524757745
-1.8001831082627426
-1.818646524757745
-1.818646524757745
-1.7509473309427481
-1.6647847206327224
-1.5355408051677124
-1.4247603061977032
-1.363215584547689
-1.4247603061977032
-1.5601586938277234
-1.683248137127724
-1.830955469087764
-1.9971262175427773
-2.083288827852803
-2.015589634037779
-1.9048091350677696
-1.830955469087764
-1.7878741639327511
-1.7940286360977609
-1.7940286360977609
-1.7755652196027594
-1.7755652196027594
-1.8001831082627426
-1.7940286360977609
-1.8063375804277528
-1.818646524757745
-1.8001831082627426
-1.7817196917677414
-1.7817196917677414
-1.7755652196027594
-1.8001831082627426
-1.8063375804277528
-1.7755652196027594
-1.7632562752727399
-1.7878741639327511
-1.7755652196027594
-1.7755652196027594
-1.7878741639327511
-1.7940286360977609
-1.7878741639327511
-1.7878741639327511
-1.7817196917677414
-1.7755652196027594
-1.7694107474377496
-1.7509473309427481
-1.7694107474377496
-1.8248009969227534
-1.818646524757745
-1.7817196917677414
-1.7694107474377496
-1.7755652196027594
-1.7817196917677414
-1.7878741639327511
-1.7755652196027594
-1.7817196917677414
-1.7817196917677414
-1.7755652196027594
-1.8001831082627426
-1.8001831082627426
-1.7694107474377496
-1.7447928587777384
-1.7263294422827367
-1.7324839144477464
-1.757101803107758
-1.7447928587777384
-1.7386383866127564
-1.7386383866127564
-1.7263294422827367
-1.7324839144477464
-1.7447928587777384
-1.7386383866127564
-1.7263294422827367
-1.7263294422827367
-1.7201749701177547
-1.7447928587777384
-1.7324839144477464
-1.7078660257877356
-1.683248137127724
-1.689402609292734
-1.6955570814577436
-1.683248137127724
-1.683248137127724
-1.683248137127724
-1.689402609292734
-1.683248137127724
-1.6647847206327224
-1.6586302484677409
-1.6647847206327224
-1.677093664962742
-1.6586302484677409
-1.6709391927977324
-1.689402609292734
-1.7140204979527456
-1.7201749701177547
-1.7386383866127564
-1.7632562752727399
-1.7817196917677414
-1.8001831082627426
-1.830955469087764
-1.8678823020777668
-1.8740367742427766
-1.8432644134177558
-1.855573357747775
-1.8740367742427766
-1.892500190737778
-1.9048091350677696
-1.91096360723278
-1.8740367742427766
-1.8740367742427766
-1.8740367742427766
-1.8801912464077586
-1.89865466290276
-1.8801912464077586
-1.861727829912757
-1.8678823020777668
-1.861727829912757
-1.861727829912757
-1.861727829912757
-1.855573357747775
-1.855573357747775
-1.861727829912757
-1.855573357747775
-1.855573357747775
-1.855573357747775
-1.855573357747775
-1.861727829912757
-1.855573357747775
-1.8740367742427766
-1.8740367742427766
-1.8432644134177558
-1.8371099412527454
-1.8432644134177558
-1.849418885582765
-1.8371099412527454
-1.8248009969227534
-1.8371099412527454
-1.849418885582765
-1.855573357747775
-1.8371099412527454
-1.8371099412527454
-1.8371099412527454
-1.8248009969227534
-1.8371099412527454
-1.8371099412527454
-1.818646524757745
-1.818646524757745
-1.8371099412527454
-1.855573357747775
-1.849418885582765
-1.8432644134177558
-1.818646524757745
-1.8248009969227534
-1.818646524757745
-1.830955469087764
-1.8124920525927626
-1.8124920525927626
-1.818646524757745
-1.8248009969227534
-1.830955469087764
-1.830955469087764
-1.8432644134177558
-1.830955469087764
-1.818646524757745
-1.818646524757745
-1.8248009969227534
-1.830955469087764
-1.8001831082627426
-1.8001831082627426
-1.8063375804277528
-1.818646524757745
-1.8124920525927626
-1.830955469087764
-1.8801912464077586
-1.8678823020777668
-1.855573357747775
-1.855573357747775
-1.8678823020777668
-1.8371099412527454
-1.830955469087764
-1.8371099412527454
-1.830955469087764
-1.8371099412527454
-1.8432644134177558
-1.8371099412527454
-1.8432644134177558
-1.8371099412527454
-1.8432644134177558
-1.8371099412527454
-1.8432644134177558
-1.8432644134177558
-1.8432644134177558
-1.8248009969227534
-1.8248009969227534
-1.8371099412527454
-1.849418885582765
-1.8432644134177558
-1.8124920525927626
-1.8063375804277528
-1.8124920525927626
-1.830955469087764
-1.8432644134177558
-1.849418885582765
-1.8248009969227534
-1.8063375804277528
-1.8001831082627426
-1.8124920525927626
-1.8124920525927626
-1.8248009969227534
-1.8248009969227534
-1.8248009969227534
-1.8432644134177558
-1.818646524757745
-1.8001831082627426
-1.818646524757745
-1.8248009969227534
-1.818646524757745
-1.8248009969227534
-1.830955469087764
-1.8371099412527454
-1.8371099412527454
-1.818646524757745
-1.8248009969227534
-1.8248009969227534
-1.8248009969227534
-1.8248009969227534
-1.818646524757745
-1.8124920525927626
-1.8248009969227534
-1.849418885582765
-1.8371099412527454
-1.7940286360977609
-1.7940286360977609
-1.7940286360977609
-1.8001831082627426
-1.8063375804277528
-1.8001831082627426
-1.818646524757745
-1.8371099412527454
-1.818646524757745
-1.8124920525927626
-1.818646524757745
-1.830955469087764
-1.8124920525927626
-1.8063375804277528
-1.818646524757745
-1.8371099412527454
-1.8432644134177558
-1.8248009969227534
-1.8124920525927626
-1.830955469087764
-1.818646524757745
-1.7878741639327511
-1.7878741639327511
-1.8001831082627426
-1.8001831082627426
-1.7940286360977609
-1.8001831082627426
-1.8063375804277528
-1.855573357747775
-1.8740367742427766
-1.8371099412527454
-1.830955469087764
-1.830955469087764
-1.818646524757745
-1.818646524757745
-1.8371099412527454
-1.8371099412527454
-1.8063375804277528
-1.8001831082627426
-1.8063375804277528
-1.8124920525927626
-1.8001831082627426
-1.7878741639327511
-1.818646524757745
-1.8371099412527454
-1.8063375804277528
-1.7755652196027594
-1.7817196917677414
-1.8063375804277528
-1.8124920525927626
-1.8124920525927626
-1.830955469087764
-1.8371099412527454
-1.8124920525927626
-1.8063375804277528
-1.830955469087764
-1.830955469087764
-1.8001831082627426
-1.7694107474377496
-1.7817196917677414
-1.8248009969227534
-1.8432644134177558
-1.818646524757745
-1.8124920525927626
-1.8063375804277528
-1.7817196917677414
-1.7940286360977609
-1.818646524757745
-1.8124920525927626
-1.7940286360977609
-1.7940286360977609
-1.7878741639327511
-1.8001831082627426
-1.8001831082627426
-1.8063375804277528
-1.818646524757745
-1.8063375804277528
-1.7817196917677414
-1.7817196917677414
-1.8063375804277528
-1.7940286360977609
-1.7755652196027594
-1.7755652196027594
-1.7878741639327511
-1.8124920525927626
-1.8063375804277528
-1.7940286360977609
-1.7817196917677414
-1.7940286360977609
-1.8063375804277528
-1.8063375804277528
-1.8063375804277528
-1.8063375804277528
-1.8001831082627426
-1.8001831082627426
-1.8001831082627426
-1.8001831082627426
-1.818646524757745
-1.8371099412527454
-1.8063375804277528
-1.7817196917677414
-1.7694107474377496
-1.7694107474377496
-1.7694107474377496
-1.7940286360977609
-1.8063375804277528
-1.8063375804277528
-1.7940286360977609
-1.7201749701177547
-1.6032399989827366
-1.4801505556827075
-1.3878334732077002
-1.3693700567126987
-1.4432237226927047
-1.5478497494977315
-1.689402609292734
-1.8740367742427766
-2.04020752269779
-2.089443300017785
-2.015589634037779
-1.89865466290276
-1.8001831082627426
-1.7509473309427481
-1.7447928587777384
-1.757101803107758
-1.7694107474377496
-1.7694107474377496
-1.757101803107758
-1.7632562752727399
-1.7817196917677414
-1.7940286360977609
-1.7940286360977609
-1.7755652196027594
-1.7694107474377496
-1.7755652196027594
-1.7817196917677414
-1.7632562752727399
-1.7755652196027594
-1.7632562752727399
-1.7755652196027594
-1.7694107474377496
-1.7632562752727399
-1.7632562752727399
-1.7694107474377496
-1.7755652196027594
-1.7632562752727399
-1.7694107474377496
-1.7632562752727399
-1.757101803107758
-1.757101803107758
-1.7509473309427481
-1.7755652196027594
-1.7817196917677414
-1.7817196917677414
-1.757101803107758
-1.7386383866127564
-1.7386383866127564
-1.7632562752727399
-1.7509473309427481
-1.7324839144477464
-1.7386383866127564
-1.7263294422827367
-1.7140204979527456
-1.7263294422827367
-1.7263294422827367
-1.7201749701177547
-1.7263294422827367
-1.7263294422827367
-1.7386383866127564
-1.7263294422827367
-1.7263294422827367
-1.7078660257877356
-1.7140204979527456
-1.7078660257877356
-1.689402609292734
-1.6955570814577436
-1.6955570814577436
-1.6955570814577436
-1.6586302484677409
-1.6647847206327224
-1.6340123598077294
-1.6278578876427194
-1.6340123598077294
-1.6401668319727392
-1.6524757763027313
-1.6524757763027313
-1.677093664962742
-1.6647847206327224
-1.6524757763027313
-1.6463213041377216
-1.6524757763027313
-1.6524757763027313
-1.6278578876427194
-1.5970855268177266
-1.6093944711477182
-1.6217034154777374
-1.6463213041377216
-1.6647847206327224
-1.6955570814577436
-1.6955570814577436
-1.7017115536227536
-1.7386383866127564
-1.7632562752727399
-1.7694107474377496
-1.7755652196027594
-1.7817196917677414
-1.8001831082627426
-1.8124920525927626
-1.818646524757745
-1.8248009969227534
-1.8432644134177558
-1.8371099412527454
-1.8248009969227534
-1.830955469087764
-1.830955469087764
-1.8371099412527454
-1.830955469087764
-1.8371099412527454
-1.818646524757745
-1.8001831082627426
-1.8001831082627426
-1.818646524757745
-1.8371099412527454
-1.8371099412527454
-1.8248009969227534
-1.8063375804277528
-1.8248009969227534
-1.8432644134177558
-1.8432644134177558
-1.8248009969227534
-1.8063375804277528
-1.8124920525927626
-1.8248009969227534
-1.8124920525927626
-1.8124920525927626
-1.818646524757745
-1.8124920525927626
-1.818646524757745
-1.8063375804277528
-1.8124920525927626
-1.8001831082627426
-1.7817196917677414
-1.7694107474377496
-1.7694107474377496
-1.7878741639327511
-1.7817196917677414
-1.7447928587777384
-1.7263294422827367
-1.7386383866127564
-1.7509473309427481
-1.7509473309427481
-1.7447928587777384
-1.7324839144477464
-1.7324839144477464
-1.757101803107758
-1.7509473309427481
-1.7447928587777384
-1.7509473309427481
-1.7509473309427481
-1.7509473309427481
-1.7632562752727399
-1.7447928587777384
-1.7509473309427481
-1.7632562752727399
-1.7755652196027594
-1.7694107474377496
-1.7509473309427481
-1.7447928587777384
-1.7632562752727399
-1.7632562752727399
-1.7755652196027594
-1.7755652196027594
-1.7817196917677414
-1.8124920525927626
-1.8063375804277528
-1.7817196917677414
-1.757101803107758
-1.7694107474377496
-1.7817196917677414
-1.7755652196027594
-1.7755652196027594
-1.7817196917677414
-1.7940286360977609
-1.7940286360977609
-1.7878741639327511
-1.8001831082627426
-1.8001831082627426
-1.8001831082627426
-1.7878741639327511
-1.7755652196027594
-1.7878741639327511
-1.7940286360977609
-1.7940286360977609
-1.8001831082627426
-1.818646524757745
-1.818646524757745
-1.7878741639327511
-1.757101803107758
-1.7509473309427481
-1.757101803107758
-1.7755652196027594
-1.7817196917677414
-1.7447928587777384
-1.7509473309427481
-1.7940286360977609
-1.7878741639327511
-1.7878741639327511
-1.7817196917677414
-1.7940286360977609
-1.8124920525927626
-1.8063375804277528
-1.8001831082627426
-1.7940286360977609
-1.7940286360977609
-1.7940286360977609
-1.7817196917677414
-1.7755652196027594
-1.7817196917677414
-1.7878741639327511
-1.7940286360977609
-1.8063375804277528
-1.8124920525927626
-1.8001831082627426
-1.8001831082627426
-1.8001831082627426
-1.8063375804277528
-1.8124920525927626
-1.8124920525927626
-1.8063375804277528
-1.8124920525927626
-1.8063375804277528
-1.7878741639327511
-1.8001831082627426
-1.8124920525927626
-1.8001831082627426
-1.7755652196027594
-1.757101803107758
-1.7386383866127564
-1.7509473309427481
-1.7694107474377496
-1.7817196917677414
-1.8001831082627426
-1.8124920525927626
-1.8371099412527454
-1.849418885582765
-1.830955469087764
-1.818646524757745
-1.8063375804277528
-1.8124920525927626
-1.8124920525927626
-1.8124920525927626
-1.8124920525927626
-1.8001831082627426
-1.7940286360977609
-1.7940286360977609
-1.7878741639327511
-1.8001831082627426
-1.8001831082627426
-1.7940286360977609
-1.7878741639327511
-1.757101803107758
-1.757101803107758
-1.7386383866127564
-1.683248137127724
-1.5601586938277234
-1.4555326670226965
-1.3693700567126987
-1.3509066402176972
-1.4309147783627132
-1.5663131659927332
-1.6955570814577436
-1.8740367742427766
-2.003280689707787
-2.0278985783677985
-1.9417359680577726
-1.861727829912757
-1.8124920525927626
-1.7632562752727399
-1.7447928587777384
-1.7447928587777384
-1.7386383866127564
-1.7509473309427481
-1.7509473309427481
-1.7632562752727399
-1.7755652196027594
-1.7817196917677414
-1.7755652196027594
-1.7878741639327511
-1.7755652196027594
-1.7878741639327511
-1.7755652196027594
-1.7632562752727399
-1.7755652196027594
-1.7632562752727399
-1.7632562752727399
-1.7632562752727399
-1.7509473309427481
-1.757101803107758
-1.7755652196027594
-1.7694107474377496
-1.757101803107758
-1.7694107474377496
-1.7694107474377496
-1.757101803107758
-1.7509473309427481
-1.7509473309427481
-1.7509473309427481
-1.7632562752727399
-1.7755652196027594
-1.7755652196027594
-1.757101803107758
-1.7447928587777384
-1.7386383866127564
-1.757101803107758
-1.7509473309427481
-1.7509473309427481
-1.7632562752727399
-1.757101803107758
-1.757101803107758
-1.7509473309427481
-1.7509473309427481
-1.7632562752727399
-1.7632562752727399
-1.7386383866127564
-1.689402609292734
-1.689402609292734
-1.6955570814577436
-1.7078660257877356
-1.7017115536227536
-1.7078660257877356
-1.7386383866127564
-1.7509473309427481
-1.7201749701177547
-1.677093664962742
-1.6709391927977324
-1.677093664962742
-1.6647847206327224
-1.6586302484677409
-1.6524757763027313
-1.6709391927977324
-1.6586302484677409
-1.6586302484677409
-1.6401668319727392
-1.6278578876427194
-1.6217034154777374
-1.6217034154777374
-1.6278578876427194
-1.6401668319727392
-1.6401668319727392
-1.6709391927977324
-1.689402609292734
-1.7017115536227536
-1.7263294422827367
-1.757101803107758
-1.8001831082627426
-1.8063375804277528
-1.8124920525927626
-1.8124920525927626
-1.8432644134177558
-1.861727829912757
-1.855573357747775
-1.849418885582765
-1.855573357747775
-1.8801912464077586
-1.892500190737778
-1.8863457185727683
-1.8801912464077586
-1.8801912464077586
-1.8863457185727683
-1.8678823020777668
-1.849418885582765
-1.855573357747775
-1.8740367742427766
-1.8678823020777668
-1.8801912464077586
-1.89865466290276
-1.8801912464077586
-1.855573357747775
-1.849418885582765
-1.855573357747775
-1.849418885582765
-1.818646524757745
-1.8248009969227534
-1.830955469087764
-1.8248009969227534
-1.855573357747775
-1.8740367742427766
-1.8432644134177558
-1.8124920525927626
-1.818646524757745
-1.8124920525927626
-1.818646524757745
-1.8248009969227534
-1.8248009969227534
-1.830955469087764
-1.830955469087764
-1.8371099412527454
-1.830955469087764
-1.818646524757745
-1.818646524757745
-1.8248009969227534
-1.818646524757745
-1.8248009969227534
-1.818646524757745
-1.8248009969227534
-1.8371099412527454
-1.8432644134177558
-1.8248009969227534
-1.8001831082627426
-1.8063375804277528
-1.8248009969227534
-1.8248009969227534
-1.8124920525927626
-1.8248009969227534
-1.8124920525927626
-1.8124920525927626
-1.8124920525927626
-1.8001831082627426
-1.7878741639327511
-1.7878741639327511
-1.7940286360977609
-1.7940286360977609
-1.8001831082627426
-1.8001831082627426
-1.818646524757745
-1.8063375804277528
-1.8063375804277528
-1.8001831082627426
-1.7940286360977609
-1.8063375804277528
-1.818646524757745
-1.8124920525927626
-1.7940286360977609
-1.7694107474377496
-1.7755652196027594
-1.8001831082627426
-1.8001831082627426
-1.7940286360977609
-1.7940286360977609
-1.8001831082627426
-1.8124920525927626
-1.8063375804277528
-1.7878741639327511
-1.8001831082627426
-1.8124920525927626
-1.7940286360977609
-1.7755652196027594
-1.7940286360977609
-1.830955469087764
-1.8063375804277528
-1.7940286360977609
-1.7878741639327511
-1.7817196917677414
-1.7878741639327511
-1.7817196917677414
-1.7940286360977609
-1.818646524757745
-1.8001831082627426
-1.7755652196027594
-1.757101803107758
-1.7817196917677414
-1.7940286360977609
-1.8001831082627426
-1.7878741639327511
-1.8063375804277528
-1.8001831082627426
-1.7940286360977609
-1.7817196917677414
-1.7817196917677414
-1.7878741639327511
-1.7878741639327511
-1.7878741639327511
-1.8001831082627426
-1.8001831082627426
-1.7878741639327511
-1.7755652196027594
-1.8001831082627426
-1.8124920525927626
-1.8001831082627426
-1.7694107474377496
-1.7817196917677414
-1.7940286360977609
-1.7694107474377496
-1.7694107474377496
-1.7755652196027594
-1.7755652196027594
-1.7817196917677414
-1.8001831082627426
-1.8124920525927626
-1.7878741639327511
-1.7878741639327511
-1.7755652196027594
-1.7632562752727399
-1.7632562752727399
-1.757101803107758
-1.7694107474377496
-1.7632562752727399
-1.7632562752727399
-1.7694107474377496
-1.8001831082627426
-1.7940286360977609
-1.7817196917677414
-1.7694107474377496
-1.7755652196027594
-1.8001831082627426
-1.7878741639327511
-1.7878741639327511
-1.8001831082627426
-1.8124920525927626
-1.7878741639327511
-1.7755652196027594
-1.7755652196027594
-1.8001831082627426
-1.7940286360977609
-1.7755652196027594
-1.7817196917677414
-1.7940286360977609
-1.8001831082627426
-1.7817196917677414
-1.7755652196027594
-1.7817196917677414
-1.7386383866127564
-1.6401668319727392
-1.510922916507701
-1.3878334732077002
-1.3509066402176972
-1.4247603061977032
-1.5416952773327224
-1.6647847206327224
-1.830955469087764
-2.003280689707787
-2.083288827852803
-2.0340530505327803
-1.9171180793977614
-1.8248009969227534
-1.7447928587777384
-1.7386383866127564
-1.757101803107758
-1.7632562752727399
-1.7755652196027594
-1.7878741639327511
-1.7817196917677414
-1.7755652196027594
-1.7755652196027594
-1.7755652196027594
-1.7755652196027594
-1.7632562752727399
-1.7632562752727399
-1.7632562752727399
-1.7694107474377496
-1.7447928587777384
-1.7324839144477464
-1.7324839144477464
-1.7509473309427481
-1.7386383866127564
-1.7263294422827367
-1.7263294422827367
-1.7509473309427481
-1.7878741639327511
-1.8001831082627426
-1.7878741639327511
-1.7632562752727399
-1.7694107474377496
-1.7694107474377496
-1.7755652196027594
-1.7694107474377496
-1.7509473309427481
-1.7447928587777384
-1.7386383866127564
-1.7263294422827367
-1.7201749701177547
-1.7263294422827367
-1.7324839144477464
-1.7324839144477464
-1.7755652196027594
-1.7755652196027594
-1.757101803107758
-1.7447928587777384
-1.7447928587777384
-1.7447928587777384
-1.7386383866127564
-1.7447928587777384
-1.7447928587777384
-1.7509473309427481
-1.7201749701177547
-1.683248137127724
-1.683248137127724
-1.7017115536227536
-1.7017115536227536
-1.7078660257877356
-1.7017115536227536
-1.7017115536227536
-1.6955570814577436
-1.6955570814577436
-1.6709391927977324
-1.6524757763027313
-1.6586302484677409
-1.677093664962742
-1.6709391927977324
-1.6524757763027313
-1.6401668319727392
-1.6586302484677409
-1.6647847206327224
-1.6586302484677409
-1.6463213041377216
-1.6463213041377216
-1.6524757763027313
-1.6463213041377216
-1.6463213041377216
-1.6709391927977324
-1.6955570814577436
-1.7324839144477464
-1.7694107474377496
-1.7509473309427481
-1.7755652196027594
-1.8001831082627426
-1.8124920525927626
-1.830955469087764
-1.849418885582765
-1.849418885582765
-1.855573357747775
-1.849418885582765
-1.849418885582765
-1.861727829912757
-1.8678823020777668
-1.8740367742427766
-1.855573357747775
-1.861727829912757
-1.8678823020777668
-1.8863457185727683
-1.8863457185727683
-1.855573357747775
-1.855573357747775
-1.8740367742427766
-1.892500190737778
-1.8740367742427766
-1.849418885582765
-1.830955469087764
-1.830955469087764
-1.8371099412527454
-1.849418885582765
-1.861727829912757
-1.861727829912757
-1.8678823020777668
-1.855573357747775
-1.855573357747775
-1.8432644134177558
-1.8432644134177558
-1.8371099412527454
-1.8371099412527454
-1.830955469087764
-1.8371099412527454
-1.8432644134177558
-1.8371099412527454
-1.849418885582765
-1.855573357747775
-1.855573357747775
-1.8432644134177558
-1.8371099412527454
-1.8432644134177558
-1.849418885582765
-1.861727829912757
-1.861727829912757
-1.849418885582765
-1.830955469087764
-1.830955469087764
-1.8432644134177558
-1.855573357747775
-1.849418885582765
-1.830955469087764
-1.8432644134177558
-1.8432644134177558
-1.8371099412527454
-1.8371099412527454
-1.8371099412527454
-1.8124920525927626
-1.818646524757745
-1.830955469087764
-1.8432644134177558
-1.8371099412527454
-1.855573357747775
-1.861727829912757
-1.8740367742427766
-1.855573357747775
-1.830955469087764
-1.8432644134177558
-1.8371099412527454
-1.8371099412527454
-1.830955469087764
-1.830955469087764
-1.8063375804277528
-1.818646524757745
-1.861727829912757
-1.861727829912757
-1.8432644134177558
-1.8371099412527454
-1.855573357747775
-1.8678823020777668
-1.855573357747775
-1.8124920525927626
-1.8001831082627426
-1.818646524757745
-1.8248009969227534
-1.8371099412527454
-1.849418885582765
-1.855573357747775
-1.8371099412527454
-1.818646524757745
-1.8063375804277528
-1.8001831082627426
-1.8124920525927626
-1.830955469087764
-1.8371099412527454
-1.8371099412527454
-1.818646524757745
-1.8124920525927626
-1.830955469087764
-1.830955469087764
-1.830955469087764
-1.830955469087764
-1.8001831082627426
-1.8063375804277528
-1.8248009969227534
-1.8371099412527454
-1.8248009969227534
-1.8124920525927626
-1.8063375804277528
-1.7940286360977609
-1.7940286360977609
-1.8124920525927626
-1.818646524757745
-1.8371099412527454
-1.8371099412527454
-1.818646524757745
-1.8001831082627426
-1.8063375804277528
-1.8063375804277528
-1.818646524757745
-1.8124920525927626
-1.818646524757745
-1.8248009969227534
-1.818646524757745
-1.818646524757745
-1.818646524757745
-1.8248009969227534
-1.818646524757745
-1.818646524757745
-1.8248009969227534
-1.8248009969227534
-1.8063375804277528
-1.7878741639327511
-1.7940286360977609
-1.8124920525927626
-1.7940286360977609
-1.8063375804277528
-1.8001831082627426
-1.7878741639327511
-1.8001831082627426
-1.8001831082627426
-1.8001831082627426
-1.7817196917677414
-1.7817196917677414
-1.7940286360977609
-1.8063375804277528
-1.8063375804277528
-1.818646524757745
-1.8124920525927626
-1.8124920525927626
-1.8063375804277528
-1.7940286360977609
-1.7755652196027594
-1.7878741639327511
-1.7940286360977609
-1.8001831082627426
-1.8001831082627426
-1.7940286360977609
-1.7878741639327511
-1.8063375804277528
-1.8124920525927626
-1.8063375804277528
-1.7817196917677414
-1.7878741639327511
-1.7940286360977609
-1.8063375804277528
-1.8124920525927626
-1.8124920525927626
-1.7878741639327511
-1.7694107474377496
-1.757101803107758
-1.7755652196027594
-1.7878741639327511
-1.7817196917677414
-1.7632562752727399
-1.7632562752727399
-1.7817196917677414
-1.7940286360977609
-1.7817196917677414
-1.7755652196027594
-1.7940286360977609
-1.8001831082627426
-1.818646524757745
-1.818646524757745
-1.8001831082627426
-1.7940286360977609
-1.7940286360977609
-1.7940286360977609
-1.8001831082627426
-1.8063375804277528
-1.818646524757745
-1.8124920525927626
-1.8001831082627426
-1.7940286360977609
-1.7817196917677414
-1.8063375804277528
-1.7940286360977609
-1.7694107474377496
-1.7755652196027594
-1.7386383866127564
-1.683248137127724
-1.5601586938277234
-1.437069250527695
-1.3570611123826792
-1.4186058340326935
-1.5540042216627135
-1.677093664962742
-1.830955469087764
-2.015589634037779
-2.1325246051727973
-2.1017522443478045
-1.9355814958927628
-1.8371099412527454
-1.7878741639327511
-1.7509473309427481
-1.7755652196027594
-1.7940286360977609
-1.8063375804277528
-1.8063375804277528
-1.7940286360977609
-1.8124920525927626
-1.8124920525927626
-1.7940286360977609
-1.7878741639327511
-1.7817196917677414
-1.7694107474377496
-1.7817196917677414
-1.7878741639327511
-1.7940286360977609
-1.8063375804277528
-1.7817196917677414
-1.7755652196027594
-1.8063375804277528
-1.7940286360977609
-1.7632562752727399
-1.7755652196027594
-1.7755652196027594
-1.7694107474377496
-1.7632562752727399
-1.7755652196027594
-1.7940286360977609
-1.8001831082627426
-1.7817196917677414
-1.7878741639327511
-1.7755652196027594
-1.7632562752727399
-1.7755652196027594
-1.7878741639327511
-1.757101803107758
-1.7386383866127564
-1.7509473309427481
-1.7509473309427481
-1.7447928587777384
-1.7447928587777384
-1.7632562752727399
-1.8124920525927626
-1.8124920525927626
-1.7509473309427481
-1.7447928587777384
-1.7509473309427481
-1.7509473309427481
-1.7755652196027594
-1.7940286360977609
-1.757101803107758
-1.7263294422827367
-1.7140204979527456
-1.7324839144477464
-1.7447928587777384
-1.757101803107758
-1.7263294422827367
-1.7140204979527456
-1.7324839144477464
-1.7324839144477464
-1.7324839144477464
-1.7078660257877356
-1.689402609292734
-1.6955570814577436
-1.7017115536227536
-1.689402609292734
-1.677093664962742
-1.689402609292734
-1.7078660257877356
-1.7263294422827367
-1.7263294422827367
-1.6709391927977324
-1.6524757763027313
-1.6463213041377216
-1.6709391927977324
-1.689402609292734
-1.7201749701177547
-1.7447928587777384
-1.7694107474377496
-1.7940286360977609
-1.818646524757745
-1.8432644134177558
-1.8432644134177558
-1.855573357747775
-1.8801912464077586
-1.89865466290276
-1.89865466290276
-1.9048091350677696
-1.892500190737778
-1.89865466290276
-1.9048091350677696
-1.91096360723278
-1.8863457185727683
-1.8801912464077586
-1.8863457185727683
-1.91096360723278
-1.91096360723278
-1.89865466290276
-1.8678823020777668
-1.89865466290276
-1.91096360723278
-1.8740367742427766
-1.8432644134177558
-1.849418885582765
-1.8801912464077586
-1.91096360723278
-1.8863457185727683
-1.861727829912757
-1.861727829912757
-1.861727829912757
-1.8678823020777668
-1.8740367742427766
-1.8740367742427766
-1.8863457185727683
-1.8740367742427766
-1.861727829912757
-1.855573357747775
