0.040004069072507864
-1.6278578876427194
-1.8801912464077586
-1.6586302484677409
-1.578622110322725
-1.615548943312728
-1.578622110322725
-2.1571424938328088
-2.877215737137895
-1.9417359680577726
-1.7509473309427481
-1.6955570814577436
-1.6524757763027313
-1.6586302484677409
-1.6463213041377216
-1.4863050278477177
-1.683248137127724
-1.7201749701177547
-1.6340123598077294
-1.5540042216627135
-1.5601586938277234
-1.615548943312728
-1.5293863330027024
-1.473996083517698
-1.4493781948577145
-1.1908903639276658
-1.1601180031026725
-1.1601180031026725
-1.104727753617668
-1.0678009206276373
-1.3078253350626845
-1.4186058340326935
-1.6278578876427194
-1.6647847206327224
-1.7140204979527456
-1.6955570814577436
-1.677093664962742
-1.7263294422827367
-1.7017115536227536
-1.6647847206327224
-1.6647847206327224
-1.7263294422827367
-1.7632562752727399
-1.6217034154777374
-1.849418885582765
-1.7447928587777384
-1.6401668319727392
-1.590931054652717
-1.6093944711477182
-1.5663131659927332
-1.3816790010426905
-1.0308740876376343
-1.1970448360926755
-1.504768444342719
-1.0431830319676536
-1.818646524757745
-1.8740367742427766
-1.4432237226927047
-1.590931054652717
-1.510922916507701
-1.578622110322725
-1.5847765824877347
-1.6401668319727392
-1.683248137127724
-1.1908903639276658
-1.5293863330027024
-1.5170773886727107
-1.4863050278477177
-1.4247603061977032
-1.4986139721777092
-1.4493781948577145
-1.4493781948577145
-1.6340123598077294
-1.4186058340326935
-1.3693700567126987
-1.467841611352716
-1.504768444342719
-1.510922916507701
-1.4863050278477177
-1.683248137127724
-1.7140204979527456
-1.6401668319727392
-1.6586302484677409
-1.7386383866127564
-1.578622110322725
-1.510922916507701
-1.7263294422827367
-1.6032399989827366
-1.4309147783627132
-1.4247603061977032
-1.4309147783627132
-1.3016708628976748
-1.25243508557768
-1.2278171969176688
-1.39398794537271
-1.473996083517698
-1.437069250527695
-1.473996083517698
-1.467841611352716
-1.5478497494977315
-1.6586302484677409
-1.590931054652717
-1.6524757763027313
-1.683248137127724
-1.6401668319727392
-1.6093944711477182
-1.615548943312728
-1.5724676381577152
-1.5970855268177266
-1.5663131659927332
-1.677093664962742
-1.6647847206327224
-1.5478497494977315
-1.6093944711477182
-1.7878741639327511
-1.689402609292734
-1.6709391927977324
-1.6586302484677409
-1.7509473309427481
-1.689402609292734
-1.6955570814577436
-1.221662724752659
-0.47697159278756174
-1.4493781948577145
-1.4616871391877062
-2.2802319371328093
-2.772589710332896
-1.9171180793977614
-1.830955469087764
-1.8124920525927626
-1.8063375804277528
-1.6586302484677409
-1.615548943312728
-0.46466264845757
-1.0678009206276373
-1.0678009206276373
-1.5232318608377204
-1.615548943312728
-1.6278578876427194
-1.6709391927977324
-1.578622110322725
-2.766435238167886
-2.711044988682881
-1.9478904402227823
-1.9171180793977614
-1.89865466290276
-1.8863457185727683
-1.8740367742427766
-1.861727829912757
-1.8801912464077586
-1.9232725515627715
-1.8863457185727683
-1.8740367742427766
-1.8801912464077586
-1.849418885582765
-2.077134355687793
-1.9294270237277809
-1.954044912387765
-1.954044912387765
-1.8863457185727683
-1.8432644134177558
-1.892500190737778
-1.89865466290276
-1.8678823020777668
-1.9478904402227823
-1.9417359680577726
-1.830955469087764
-1.7878741639327511
-1.6093944711477182
-1.8801912464077586
-1.8432644134177558
-1.8248009969227534
-1.7324839144477464
-1.818646524757745
-1.8248009969227534
-1.8248009969227534
-1.7817196917677414
-1.7632562752727399
-1.7201749701177547
-1.689402609292734
-1.7017115536227536
-1.7940286360977609
-1.5478497494977315
-1.8063375804277528
-1.7263294422827367
-1.6955570814577436
-1.7447928587777384
-1.7386383866127564
-1.7140204979527456
-1.7509473309427481
-1.683248137127724
-1.7017115536227536
-1.7386383866127564
-1.689402609292734
-1.7017115536227536
-1.6709391927977324
-1.677093664962742
-1.4432237226927047
-1.4863050278477177
-1.6586302484677409
-1.6217034154777374
-1.6647847206327224
-1.683248137127724
-1.6340123598077294
-1.6093944711477182
-1.7078660257877356
-1.6955570814577436
-1.5847765824877347
-1.5540042216627135
-1.5170773886727107
-1.4616871391877062
-1.590931054652717
-1.5355408051677124
-1.5724676381577152
-1.4924595000126994
-1.437069250527695
-1.289361918567683
-1.1724269474326645
-1.0862643371226666
-1.000101726812641
-1.289361918567683
-1.473996083517698
-1.578622110322725
-1.5416952773327224
-1.4986139721777092
-1.849418885582765
-1.8063375804277528
-1.7078660257877356
-1.7817196917677414
-1.7509473309427481
-1.7263294422827367
-1.8124920525927626
-1.8248009969227534
-1.818646524757745
-1.855573357747775
-1.8248009969227534
-1.892500190737778
-1.7817196917677414
-1.6955570814577436
-2.003280689707787
-1.9601993845527748
-1.9294270237277809
-1.8863457185727683
-1.3693700567126987
-0.6554512855725947
-1.6278578876427194
-1.6524757763027313
-1.7386383866127564
-1.7632562752727399
-1.7817196917677414
-1.830955469087764
-2.871061264972913
-2.747971821672884
-2.1817603824928202
-2.015589634037779
-1.9848172732127856
-1.9417359680577726
-1.892500190737778
-1.861727829912757
-1.8801912464077586
-1.855573357747775
-1.8248009969227534
-1.861727829912757
-1.8863457185727683
-1.8863457185727683
-1.7263294422827367
-1.7324839144477464
-1.9417359680577726
-1.7940286360977609
-1.8124920525927626
-1.7817196917677414
-1.7817196917677414
-1.8001831082627426
-1.757101803107758
-1.7940286360977609
-1.7878741639327511
-1.7817196917677414
-1.7324839144477464
-1.7263294422827367
-1.6340123598077294
-1.6401668319727392
-1.7940286360977609
-1.7140204979527456
-1.7263294422827367
-1.677093664962742
-1.7078660257877356
-1.6955570814577436
-1.6586302484677409
-1.6647847206327224
-1.677093664962742
-1.6463213041377216
-1.6524757763027313
-1.6524757763027313
-1.6093944711477182
-1.7509473309427481
-1.6955570814577436
-1.6032399989827366
-1.615548943312728
-1.6032399989827366
-1.6217034154777374
-1.615548943312728
-1.6032399989827366
-1.615548943312728
-1.6032399989827366
-1.6217034154777374
-1.5724676381577152
-1.6524757763027313
-1.6524757763027313
-1.2770529742376913
-1.6586302484677409
-1.6278578876427194
-1.5478497494977315
-1.5601586938277234
-1.6463213041377216
-1.6217034154777374
-1.615548943312728
-1.6217034154777374
-1.6278578876427194
-1.6709391927977324
-1.6709391927977324
-1.6709391927977324
-1.1231911701126696
-0.7354594237176102
-1.5416952773327224
-1.6340123598077294
-1.683248137127724
-1.677093664962742
-1.7509473309427481
-1.7632562752727399
-1.6524757763027313
-1.6647847206327224
-1.6647847206327224
-1.7140204979527456
-1.689402609292734
-1.7324839144477464
-2.212532743317813
-2.544874240227868
-1.8740367742427766
-1.8432644134177558
-1.7940286360977609
-1.7324839144477464
-1.7201749701177547
-1.7447928587777384
-1.8001831082627426
-1.849418885582765
-1.8001831082627426
-1.830955469087764
-1.8248009969227534
-1.830955469087764
-1.7201749701177547
-1.855573357747775
-1.8124920525927626
-1.7878741639327511
-1.7078660257877356
-1.7694107474377496
-1.7755652196027594
-1.8063375804277528
-1.7447928587777384
-1.818646524757745
-1.849418885582765
-1.7386383866127564
-1.7755652196027594
-1.7632562752727399
-1.6463213041377216
-1.892500190737778
-1.2955163907326928
-0.44619923196256844
-1.5540042216627135
-1.757101803107758
-3.0003051804379233
-2.5325652958978484
-1.892500190737778
-1.830955469087764
-1.7694107474377496
-1.7817196917677414
-1.818646524757745
-1.7263294422827367
-1.683248137127724
-1.89865466290276
-1.7878741639327511
-1.7509473309427481
-1.7447928587777384
-1.7263294422827367
-1.6955570814577436
-1.6709391927977324
-1.6340123598077294
-1.683248137127724
-1.7078660257877356
-1.683248137127724
-1.7324839144477464
-1.615548943312728
-1.5601586938277234
-1.7694107474377496
-1.818646524757745
-1.830955469087764
-1.7201749701177547
-1.7201749701177547
-1.7878741639327511
-1.7817196917677414
-1.7509473309427481
-1.683248137127724
-1.7447928587777384
-1.683248137127724
-1.7201749701177547
-1.7201749701177547
-1.683248137127724
-1.757101803107758
-1.7509473309427481
-1.7324839144477464
-1.8063375804277528
-1.7509473309427481
-1.7632562752727399
-1.7447928587777384
-1.7263294422827367
-1.7878741639327511
-1.7509473309427481
-1.7263294422827367
-1.7940286360977609
-1.7078660257877356
-1.7140204979527456
-1.8432644134177558
-1.7755652196027594
-1.7755652196027594
-1.7755652196027594
-1.7878741639327511
-1.8432644134177558
-1.8063375804277528
-1.7263294422827367
-1.818646524757745
-1.7940286360977609
-1.4124513618677115
-1.7140204979527456
-1.6524757763027313
-1.7078660257877356
-1.8001831082627426
-1.7447928587777384
-1.7263294422827367
-1.689402609292734
-1.689402609292734
-1.7817196917677414
-1.7263294422827367
-1.6709391927977324
-1.7017115536227536
-1.7140204979527456
-1.7386383866127564
-1.7324839144477464
-1.6401668319727392
-1.1662724752676545
-0.427735815467567
-1.7386383866127564
-1.6463213041377216
-1.6647847206327224
-1.6586302484677409
-1.7078660257877356
-1.6955570814577436
-2.298695353627811
-3.049540957757918
-2.0463619948628
-1.8740367742427766
-1.8432644134177558
-1.7324839144477464
-1.7817196917677414
-1.861727829912757
-1.7386383866127564
-1.7940286360977609
-1.7078660257877356
-1.7017115536227536
-1.7324839144477464
-1.7386383866127564
-1.683248137127724
-1.6401668319727392
-1.677093664962742
-1.8001831082627426
-1.757101803107758
-1.6093944711477182
-1.7509473309427481
-1.7447928587777384
-1.7263294422827367
-1.7386383866127564
-1.7386383866127564
-1.7817196917677414
-1.830955469087764
-1.855573357747775
-1.8001831082627426
-1.7940286360977609
-1.8063375804277528
-1.8248009969227534
-1.3016708628976748
-0.01538618041249662
-1.8863457185727683
-1.8063375804277528
-1.7509473309427481
-1.7632562752727399
-1.7694107474377496
-2.070979883522784
-3.191093817552976
-2.2802319371328093
-1.8678823020777668
-1.8801912464077586
-1.861727829912757
-1.8063375804277528
-1.8124920525927626
-1.7017115536227536
-1.8801912464077586
-1.849418885582765
-1.8432644134177558
-1.855573357747775
-1.861727829912757
-1.7694107474377496
-1.7755652196027594
-1.7324839144477464
-1.818646524757745
-1.8001831082627426
-1.7878741639327511
-1.7940286360977609
-1.7878741639327511
-1.6647847206327224
-1.9355814958927628
-1.7447928587777384
-1.7078660257877356
-1.7324839144477464
-1.7755652196027594
-1.7447928587777384
-1.7324839144477464
-1.757101803107758
-1.7201749701177547
-1.7447928587777384
-1.8371099412527454
-1.7878741639327511
-1.7632562752727399
-1.6524757763027313
-1.9971262175427773
-1.8801912464077586
-1.7940286360977609
-1.7755652196027594
-1.830955469087764
-1.757101803107758
-1.8001831082627426
-1.8063375804277528
-1.8124920525927626
-1.8371099412527454
-1.8063375804277528
-1.8432644134177558
-1.7694107474377496
-1.6463213041377216
-1.89865466290276
-1.8248009969227534
-1.7878741639327511
-1.7263294422827367
-1.7017115536227536
-1.9232725515627715
-1.892500190737778
-1.510922916507701
-1.8248009969227534
-1.8371099412527454
-1.830955469087764
-1.8371099412527454
-1.689402609292734
-1.757101803107758
-2.009435161872797
-1.818646524757745
-1.7755652196027594
-1.8124920525927626
-1.8001831082627426
-1.7694107474377496
-1.7694107474377496
-1.8863457185727683
-1.8248009969227534
-1.8001831082627426
-1.8001831082627426
-1.7940286360977609
-1.7509473309427481
-1.7078660257877356
-1.8740367742427766
-1.8678823020777668
-1.7755652196027594
-1.7940286360977609
-1.7817196917677414
-1.7386383866127564
-1.7755652196027594
-1.7878741639327511
-1.6955570814577436
-1.7940286360977609
-1.8740367742427766
-1.8248009969227534
-1.590931054652717
-1.6586302484677409
-1.9786628010477763
-1.757101803107758
-1.7817196917677414
-1.8371099412527454
-1.8124920525927626
-1.757101803107758
-1.8432644134177558
-1.892500190737778
-1.849418885582765
-1.8001831082627426
-1.818646524757745
-1.8740367742427766
-1.7140204979527456
-1.7017115536227536
-1.8863457185727683
-1.830955469087764
-1.8124920525927626
-1.7447928587777384
-1.7878741639327511
-1.8248009969227534
-1.8371099412527454
-1.8248009969227534
-1.3385976958876775
-0.5815976195925888
-1.510922916507701
-1.9971262175427773
-2.981841763942921
-2.1448335495027893
-1.89865466290276
-1.7324839144477464
-1.7386383866127564
-1.7509473309427481
-1.7509473309427481
-1.7324839144477464
-1.8248009969227534
-1.757101803107758
-1.7509473309427481
-1.7386383866127564
-1.7201749701177547
-1.7632562752727399
-1.6709391927977324
-1.6340123598077294
-1.861727829912757
-1.7386383866127564
-1.7386383866127564
-1.7386383866127564
-1.7386383866127564
-1.7386383866127564
-1.7386383866127564
-1.7694107474377496
-1.8001831082627426
-1.7263294422827367
-1.7632562752727399
-1.7632562752727399
-1.5847765824877347
-1.4924595000126994
-1.6524757763027313
-1.7140204979527456
-1.7817196917677414
-1.7078660257877356
-1.7140204979527456
-1.7386383866127564
-1.7940286360977609
-1.7694107474377496
-1.7263294422827367
-1.7140204979527456
-1.7447928587777384
-1.7201749701177547
-1.8063375804277528
-2.0586709391927913
-1.7940286360977609
-1.7755652196027594
-1.7878741639327511
-1.8001831082627426
-1.7694107474377496
-1.7263294422827367
-1.7755652196027594
-1.7694107474377496
-1.7755652196027594
-1.7817196917677414
-1.0247196154726523
-1.9171180793977614
-1.990971745377768
-1.91096360723278
-1.855573357747775
-1.8801912464077586
-1.830955469087764
-1.437069250527695
-1.7755652196027594
-1.8801912464077586
-1.8124920525927626
-1.8063375804277528
-1.8063375804277528
-1.849418885582765
-1.830955469087764
-1.7878741639327511
-1.683248137127724
-1.91096360723278
-1.8678823020777668
-1.861727829912757
-1.7694107474377496
-1.7878741639327511
-1.7878741639327511
-1.757101803107758
-1.7447928587777384
-1.8371099412527454
-1.7324839144477464
-1.7447928587777384
-1.8248009969227534
-1.7263294422827367
-1.6709391927977324
-1.818646524757745
-1.7263294422827367
-1.7817196917677414
-1.7447928587777384
-1.7140204979527456
-1.677093664962742
-1.6340123598077294
-1.7017115536227536
-1.7386383866127564
-1.7263294422827367
-1.830955469087764
-1.8124920525927626
-1.7263294422827367
-1.6463213041377216
-1.990971745377768
-1.861727829912757
-1.8432644134177558
-1.892500190737778
-1.8124920525927626
-1.818646524757745
-1.855573357747775
-1.8124920525927626
-1.7817196917677414
-1.7878741639327511
-1.221662724752659
-2.003280689707787
-2.175605910327811
-1.7324839144477464
-1.9232725515627715
-1.9171180793977614
-1.8740367742427766
-1.8432644134177558
-1.8063375804277528
-1.4062968897027015
-0.5692886752625692
-1.5416952773327224
-1.7078660257877356
-1.7940286360977609
-1.7878741639327511
-1.7694107474377496
-2.495638462907845
-2.766435238167886
-2.064825411357801
-1.89865466290276
-1.855573357747775
-1.7878741639327511
-1.8001831082627426
-1.855573357747775
-1.861727829912757
-1.9048091350677696
-1.89865466290276
-1.8678823020777668
-1.8432644134177558
-1.849418885582765
-1.7755652196027594
-1.7078660257877356
-1.8371099412527454
-1.8248009969227534
-1.7201749701177547
-1.7140204979527456
-1.7878741639327511
-1.8001831082627426
-1.7632562752727399
-1.5416952773327224
-0.12001220721752358
-1.615548943312728
-1.400142417537692
-1.7632562752727399
-1.6401668319727392
-1.683248137127724
-1.8678823020777668
-1.972508328882766
-3.172630401057975
-2.3233132422878215
-1.8678823020777668
-1.8678823020777668
-1.892500190737778
-1.8001831082627426
-1.7940286360977609
-1.8678823020777668
-1.861727829912757
-1.8124920525927626
-1.757101803107758
-1.8124920525927626
-1.9294270237277809
-1.8248009969227534
-1.8063375804277528
-1.849418885582765
-1.8863457185727683
-1.8124920525927626
-1.8371099412527454
-1.849418885582765
-1.855573357747775
-1.849418885582765
-1.7632562752727399
-1.7940286360977609
-1.89865466290276
-1.892500190737778
-1.9171180793977614
-1.9232725515627715
-1.9171180793977614
-1.861727829912757
-1.8432644134177558
-1.830955469087764
-1.954044912387765
-1.9232725515627715
-1.849418885582765
-1.9048091350677696
-1.91096360723278
-1.9171180793977614
-1.8248009969227534
-1.8740367742427766
-1.9786628010477763
-1.9048091350677696
-1.89865466290276
-1.89865466290276
-1.9417359680577726
-1.861727829912757
-1.8801912464077586
-1.8371099412527454
-1.8863457185727683
-1.8740367742427766
-1.849418885582765
-1.8432644134177558
-1.7447928587777384
-1.8432644134177558
-1.91096360723278
-2.083288827852803
-1.5663131659927332
-1.8740367742427766
-1.9171180793977614
-1.861727829912757
-1.861727829912757
-1.8740367742427766
-1.892500190737778
-1.7878741639327511
-1.8124920525927626
-1.855573357747775
-1.7140204979527456
-1.9848172732127856
-1.892500190737778
-1.8740367742427766
-1.892500190737778
-1.9417359680577726
-1.8124920525927626
-1.8248009969227534
-1.7817196917677414
-1.7878741639327511
-1.7940286360977609
-1.7878741639327511
-1.7447928587777384
-1.8063375804277528
-1.578622110322725
-1.7817196917677414
-1.7755652196027594
-1.2339716690826785
-0.10770326288750408
-1.7755652196027594
-2.600264489712873
-2.7910531268278973
-1.966353856717784
-1.818646524757745
-1.7755652196027594
-1.7817196917677414
-1.7817196917677414
-1.7386383866127564
-1.5847765824877347
-1.9232725515627715
-1.7324839144477464
-1.7017115536227536
-1.6647847206327224
-1.7140204979527456
-1.757101803107758
-1.7386383866127564
-1.7447928587777384
-1.8371099412527454
-1.7755652196027594
-1.7817196917677414
-1.818646524757745
-1.7509473309427481
-1.578622110322725
-1.7324839144477464
-1.8248009969227534
-1.855573357747775
-1.8124920525927626
-1.818646524757745
-1.861727829912757
-1.8740367742427766
-1.8678823020777668
-1.830955469087764
-1.8063375804277528
-1.8124920525927626
-1.855573357747775
-1.8248009969227534
-1.818646524757745
-2.0278985783677985
-1.855573357747775
-1.8001831082627426
-1.830955469087764
-1.8124920525927626
-1.8248009969227534
-1.8124920525927626
-1.818646524757745
-1.849418885582765
-1.8248009969227534
-1.7940286360977609
-1.855573357747775
-1.7447928587777384
-1.683248137127724
-1.9048091350677696
-1.849418885582765
-1.8740367742427766
-1.849418885582765
-1.8432644134177558
-1.8801912464077586
-1.8740367742427766
-1.91096360723278
-1.8248009969227534
-1.9355814958927628
-1.9294270237277809
-1.504768444342719
-1.7324839144477464
-1.7817196917677414
-2.015589634037779
-1.8678823020777668
-1.849418885582765
-1.830955469087764
-1.7940286360977609
-1.8063375804277528
-1.8678823020777668
-1.9048091350677696
-1.8432644134177558
-1.818646524757745
-1.8432644134177558
-1.8863457185727683
-1.8001831082627426
-1.7694107474377496
-1.9171180793977614
-1.9232725515627715
-1.8801912464077586
-1.8678823020777668
-1.8248009969227534
-1.855573357747775
-1.8678823020777668
-1.8863457185727683
-1.9232725515627715
-1.830955469087764
-1.8124920525927626
-1.8678823020777668
-1.8124920525927626
-1.7386383866127564
-1.861727829912757
-1.849418885582765
-1.972508328882766
-1.89865466290276
-1.9048091350677696
-1.9478904402227823
-1.91096360723278
-1.8432644134177558
-1.861727829912757
-1.855573357747775
-1.89865466290276
-1.892500190737778
-1.8124920525927626
-2.003280689707787
-2.003280689707787
-1.8801912464077586
-1.892500190737778
-1.818646524757745
-1.954044912387765
-1.8740367742427766
-1.9048091350677696
-1.954044912387765
-1.8801912464077586
-1.849418885582765
-1.8432644134177558
-1.8371099412527454
-1.2708985020726815
-0.3538821494875609
-1.590931054652717
-1.6463213041377216
-1.7263294422827367
-1.7509473309427481
-1.8678823020777668
-2.9879962361079313
-2.581801073217871
-2.003280689707787
-1.8740367742427766
-1.8248009969227534
-1.849418885582765
-1.8740367742427766
-1.830955469087764
-1.89865466290276
-1.861727829912757
-1.849418885582765
-1.8371099412527454
-1.8678823020777668
-1.8863457185727683
-1.7940286360977609
-1.8124920525927626
-1.8740367742427766
-1.8248009969227534
-1.818646524757745
-1.830955469087764
-1.8740367742427766
-1.8740367742427766
-2.089443300017785
-1.8863457185727683
-1.8863457185727683
-1.8001831082627426
-1.818646524757745
-1.7878741639327511
-1.7940286360977609
-1.8248009969227534
-1.8001831082627426
-1.7017115536227536
-1.7632562752727399
-1.7817196917677414
-1.7694107474377496
-1.5724676381577152
-1.7940286360977609
-1.8432644134177558
-1.8001831082627426
-1.7755652196027594
-1.9417359680577726
-1.8063375804277528
-1.7878741639327511
-1.8371099412527454
-1.8740367742427766
-1.8432644134177558
-1.7940286360977609
-1.830955469087764
-1.8678823020777668
-1.6955570814577436
-2.009435161872797
-1.892500190737778
-1.8432644134177558
-1.849418885582765
-1.8063375804277528
-1.8001831082627426
-1.9848172732127856
-1.9232725515627715
-1.5170773886727107
-1.9171180793977614
-1.89865466290276
-1.861727829912757
-1.8063375804277528
-1.7140204979527456
-2.009435161872797
-1.8740367742427766
-1.8863457185727683
-1.8863457185727683
-1.89865466290276
-1.8863457185727683
-1.9171180793977614
-1.9294270237277809
-1.8740367742427766
-1.861727829912757
-1.8001831082627426
-1.8371099412527454
-1.855573357747775
-1.7447928587777384
-1.972508328882766
-1.9478904402227823
-1.9048091350677696
-1.855573357747775
-1.855573357747775
-1.8863457185727683
-1.830955469087764
-1.849418885582765
-1.8248009969227534
-1.8678823020777668
-1.849418885582765
-1.8863457185727683
-1.8124920525927626
-1.677093664962742
-1.9048091350677696
-1.8063375804277528
-0.9877927824826491
-1.0801098649576568
-1.3139798072276945
-1.6647847206327224
-1.757101803107758
-1.757101803107758
-1.7632562752727399
-1.830955469087764
-2.858752320642893
-2.7910531268278973
-1.9171180793977614
-1.7201749701177547
-1.9355814958927628
-1.8740367742427766
-1.855573357747775
-1.8248009969227534
-1.8863457185727683
-1.89865466290276
-1.892500190737778
-1.8863457185727683
-2.0340530505327803
-1.3078253350626845
-0.2369471783525424
-2.0955977721827947
-3.0618499020879373
-2.434093741257831
-2.1017522443478045
-1.8863457185727683
-1.8678823020777668
-1.849418885582765
-1.8248009969227534
-1.8371099412527454
-1.830955469087764
-1.7324839144477464
-1.757101803107758
-1.8001831082627426
-1.8124920525927626
-1.861727829912757
-1.7694107474377496
-1.6955570814577436
-1.9786628010477763
-1.8801912464077586
-1.855573357747775
-1.855573357747775
-1.8248009969227534
-1.8678823020777668
-1.8124920525927626
-1.7878741639327511
-1.9355814958927628
-1.818646524757745
-1.8371099412527454
-1.861727829912757
-1.6955570814577436
-1.6032399989827366
-1.8371099412527454
-1.7878741639327511
-1.8371099412527454
-1.7694107474377496
-1.7201749701177547
-1.7940286360977609
-1.7878741639327511
-1.7817196917677414
-1.7694107474377496
-1.8063375804277528
-1.9048091350677696
-1.818646524757745
-1.7263294422827367
-1.8124920525927626
-1.849418885582765
-1.7940286360977609
-1.7940286360977609
-1.861727829912757
-1.855573357747775
-1.830955469087764
-1.8001831082627426
-1.818646524757745
-1.8124920525927626
-1.7940286360977609
-1.7447928587777384
-1.7694107474377496
-1.5232318608377204
-1.215508252587677
-1.689402609292734
-1.7940286360977609
-1.91096360723278
-1.8432644134177558
-1.4555326670226965
-1.861727829912757
-1.8432644134177558
-1.830955469087764
-1.8124920525927626
-1.8124920525927626
-1.8124920525927626
-1.8001831082627426
-2.003280689707787
-2.4156303247628297
-1.9232725515627715
-1.818646524757745
-1.8678823020777668
-1.849418885582765
-1.8863457185727683
-1.9048091350677696
-1.7940286360977609
-1.89865466290276
-1.8371099412527454
-1.7940286360977609
-1.849418885582765
-1.757101803107758
-1.5355408051677124
-1.7940286360977609
-1.7940286360977609
-1.818646524757745
-1.7632562752727399
-1.7694107474377496
-1.7263294422827367
-1.7509473309427481
-1.7263294422827367
-1.7017115536227536
-1.7201749701177547
-1.7817196917677414
-1.757101803107758
-1.7324839144477464
-1.7201749701177547
-2.077134355687793
-1.892500190737778
-1.8001831082627426
-1.7755652196027594
-1.7817196917677414
-1.7878741639327511
-1.8124920525927626
-1.7817196917677414
-1.7632562752727399
-1.8001831082627426
-1.8001831082627426
-1.7755652196027594
-1.7447928587777384
-1.6278578876427194
-1.8740367742427766
-1.7940286360977609
-1.7017115536227536
-1.6586302484677409
-1.6709391927977324
-1.7509473309427481
-1.2585895577426898
-0.4831260649525715
-1.510922916507701
-1.5416952773327224
-1.5847765824877347
-1.6340123598077294
-2.003280689707787
-2.858752320642893
-2.200223798987821
-1.8063375804277528
-1.7755652196027594
-1.7940286360977609
-1.7694107474377496
-1.757101803107758
-1.7140204979527456
-1.7940286360977609
-1.7694107474377496
-1.7017115536227536
-1.7263294422827367
-1.7940286360977609
-1.7140204979527456
-1.683248137127724
-1.8063375804277528
-1.7694107474377496
-1.7632562752727399
-1.757101803107758
-1.7632562752727399
-1.757101803107758
-1.7263294422827367
-1.6709391927977324
-1.6217034154777374
-1.7447928587777384
-1.7632562752727399
-1.7386383866127564
-1.6401668319727392
-1.578622110322725
-1.7201749701177547
-1.6586302484677409
-1.6647847206327224
-1.6586302484677409
-1.6647847206327224
-1.6032399989827366
-1.6586302484677409
-1.683248137127724
-1.6401668319727392
-1.6217034154777374
-1.6217034154777374
-1.6586302484677409
-1.5416952773327224
-1.3078253350626845
-1.5416952773327224
-1.6709391927977324
-1.966353856717784
-3.0126141247679152
-2.723353933012873
-1.9417359680577726
-1.7940286360977609
-1.7201749701177547
-1.7201749701177547
-1.8371099412527454
-1.855573357747775
-1.2031993082576575
-1.8063375804277528
-2.5694921288878514
-1.8001831082627426
-2.009435161872797
-2.1017522443478045
-1.8371099412527454
-1.7509473309427481
-1.7017115536227536
-1.7201749701177547
-1.7078660257877356
-1.689402609292734
-1.689402609292734
-1.7263294422827367
-1.7694107474377496
-1.6955570814577436
-1.7878741639327511
-1.954044912387765
-1.8124920525927626
-1.8124920525927626
-1.8124920525927626
-1.7940286360977609
-1.757101803107758
-1.757101803107758
-1.8432644134177558
-1.830955469087764
-1.7201749701177547
-1.7509473309427481
-1.7509473309427481
-1.6647847206327224
-1.6463213041377216
-1.818646524757745
-1.8124920525927626
-1.8248009969227534
-1.818646524757745
-1.7755652196027594
-1.818646524757745
-1.8001831082627426
-1.7632562752727399
-1.8001831082627426
-1.7878741639327511
-1.8124920525927626
-1.7940286360977609
-1.6093944711477182
-1.5355408051677124
-1.7324839144477464
-1.7694107474377496
-1.8124920525927626
-1.8371099412527454
-1.8801912464077586
-1.849418885582765
-1.8063375804277528
-1.849418885582765
-1.8678823020777668
-1.8248009969227534
-0.6739147020675963
-1.7201749701177547
-2.815671015487909
-2.347931130947833
-2.003280689707787
-1.8371099412527454
-1.510922916507701
-0.37850003814754446
-1.7263294422827367
-3.178784873222984
-2.2063782711528033
-1.8863457185727683
-1.7940286360977609
-1.8248009969227534
-1.8740367742427766
-1.855573357747775
-1.861727829912757
-1.6524757763027313
-1.7263294422827367
-1.7694107474377496
-1.7386383866127564
-1.7694107474377496
-1.7755652196027594
-1.7755652196027594
-1.757101803107758
-1.8124920525927626
-1.818646524757745
-1.830955469087764
-1.7878741639327511
-1.757101803107758
-1.6586302484677409
-1.91096360723278
-1.7694107474377496
-1.7755652196027594
-1.8001831082627426
-1.8124920525927626
-1.8432644134177558
-1.7755652196027594
-1.7263294422827367
-1.7263294422827367
-1.7755652196027594
-1.7386383866127564
-1.7447928587777384
-1.7940286360977609
-1.7509473309427481
-1.9171180793977614
-1.8740367742427766
-1.7755652196027594
-1.7509473309427481
-1.7694107474377496
-1.7940286360977609
-1.8063375804277528
-1.818646524757745
-1.7817196917677414
-1.8001831082627426
-1.4062968897027015
-0.37850003814754446
-1.4493781948577145
-1.3385976958876775
-1.855573357747775
-1.7878741639327511
-1.830955469087764
-1.7694107474377496
-2.409475852597848
-3.394191398997992
-2.4217847969278394
-2.04020752269779
-1.8371099412527454
-1.8248009969227534
-1.830955469087764
-1.7324839144477464
-1.6647847206327224
-1.7201749701177547
-1.9601993845527748
-1.8248009969227534
-1.7878741639327511
-1.8063375804277528
-1.830955469087764
-1.8001831082627426
-1.7509473309427481
-1.7940286360977609
-1.7817196917677414
-1.7755652196027594
-1.8001831082627426
-1.7755652196027594
-1.7386383866127564
-1.6586302484677409
-1.8863457185727683
-1.830955469087764
-1.818646524757745
-1.818646524757745
-1.7817196917677414
-1.7447928587777384
-1.7694107474377496
-1.8001831082627426
-1.6709391927977324
-1.6463213041377216
-1.6955570814577436
-1.6955570814577436
-1.6217034154777374
-1.683248137127724
-1.757101803107758
-1.7140204979527456
-1.7509473309427481
-1.689402609292734
-1.677093664962742
-1.6647847206327224
-1.6401668319727392
-1.6278578876427194
-1.6524757763027313
-1.7324839144477464
-1.6093944711477182
-1.5663131659927332
-1.5847765824877347
-1.689402609292734
-1.8248009969227534
-1.6709391927977324
-1.6524757763027313
-1.5601586938277234
-1.215508252587677
-1.7324839144477464
-1.9171180793977614
-1.7324839144477464
-1.689402609292734
-1.689402609292734
-1.6709391927977324
-1.6709391927977324
-1.6524757763027313
-1.0862643371226666
-0.32310978866254003
-1.6217034154777374
-1.5663131659927332
-1.5847765824877347
-1.6463213041377216
-2.667963683527869
-2.8464433763129016
-1.8740367742427766
-1.7632562752727399
-1.7509473309427481
-1.7878741639327511
-1.8248009969227534
-1.6955570814577436
-1.7755652196027594
-1.91096360723278
-1.7817196917677414
-1.7817196917677414
-1.7940286360977609
-1.8063375804277528
-1.8001831082627426
-1.757101803107758
-1.7201749701177547
-1.7817196917677414
-1.7263294422827367
-1.7817196917677414
-1.8248009969227534
-1.6463213041377216
-1.7324839144477464
-1.8432644134177558
-1.861727829912757
-1.849418885582765
-1.8001831082627426
-1.8371099412527454
-1.8124920525927626
-1.8124920525927626
-1.8371099412527454
-1.8678823020777668
-1.8801912464077586
-1.8124920525927626
-1.8001831082627426
-1.6709391927977324
-1.830955469087764
-1.8248009969227534
-1.861727829912757
-1.8063375804277528
-1.892500190737778
-1.8740367742427766
-1.830955469087764
-1.8124920525927626
-1.8001831082627426
-1.7755652196027594
-1.7878741639327511
-1.7878741639327511
-1.849418885582765
-1.5847765824877347
-1.7694107474377496
-1.8801912464077586
-1.8063375804277528
-1.7878741639327511
-1.849418885582765
-1.8063375804277528
-1.849418885582765
-1.9171180793977614
-1.855573357747775
-1.473996083517698
-1.8371099412527454
-1.8001831082627426
-1.7201749701177547
-1.6463213041377216
-1.990971745377768
-1.818646524757745
-1.7940286360977609
-1.7940286360977609
-1.830955469087764
-1.8863457185727683
-1.8678823020777668
-1.7509473309427481
-1.8248009969227534
-1.849418885582765
-1.8124920525927626
-1.8063375804277528
-1.7447928587777384
-1.6955570814577436
-1.89865466290276
-1.855573357747775
-1.8740367742427766
-1.830955469087764
-1.855573357747775
-1.861727829912757
-1.7940286360977609
-1.7878741639327511
-1.8801912464077586
-1.855573357747775
-1.7940286360977609
-1.849418885582765
-1.849418885582765
-1.7324839144477464
-1.954044912387765
-1.892500190737778
-1.8124920525927626
-1.8863457185727683
-1.861727829912757
-1.818646524757745
-1.8063375804277528
-1.8432644134177558
-1.8863457185727683
-1.830955469087764
-1.7817196917677414
-1.8863457185727683
-1.7817196917677414
-1.7324839144477464
-1.892500190737778
-1.849418885582765
-1.8678823020777668
-1.849418885582765
-1.8371099412527454
-1.8801912464077586
-1.8863457185727683
-1.8678823020777668
-1.855573357747775
-1.861727829912757
-1.3570611123826792
-0.26771953917753555
-2.944914930952919
-2.6925815721878803
-2.138679077337807
-1.8678823020777668
-1.8678823020777668
-1.91096360723278
-1.8371099412527454
-1.8124920525927626
-1.855573357747775
-1.9601993845527748
-1.9848172732127856
-1.966353856717784
-1.9971262175427773
-2.015589634037779
-2.0217441062027888
-2.052516467027782
-2.1817603824928202
-1.9848172732127856
-1.8248009969227534
-1.8001831082627426
-1.8432644134177558
-1.830955469087764
-1.7017115536227536
-1.7878741639327511
-1.7817196917677414
-1.7140204979527456
-1.7140204979527456
-1.7509473309427481
-1.677093664962742
-1.7447928587777384
-1.954044912387765
-1.757101803107758
-1.7940286360977609
-1.8001831082627426
-1.7263294422827367
-1.7447928587777384
-1.7447928587777384
-1.8248009969227534
-1.7694107474377496
-1.689402609292734
-1.8371099412527454
-1.8248009969227534
-1.6524757763027313
-1.6278578876427194
-1.7940286360977609
-1.7201749701177547
-1.7447928587777384
-1.683248137127724
-1.757101803107758
-1.8001831082627426
-1.7878741639327511
-1.7755652196027594
-1.7817196917677414
-1.8371099412527454
-1.818646524757745
-1.8124920525927626
-1.8063375804277528
-1.7755652196027594
-1.830955469087764
-1.7878741639327511
-1.7940286360977609
-1.9786628010477763
-1.861727829912757
-1.39398794537271
-1.990971745377768
-1.8432644134177558
-1.8248009969227534
-1.7632562752727399
-1.7632562752727399
-1.7817196917677414
-1.6401668319727392
-1.5540042216627135
-1.7878741639327511
-1.8063375804277528
-1.757101803107758
-1.8124920525927626
-1.830955469087764
-1.7817196917677414
-1.8001831082627426
-1.8248009969227534
-1.8063375804277528
-1.8124920525927626
-1.818646524757745
-1.849418885582765
-1.818646524757745
-2.064825411357801
-1.8001831082627426
-1.8371099412527454
-1.7447928587777384
-1.7755652196027594
-1.8371099412527454
-1.830955469087764
-1.8432644134177558
-1.7755652196027594
-1.7386383866127564
-1.8678823020777668
-1.8801912464077586
-1.830955469087764
-1.6217034154777374
-1.8678823020777668
-1.7386383866127564
-1.7140204979527456
-1.6955570814577436
-1.8248009969227534
-1.8124920525927626
-1.8124920525927626
-1.8063375804277528
-1.7940286360977609
-1.7940286360977609
-1.7447928587777384
-1.7386383866127564
-1.818646524757745
-1.5724676381577152
-1.8678823020777668
-1.8248009969227534
-1.7509473309427481
-1.8001831082627426
-1.7078660257877356
-0.47697159278756174
-1.4124513618677115
-1.1970448360926755
-1.818646524757745
-2.194069326822812
-1.7940286360977609
-1.849418885582765
-2.003280689707787
-3.043386485592936
-2.5941100175478624
-1.9971262175427773
-1.91096360723278
-1.8801912464077586
-1.830955469087764
-1.8063375804277528
-1.861727829912757
-1.861727829912757
-1.8371099412527454
-1.8248009969227534
-1.7817196917677414
-1.7755652196027594
-1.757101803107758
-1.7140204979527456
-1.9294270237277809
-1.8740367742427766
-1.855573357747775
-1.849418885582765
-1.8248009969227534
-1.7878741639327511
-1.818646524757745
-1.830955469087764
-1.8063375804277528
-1.8863457185727683
-1.8063375804277528
-1.818646524757745
-1.818646524757745
-1.6647847206327224
-1.818646524757745
-1.818646524757745
-1.7940286360977609
-1.8740367742427766
-1.818646524757745
-1.7940286360977609
-1.7940286360977609
-1.7940286360977609
-1.7940286360977609
-1.7694107474377496
-1.8124920525927626
-1.892500190737778
-1.7632562752727399
-1.7017115536227536
-1.9601993845527748
-1.8678823020777668
-1.818646524757745
-1.7878741639327511
-1.7940286360977609
-1.8371099412527454
-1.830955469087764
-1.8248009969227534
-1.818646524757745
-1.849418885582765
-1.818646524757745
-1.7201749701177547
-1.7078660257877356
-1.7509473309427481
-2.0217441062027888
-1.9048091350677696
-1.4986139721777092
-1.855573357747775
-1.8124920525927626
-1.8001831082627426
-1.849418885582765
-1.8063375804277528
-1.7817196917677414
-1.7878741639327511
-1.7755652196027594
-1.7694107474377496
-1.6401668319727392
-1.6401668319727392
-1.8678823020777668
-1.757101803107758
-1.830955469087764
-1.8063375804277528
-1.8001831082627426
-1.8063375804277528
-1.757101803107758
-1.757101803107758
-1.8124920525927626
-1.757101803107758
-1.8371099412527454
-1.830955469087764
-1.7078660257877356
-1.7078660257877356
-1.830955469087764
-1.7940286360977609
-1.8124920525927626
-1.7632562752727399
-1.7755652196027594
-1.8063375804277528
-1.7878741639327511
-1.8001831082627426
-1.8063375804277528
-1.7386383866127564
-1.7878741639327511
-1.8124920525927626
-1.7324839144477464
-1.830955469087764
-1.861727829912757
-1.7940286360977609
-1.7817196917677414
-1.861727829912757
-1.855573357747775
-1.7878741639327511
-1.818646524757745
-1.7817196917677414
-1.7386383866127564
-1.7386383866127564
-1.7447928587777384
-1.7447928587777384
-1.689402609292734
-1.7632562752727399
-1.7694107474377496
-1.7694107474377496
-1.7694107474377496
-1.2585895577426898
-0.7354594237176102
-2.907988097962916
-2.187914854657802
-1.8124920525927626
-1.8371099412527454
-1.8124920525927626
-1.8124920525927626
-1.8678823020777668
-1.6524757763027313
-1.7509473309427481
-1.8124920525927626
-1.8001831082627426
-1.855573357747775
-1.7694107474377496
-1.8248009969227534
-1.8432644134177558
-1.757101803107758
-1.8124920525927626
-1.7694107474377496
-1.8001831082627426
-1.8248009969227534
-1.8371099412527454
-1.7324839144477464
-2.0278985783677985
-1.8801912464077586
-1.9171180793977614
-1.8432644134177558
-1.8063375804277528
-1.8001831082627426
-1.8063375804277528
-1.8063375804277528
-1.8063375804277528
-1.8124920525927626
-1.830955469087764
-1.818646524757745
-1.966353856717784
-1.6401668319727392
-1.8371099412527454
-1.8740367742427766
-1.855573357747775
-1.7694107474377496
-1.8678823020777668
-1.8248009969227534
-1.7878741639327511
-1.7755652196027594
-1.8063375804277528
-1.8124920525927626
-1.7324839144477464
-1.8124920525927626
-1.818646524757745
-1.6093944711477182
-1.9232725515627715
-1.8801912464077586
-1.830955469087764
-1.8001831082627426
-1.7447928587777384
-1.8001831082627426
-1.855573357747775
-1.8371099412527454
-1.8248009969227534
-1.7940286360977609
-1.818646524757745
-1.9232725515627715
-1.849418885582765
-1.3755245288776807
-1.9478904402227823
-1.830955469087764
-1.8063375804277528
-1.757101803107758
-1.8063375804277528
-1.7878741639327511
-1.7017115536227536
-1.7878741639327511
-1.7263294422827367
-1.7509473309427481
-1.757101803107758
-1.7940286360977609
-1.7694107474377496
-1.615548943312728
-1.855573357747775
-1.818646524757745
-1.7140204979527456
-1.7386383866127564
-1.7386383866127564
-1.7140204979527456
-1.8248009969227534
-1.830955469087764
-1.7755652196027594
-1.8432644134177558
-1.7940286360977609
-1.8124920525927626
-1.689402609292734
-1.757101803107758
-2.04020752269779
-1.8432644134177558
-1.757101803107758
-1.861727829912757
-1.818646524757745
-1.818646524757745
-1.8248009969227534
-1.8432644134177558
-1.855573357747775
-1.8063375804277528
-1.818646524757745
-1.861727829912757
-1.7509473309427481
-1.7263294422827367
-1.9171180793977614
-1.7817196917677414
-1.8124920525927626
-1.818646524757745
-1.8678823020777668
-1.818646524757745
-1.7878741639327511
-1.8432644134177558
-1.8432644134177558
-1.818646524757745
-1.849418885582765
-1.2093537804226673
-1.9786628010477763
-2.4587116299178424
-2.1694514381628007
-1.0862643371226666
-2.507947407237865
-2.329467714452832
-2.2309961598128147
-2.760280766002876
-3.4803540093080176
-2.403321380432838
-2.070979883522784
-2.0463619948628
-2.0586709391927913
-2.0340530505327803
-1.8801912464077586
-1.9294270237277809
-2.200223798987821
-2.015589634037779
-1.966353856717784
-2.0278985783677985
-2.083288827852803
-1.9971262175427773
-1.8801912464077586
-1.8678823020777668
-1.9048091350677696
-1.8740367742427766
-1.8740367742427766
-1.8740367742427766
-1.8248009969227534
-1.8740367742427766
-1.9171180793977614
-1.8740367742427766
-1.8371099412527454
-1.757101803107758
-1.7632562752727399
-1.7509473309427481
-1.7201749701177547
-1.7201749701177547
-1.7447928587777384
-1.7632562752727399
-1.7694107474377496
-1.7694107474377496
-1.6340123598077294
-1.4924595000126994
-1.5847765824877347
-1.5293863330027024
-1.4555326670226965
-1.504768444342719
-1.578622110322725
-1.5724676381577152
-1.6278578876427194
-1.6401668319727392
-1.6278578876427194
-1.677093664962742
-0.538516314437576
-1.6647847206327224
-2.5387197680628573
-1.9786628010477763
-1.855573357747775
-1.861727829912757
-1.830955469087764
-1.818646524757745
-1.7632562752727399
-1.7694107474377496
-1.7447928587777384
-1.7201749701177547
-1.326288751557686
-1.7878741639327511
-2.0463619948628
-1.8740367742427766
-1.0924188092876486
0.009231708247514623
-1.2770529742376913
-1.5663131659927332
-1.6524757763027313
-1.6401668319727392
-1.6032399989827366
-1.7017115536227536
-2.8649067928079033
-3.0864677907479487
-2.1017522443478045
-1.9417359680577726
-1.9417359680577726
-1.8740367742427766
-1.9171180793977614
-2.187914854657802
-2.0217441062027888
-1.9417359680577726
-1.830955469087764
-1.7755652196027594
-1.818646524757745
-1.8371099412527454
-1.8371099412527454
-1.8063375804277528
-1.8432644134177558
-1.855573357747775
-1.8124920525927626
-1.7694107474377496
-1.677093664962742
-1.8863457185727683
-1.8124920525927626
-1.7447928587777384
-1.8248009969227534
-1.8432644134177558
-1.855573357747775
-1.8678823020777668
-1.861727829912757
-1.8432644134177558
-1.8432644134177558
-1.9294270237277809
-1.8740367742427766
-1.7694107474377496
-1.7140204979527456
-1.8371099412527454
-1.8248009969227534
-1.861727829912757
-1.8740367742427766
-1.8678823020777668
-1.89865466290276
-1.9171180793977614
-1.972508328882766
-1.9478904402227823
-1.9294270237277809
-1.9786628010477763
-1.6709391927977324
-0.6000610360875902
-1.0308740876376343
-1.7878741639327511
-1.8740367742427766
-1.818646524757745
-1.7817196917677414
-1.849418885582765
-1.91096360723278
-3.0126141247679152
-3.25263853920299
-2.187914854657802
-1.9478904402227823
-1.9355814958927628
-1.9171180793977614
-1.8124920525927626
-1.6955570814577436
-1.892500190737778
-1.8063375804277528
-1.7878741639327511
-1.8063375804277528
-1.8432644134177558
-1.8063375804277528
-1.7632562752727399
-1.7694107474377496
-1.7386383866127564
-1.7078660257877356
-1.683248137127724
-1.7386383866127564
-1.7017115536227536
-1.6709391927977324
-1.8124920525927626
-1.7878741639327511
-1.7694107474377496
-1.7386383866127564
-1.757101803107758
-1.830955469087764
-1.818646524757745
-1.830955469087764
-1.855573357747775
-1.8740367742427766
-1.757101803107758
-1.7078660257877356
-1.7201749701177547
-1.689402609292734
-1.861727829912757
-1.8063375804277528
-1.7632562752727399
-1.990971745377768
-1.6463213041377216
-1.677093664962742
-1.7324839144477464
-1.7017115536227536
-1.7817196917677414
-1.7263294422827367
-1.6524757763027313
-1.6524757763027313
-1.6709391927977324
-1.7386383866127564
-1.8863457185727683
-1.7447928587777384
-1.757101803107758
-1.849418885582765
-1.7694107474377496
-1.3324432237226955
-1.8678823020777668
-2.0955977721827947
-1.8678823020777668
-1.8432644134177558
-1.8863457185727683
-1.892500190737778
-1.8063375804277528
-1.830955469087764
-1.892500190737778
-1.8371099412527454
-1.8678823020777668
-1.8432644134177558
-1.849418885582765
-1.8863457185727683
-1.8678823020777668
-1.757101803107758
-1.7940286360977609
-1.849418885582765
-1.8124920525927626
-1.7755652196027594
-1.757101803107758
-1.9786628010477763
-2.009435161872797
-1.91096360723278
-1.8740367742427766
-1.8863457185727683
-1.9294270237277809
-1.9232725515627715
-1.8678823020777668
-1.8863457185727683
-1.9478904402227823
-1.818646524757745
-1.7447928587777384
-1.861727829912757
-1.7940286360977609
-1.9048091350677696
-1.9294270237277809
-1.91096360723278
-1.9232725515627715
-1.9048091350677696
-1.8432644134177558
-1.855573357747775
-1.972508328882766
-1.9417359680577726
-1.855573357747775
-1.8248009969227534
-1.855573357747775
-1.9294270237277809
-1.7263294422827367
-1.8863457185727683
-1.8740367742427766
-1.849418885582765
-1.830955469087764
-1.7755652196027594
-1.7878741639327511
-1.8678823020777668
-1.830955469087764
-1.4616871391877062
0.07693090206251085
-1.4186058340326935
-1.7324839144477464
-1.818646524757745
-2.9633783474479203
-3.1357035680679433
-2.1571424938328088
-1.8740367742427766
-1.830955469087764
-1.8001831082627426
-1.7632562752727399
-1.7632562752727399
-1.8124920525927626
-1.8432644134177558
-1.8248009969227534
-1.8063375804277528
-1.7878741639327511
-1.7940286360977609
-1.6647847206327224
-1.7694107474377496
-1.7817196917677414
-1.7694107474377496
-1.8001831082627426
-1.7632562752727399
-1.7324839144477464
-1.7878741639327511
-1.8432644134177558
-1.8678823020777668
-1.7878741639327511
-1.7324839144477464
-1.7940286360977609
-1.7386383866127564
-1.615548943312728
-1.8432644134177558
-1.7263294422827367
-1.6647847206327224
-1.6586302484677409
-1.7017115536227536
-1.7632562752727399
-1.7386383866127564
-1.7324839144477464
-1.7263294422827367
-1.7509473309427481
-1.7386383866127564
-1.8124920525927626
-1.7694107474377496
-1.7940286360977609
-1.9786628010477763
-1.818646524757745
-1.6955570814577436
-1.677093664962742
-1.7140204979527456
-1.7447928587777384
-1.6955570814577436
-1.7447928587777384
-1.830955469087764
-1.8124920525927626
-1.8371099412527454
-1.8248009969227534
-1.6217034154777374
-1.5355408051677124
-1.861727829912757
-1.7447928587777384
-1.3755245288776807
-1.892500190737778
-2.0217441062027888
-1.7940286360977609
-1.7509473309427481
-1.7817196917677414
-1.7878741639327511
-1.7878741639327511
-1.818646524757745
-1.8432644134177558
-1.7817196917677414
-1.7324839144477464
-1.89865466290276
-1.7632562752727399
-1.7201749701177547
-1.7078660257877356
-1.7632562752727399
-1.8124920525927626
-1.7694107474377496
-1.855573357747775
-1.8678823020777668
-1.7817196917677414
-1.7386383866127564
-1.7386383866127564
-1.6709391927977324
-1.6955570814577436
-1.8740367742427766
-1.7447928587777384
-1.7878741639327511
-1.8248009969227534
-1.8740367742427766
-1.855573357747775
-1.818646524757745
-1.855573357747775
-1.8678823020777668
-1.7817196917677414
-1.8432644134177558
-1.849418885582765
-1.7386383866127564
-1.7447928587777384
-1.91096360723278
-1.861727829912757
-1.818646524757745
-1.8001831082627426
-1.830955469087764
-1.7878741639327511
-1.8001831082627426
-1.8063375804277528
-1.7878741639327511
-1.8001831082627426
-1.8001831082627426
-1.8124920525927626
-1.7878741639327511
-1.830955469087764
-1.861727829912757
-1.7817196917677414
-1.8371099412527454
-1.830955469087764
-1.5540042216627135
-0.6554512855725947
-0.9324025329976448
-1.5355408051677124
-1.7324839144477464
-1.7817196917677414
-1.7632562752727399
-1.6955570814577436
-1.849418885582765
-3.2711019556979917
-2.674118155692878
-1.9171180793977614
-1.8124920525927626
-1.8248009969227534
-1.830955469087764
-1.8248009969227534
-1.5663131659927332
-0.36619109381755277
-0.396963454642546
-1.7201749701177547
-1.89865466290276
-1.7694107474377496
-1.689402609292734
-1.89865466290276
-2.3971669082678284
-3.492662953638009
-2.329467714452832
-1.8678823020777668
-1.7878741639327511
-1.7324839144477464
-1.8001831082627426
-1.8063375804277528
-1.757101803107758
-1.8432644134177558
-1.855573357747775
-1.7940286360977609
-1.7201749701177547
-1.91096360723278
-1.855573357747775
-1.7817196917677414
-1.7632562752727399
-1.8063375804277528
-1.8063375804277528
-1.7940286360977609
-1.7755652196027594
-1.7755652196027594
-1.818646524757745
-1.8371099412527454
-1.8248009969227534
-1.7386383866127564
-1.5478497494977315
-1.818646524757745
-1.7694107474377496
-1.689402609292734
-1.7386383866127564
-1.7509473309427481
-1.689402609292734
-1.7140204979527456
-1.7078660257877356
-1.818646524757745
-1.7509473309427481
-1.7755652196027594
-1.8063375804277528
-1.7632562752727399
-1.677093664962742
-1.9355814958927628
-1.9048091350677696
-1.892500190737778
-1.91096360723278
-1.8432644134177558
-1.8124920525927626
-1.861727829912757
-1.8124920525927626
-1.818646524757745
-1.849418885582765
-1.8432644134177558
-1.8740367742427766
-1.818646524757745
-1.7140204979527456
-1.8371099412527454
-1.4986139721777092
-1.757101803107758
-2.1263701330077875
-1.9171180793977614
-1.892500190737778
-1.8432644134177558
-1.7940286360977609
-1.7817196917677414
-1.8740367742427766
-1.8678823020777668
-1.7940286360977609
-1.7632562752727399
-1.7386383866127564
-1.892500190737778
-1.7878741639327511
-1.7694107474377496
-1.830955469087764
-1.7755652196027594
-1.7509473309427481
-1.7386383866127564
-1.6955570814577436
-0.26156506701252585
-0.46466264845757
-1.5355408051677124
-1.689402609292734
-1.7694107474377496
-3.277256427862973
-3.184939345387966
-2.0586709391927913
-1.8863457185727683
-1.8248009969227534
-1.7878741639327511
-1.7878741639327511
-1.7447928587777384
-1.7878741639327511
-1.818646524757745
-1.7940286360977609
-1.830955469087764
-1.8063375804277528
-1.6709391927977324
-1.6217034154777374
-1.7940286360977609
-1.4062968897027015
-0.30464637216753854
-0.9508659494926462
-1.4801505556827075
-2.003280689707787
-3.38803692683301
-2.501792935072855
-1.9294270237277809
-1.830955469087764
-1.7386383866127564
-1.7140204979527456
-1.689402609292734
-1.7140204979527456
-1.8863457185727683
-1.7940286360977609
-1.757101803107758
-1.7694107474377496
-1.7878741639327511
-1.8063375804277528
-1.8001831082627426
-1.8063375804277528
-1.8678823020777668
-1.855573357747775
-1.818646524757745
-1.830955469087764
-1.7940286360977609
-1.7755652196027594
-1.861727829912757
-1.8124920525927626
-1.849418885582765
-1.8371099412527454
-1.861727829912757
-1.8740367742427766
-1.8432644134177558
-1.8740367742427766
-1.9048091350677696
-1.855573357747775
-1.91096360723278
-1.5970855268177266
0.31695531649755804
-1.104727753617668
-2.0340530505327803
-1.8371099412527454
-2.089443300017785
-3.658833702093051
-2.797207598992907
-2.003280689707787
-1.89865466290276
-1.9232725515627715
-1.8863457185727683
-1.892500190737778
-1.9355814958927628
-1.9171180793977614
-1.6463213041377216
-1.3447521680526875
-1.7263294422827367
-1.7694107474377496
-1.7509473309427481
-1.757101803107758
-1.7632562752727399
-1.7755652196027594
-1.8124920525927626
-1.7755652196027594
-1.7263294422827367
-1.757101803107758
-1.757101803107758
-1.7324839144477464
-1.1724269474326645
-1.6032399989827366
-2.064825411357801
-1.7447928587777384
-1.7324839144477464
-1.7140204979527456
-1.6647847206327224
-1.677093664962742
-1.7140204979527456
-1.757101803107758
-1.7878741639327511
-1.849418885582765
-1.818646524757745
-1.7755652196027594
-1.8248009969227534
-2.1817603824928202
-1.966353856717784
-1.8248009969227534
-1.8063375804277528
-1.8678823020777668
-1.861727829912757
-1.9171180793977614
-1.8801912464077586
-1.8740367742427766
-1.8801912464077586
-1.861727829912757
-1.9048091350677696
-1.8740367742427766
-1.6217034154777374
-1.8740367742427766
-1.8678823020777668
-1.7632562752727399
-1.7878741639327511
-1.818646524757745
-1.7632562752727399
-1.7632562752727399
-1.8432644134177558
-1.849418885582765
-1.9048091350677696
-1.7386383866127564
-1.4616871391877062
-2.1632969659978185
-1.89865466290276
-2.003280689707787
-1.9048091350677696
-1.8863457185727683
-1.8801912464077586
-1.7878741639327511
-1.7694107474377496
-1.7878741639327511
-1.7078660257877356
-1.6955570814577436
-1.6955570814577436
-1.7447928587777384
-1.8248009969227534
-0.7723862567076134
-0.7662317845426038
-2.077134355687793
-1.6586302484677409
-1.7140204979527456
-1.7632562752727399
-1.7263294422827367
-1.6463213041377216
-2.2309961598128147
-3.0680043742529195
-2.1079067165127863
-1.9048091350677696
-1.855573357747775
-1.8063375804277528
-1.7078660257877356
-1.5478497494977315
-1.7140204979527456
-1.757101803107758
-1.7694107474377496
-1.7755652196027594
-1.7324839144477464
-1.7017115536227536
-1.689402609292734
-1.6647847206327224
-1.7386383866127564
-1.8740367742427766
-1.7632562752727399
-1.7940286360977609
-1.7324839144477464
-1.7140204979527456
-1.9355814958927628
-1.7878741639327511
-1.757101803107758
-1.8248009969227534
-1.8001831082627426
-1.8248009969227534
-1.818646524757745
-1.7632562752727399
-1.7817196917677414
-1.8124920525927626
-1.8248009969227534
-1.849418885582765
-1.7324839144477464
-1.677093664962742
-1.954044912387765
-1.8248009969227534
-1.7817196917677414
-1.7447928587777384
-1.7263294422827367
-1.7632562752727399
-1.683248137127724
-1.7386383866127564
-1.7940286360977609
-1.7940286360977609
-1.7632562752727399
-1.818646524757745
-1.7447928587777384
-1.7509473309427481
-1.8248009969227534
-1.7447928587777384
-1.7324839144477464
-1.7386383866127564
-1.7201749701177547
-1.7817196917677414
-1.8371099412527454
-1.3878334732077002
-1.7140204979527456
-1.7140204979527456
-1.7386383866127564
-1.757101803107758
-1.6709391927977324
-1.4801505556827075
-1.818646524757745
-1.757101803107758
-1.7324839144477464
-1.7386383866127564
-1.7263294422827367
-1.7509473309427481
-1.7324839144477464
-1.7078660257877356
-1.8248009969227534
-1.7878741639327511
-1.7324839144477464
-1.7632562752727399
-1.7386383866127564
-1.7140204979527456
-1.757101803107758
-0.1692479845375183
-1.3878334732077002
-1.6955570814577436
-1.6278578876427194
-1.689402609292734
-1.683248137127724
-1.6955570814577436
-1.855573357747775
-2.9879962361079313
-2.477175046412844
-1.861727829912757
-1.5540042216627135
-1.4186058340326935
-1.757101803107758
-1.7694107474377496
-1.7324839144477464
-1.7817196917677414
-1.7509473309427481
-1.7694107474377496
-1.8248009969227534
-1.8124920525927626
-1.7817196917677414
-1.7694107474377496
-1.8001831082627426
-1.7509473309427481
-1.7940286360977609
-2.0278985783677985
-1.855573357747775
-1.8248009969227534
-1.7694107474377496
-1.7694107474377496
-1.7447928587777384
-1.7632562752727399
-1.7324839144477464
-1.7755652196027594
-1.2031993082576575
-0.09539431855751236
-1.861727829912757
-1.683248137127724
-2.372549019607845
-3.043386485592936
-2.009435161872797
-1.7817196917677414
-1.6955570814577436
-1.7201749701177547
-1.757101803107758
-1.7755652196027594
-1.757101803107758
-1.8432644134177558
-1.8001831082627426
-1.7509473309427481
-1.7878741639327511
-1.8248009969227534
-1.6401668319727392
-1.9417359680577726
-1.8678823020777668
-1.855573357747775
-1.8248009969227534
-1.7940286360977609
-1.7632562752727399
-1.7817196917677414
-1.7386383866127564
-1.7447928587777384
-1.7940286360977609
-1.8371099412527454
-1.7940286360977609
-1.7878741639327511
-1.615548943312728
-1.757101803107758
-1.7940286360977609
-1.7817196917677414
-1.7447928587777384
-1.7940286360977609
-1.7878741639327511
-1.7755652196027594
-1.7447928587777384
-1.7632562752727399
-1.7324839144477464
-1.7324839144477464
-1.7509473309427481
-1.683248137127724
-1.5724676381577152
-1.8801912464077586
-1.7817196917677414
-1.7447928587777384
-1.7140204979527456
-1.677093664962742
-1.7263294422827367
-1.689402609292734
-1.7386383866127564
-1.7140204979527456
-1.757101803107758
-1.830955469087764
-1.7817196917677414
-1.7017115536227536
-1.689402609292734
-1.9048091350677696
-1.7940286360977609
-1.9786628010477763
-1.9048091350677696
-1.437069250527695
-1.7878741639327511
-1.8124920525927626
-1.8371099412527454
-1.8063375804277528
-1.7817196917677414
-1.855573357747775
-1.8432644134177558
-1.6647847206327224
-1.6278578876427194
-1.954044912387765
-1.8740367742427766
-1.7755652196027594
-1.818646524757745
-1.830955469087764
-1.7940286360977609
-1.8001831082627426
-1.7817196917677414
-1.7755652196027594
-1.8001831082627426
-1.7755652196027594
-1.7940286360977609
-1.7447928587777384
-1.6709391927977324
-1.855573357747775
-1.818646524757745
-1.8124920525927626
-1.7878741639327511
-1.8248009969227534
-1.8248009969227534
-1.7817196917677414
-1.7940286360977609
-1.7878741639327511
-1.7817196917677414
-1.7386383866127564
-1.7201749701177547
-1.6647847206327224
-1.7140204979527456
-1.8801912464077586
-1.7447928587777384
-1.7755652196027594
-1.7694107474377496
-1.8124920525927626
-1.7878741639327511
-1.7078660257877356
-1.677093664962742
-1.683248137127724
-1.7509473309427481
-1.7263294422827367
-1.6647847206327224
-1.7201749701177547
-1.6586302484677409
-1.757101803107758
-1.7632562752727399
-1.7755652196027594
-1.7386383866127564
-1.7263294422827367
-1.215508252587677
-0.1938658731975296
-1.861727829912757
-1.6955570814577436
-1.7017115536227536
-1.7447928587777384
-1.7694107474377496
-1.7263294422827367
-2.883370209302905
-2.797207598992907
-1.9601993845527748
-1.8801912464077586
-1.818646524757745
-1.7940286360977609
-1.7940286360977609
-1.7940286360977609
-1.7509473309427481
-1.849418885582765
-1.855573357747775
-1.7817196917677414
-1.818646524757745
-1.7755652196027594
-1.855573357747775
-1.8863457185727683
-1.861727829912757
-1.8248009969227534
-1.849418885582765
-1.849418885582765
-1.8432644134177558
-1.8740367742427766
-1.8678823020777668
-1.855573357747775
-1.8063375804277528
-1.7940286360977609
-1.7940286360977609
-1.6278578876427194
