-3.2957198443579747
-3.277256427862973
-3.191093817552976
-3.3203377330179857
-3.277256427862973
-3.2834109000279827
-3.277256427862973
-3.258793011367972
-3.2834109000279827
-3.301874316522985
-3.264947483532982
-3.264947483532982
-3.2711019556979917
-3.2834109000279827
-3.289565372192993
-3.258793011367972
-3.24648406703798
-3.2341751227079882
-3.2957198443579747
-3.264947483532982
-3.25263853920299
-3.308028788687994
-3.2711019556979917
-3.24648406703798
-3.24648406703798
-3.2711019556979917
-3.2711019556979917
-3.2711019556979917
-3.080313318582939
-3.0864677907479487
-2.8649067928079033
-3.2034027618829675
-3.24648406703798
-3.2034027618829675
-3.2218661783779687
-3.25263853920299
-3.2341751227079882
-3.6219068691030203
-3.849622339208075
-3.375727982502991
-3.3141832608529764
-3.277256427862973
-3.289565372192993
-3.2711019556979917
-3.2711019556979917
-3.289565372192993
-3.3203377330179857
-3.2834109000279827
-3.2834109000279827
-3.301874316522985
-3.2957198443579747
-3.2834109000279827
-3.2834109000279827
-3.258793011367972
-3.308028788687994
-3.277256427862973
-3.25263853920299
-3.2711019556979917
-3.2711019556979917
-3.25263853920299
-3.289565372192993
-3.2957198443579747
-3.3203377330179857
-3.308028788687994
-3.258793011367972
-3.258793011367972
-3.289565372192993
-3.2834109000279827
-3.301874316522985
-3.2957198443579747
-3.264947483532982
-3.2711019556979917
-3.24648406703798
-3.2034027618829675
-3.3203377330179857
-3.2711019556979917
-3.258793011367972
-3.25263853920299
-3.25263853920299
-3.258793011367972
-3.2834109000279827
-3.258793011367972
-3.2218661783779687
-3.2403295948729705
-3.215711706212987
-3.277256427862973
-2.994150708272913
-2.4279392690928487
-3.178784873222984
-3.184939345387966
-3.178784873222984
-3.215711706212987
-3.437272704153005
-3.8927036443630603
-3.400345871163002
-3.308028788687994
-3.2711019556979917
-3.277256427862973
-3.258793011367972
-3.2711019556979917
-3.24648406703798
-3.264947483532982
-3.369573510338009
-3.326492205182996
-3.2280206505429785
-3.24648406703798
-3.25263853920299
-3.215711706212987
-3.1972482897179852
-3.308028788687994
-3.2280206505429785
-3.2341751227079882
-3.258793011367972
-3.24648406703798
-3.2957198443579747
-3.178784873222984
-3.1233946237379517
-3.3203377330179857
-3.2341751227079882
-3.1972482897179852
-3.178784873222984
-3.154166984562973
-3.141858040232953
-3.141858040232953
-3.264947483532982
-3.381882454668
-3.381882454668
-3.357264566007989
-3.326492205182996
-3.264947483532982
-3.264947483532982
-3.326492205182996
-3.264947483532982
-3.258793011367972
-3.2403295948729705
-3.215711706212987
-3.2034027618829675
-3.2280206505429785
-3.24648406703798
-3.2218661783779687
-3.2034027618829675
-3.2280206505429785
-3.2034027618829675
-3.289565372192993
-3.0618499020879373
-3.25263853920299
-3.2095572340479768
-3.2218661783779687
-3.277256427862973
-3.3203377330179857
-3.412654815492993
-2.9572238752829105
-3.2341751227079882
-3.2341751227079882
-3.2834109000279827
-3.2034027618829675
-3.2711019556979917
-3.2280206505429785
-3.1664759288929645
-3.338801149512988
-3.2403295948729705
-3.2341751227079882
-3.25263853920299
-3.215711706212987
-3.25263853920299
-3.258793011367972
-3.2341751227079882
-3.191093817552976
-3.215711706212987
-3.2341751227079882
-3.2280206505429785
-3.160321456727955
-3.301874316522985
-3.406500343328012
-3.24648406703798
-3.258793011367972
-3.2034027618829675
-3.215711706212987
-3.2280206505429785
-3.160321456727955
-3.24648406703798
-3.215711706212987
-3.2280206505429785
-3.2034027618829675
-3.2034027618829675
-3.191093817552976
-3.1049312072429505
-2.944914930952919
-3.215711706212987
-3.184939345387966
-3.154166984562973
-3.172630401057975
-3.2034027618829675
-3.2034027618829675
-3.184939345387966
-3.172630401057975
-3.2403295948729705
-3.258793011367972
-3.277256427862973
-3.24648406703798
-3.1664759288929645
-2.9879962361079313
-3.1110856794079322
-3.215711706212987
-3.289565372192993
-3.2218661783779687
-3.1972482897179852
-3.2403295948729705
-2.8402889041478923
-2.471020574247862
-3.640370285598049
-3.8927036443630603
-3.4988174258030194
-3.308028788687994
-3.2218661783779687
-3.363419038172999
-3.4311182319879947
-3.301874316522985
-3.258793011367972
-3.24648406703798
-3.25263853920299
-3.277256427862973
-3.258793011367972
-3.25263853920299
-3.2218661783779687
-3.2218661783779687
-3.277256427862973
-3.2957198443579747
-3.2034027618829675
-3.0987767350779407
-3.338801149512988
-3.277256427862973
-3.264947483532982
-3.277256427862973
-3.2341751227079882
-3.2957198443579747
-3.264947483532982
-3.25263853920299
-3.2711019556979917
-3.277256427862973
-3.2403295948729705
-3.289565372192993
-3.24648406703798
-3.184939345387966
-3.049540957757918
-3.2280206505429785
-3.25263853920299
-3.25263853920299
-3.2711019556979917
-3.24648406703798
-3.215711706212987
-3.338801149512988
-3.2711019556979917
-3.2834109000279827
-3.258793011367972
-3.264947483532982
-3.3326466773480057
-3.326492205182996
-3.578825563948035
-3.449581648482997
-3.2957198443579747
-3.2957198443579747
-3.3203377330179857
-3.2711019556979917
-3.277256427862973
-3.24648406703798
-3.24648406703798
-3.308028788687994
-3.264947483532982
-3.264947483532982
-3.277256427862973
-3.2957198443579747
-3.38803692683301
-3.049540957757918
-3.3141832608529764
-3.326492205182996
-3.3203377330179857
-3.301874316522985
-3.2957198443579747
-3.277256427862973
-3.2957198443579747
-3.2218661783779687
-3.2280206505429785
-3.264947483532982
-3.289565372192993
-3.258793011367972
-3.2341751227079882
-3.264947483532982
-3.301874316522985
-3.25263853920299
-3.308028788687994
-3.264947483532982
-3.264947483532982
-3.264947483532982
-3.277256427862973
-3.264947483532982
-3.25263853920299
-2.821825487652891
-3.4434271763180146
-3.4557361206480066
-3.2095572340479768
-3.3203377330179857
-3.2957198443579747
-3.301874316522985
-3.2403295948729705
-3.2218661783779687
-3.308028788687994
-3.3141832608529764
-3.289565372192993
-3.2834109000279827
-3.289565372192993
-3.2341751227079882
-3.25263853920299
-3.2218661783779687
-3.308028788687994
-3.308028788687994
-3.308028788687994
-3.2834109000279827
-3.277256427862973
-3.3203377330179857
-3.301874316522985
-3.2403295948729705
-3.289565372192993
-3.289565372192993
-3.277256427862973
-3.25263853920299
-3.289565372192993
-3.2834109000279827
-3.191093817552976
-3.277256427862973
-3.0003051804379233
-2.68642710002287
-3.308028788687994
-3.1972482897179852
-3.1664759288929645
-3.2034027618829675
-3.3141832608529764
-3.8927036443630603
-3.597288980443037
-3.326492205182996
-3.308028788687994
-3.2711019556979917
-3.264947483532982
-3.2834109000279827
-3.141858040232953
-2.7171994608478913
-3.3511100938430074
-2.895679153632896
-3.289565372192993
-3.2403295948729705
-3.24648406703798
-3.215711706212987
-3.375727982502991
-3.972711782508076
-3.517280842298021
-3.338801149512988
-3.277256427862973
-3.264947483532982
-3.437272704153005
-3.3326466773480057
-3.2834109000279827
-3.289565372192993
-3.2280206505429785
-3.2095572340479768
-3.2034027618829675
-3.215711706212987
-3.2711019556979917
-3.369573510338009
-3.406500343328012
-3.468045064977998
-3.369573510338009
-3.264947483532982
-3.4311182319879947
-3.326492205182996
-3.326492205182996
-3.3511100938430074
-3.2218661783779687
-3.344955621677997
-3.3141832608529764
-3.344955621677997
-3.3141832608529764
-3.308028788687994
-3.326492205182996
-3.2834109000279827
-3.2280206505429785
-3.24648406703798
-3.400345871163002
-3.326492205182996
-3.338801149512988
-3.3203377330179857
-3.308028788687994
-3.2834109000279827
-3.289565372192993
-3.357264566007989
-3.3141832608529764
-3.301874316522985
-3.3141832608529764
-3.301874316522985
-3.2957198443579747
-3.357264566007989
-3.4988174258030194
-3.4188092876580036
-3.264947483532982
-3.277256427862973
-3.2957198443579747
-3.301874316522985
-3.277256427862973
-3.2957198443579747
-3.449581648482997
-3.049540957757918
-3.326492205182996
-3.2957198443579747
-3.264947483532982
-3.1972482897179852
-3.055695429922928
-3.24648406703798
-3.258793011367972
-3.264947483532982
-3.289565372192993
-3.289565372192993
-3.2834109000279827
-3.2957198443579747
-3.2834109000279827
-3.289565372192993
-3.301874316522985
-3.2711019556979917
-3.264947483532982
-3.258793011367972
-3.2711019556979917
-3.3511100938430074
-3.2957198443579747
-3.301874316522985
-3.308028788687994
-3.301874316522985
-3.3141832608529764
-3.326492205182996
-3.338801149512988
-3.338801149512988
-3.3326466773480057
-3.3203377330179857
-3.381882454668
-3.344955621677997
-3.2957198443579747
-3.424963759823013
-3.363419038172999
-3.357264566007989
-3.357264566007989
-3.357264566007989
-3.412654815492993
-3.38803692683301
-3.363419038172999
-3.375727982502991
-3.172630401057975
-2.871061264972913
-3.2711019556979917
-3.800386561888053
-3.8188499783830547
-3.560362147453033
-3.437272704153005
-3.424963759823013
-3.375727982502991
-3.412654815492993
-3.394191398997992
-3.406500343328012
-3.412654815492993
-3.38803692683301
-3.406500343328012
-3.394191398997992
-3.369573510338009
-3.375727982502991
-3.289565372192993
-3.1295490959029335
-3.3511100938430074
-3.357264566007989
-3.357264566007989
-3.363419038172999
-3.400345871163002
-3.338801149512988
-3.357264566007989
-3.369573510338009
-3.369573510338009
-3.381882454668
-3.381882454668
-3.369573510338009
-3.406500343328012
-3.615752396938038
-3.449581648482997
-3.406500343328012
-3.363419038172999
-3.369573510338009
-3.381882454668
-3.363419038172999
-3.357264566007989
-3.363419038172999
-3.369573510338009
-3.381882454668
-3.344955621677997
-3.357264566007989
-3.264947483532982
-2.8895246814679143
-3.154166984562973
-3.301874316522985
-3.3141832608529764
-3.3326466773480057
-3.338801149512988
-3.344955621677997
-3.3326466773480057
-3.3141832608529764
-3.3141832608529764
-3.363419038172999
-3.301874316522985
-3.357264566007989
-3.344955621677997
-3.6896060629180436
-3.5726710917830253
-3.381882454668
-3.178784873222984
-3.363419038172999
-3.474199537143008
-3.363419038172999
-3.3203377330179857
-3.3141832608529764
-3.301874316522985
-3.289565372192993
-3.2957198443579747
-3.301874316522985
-3.2403295948729705
-3.289565372192993
-3.369573510338009
-3.3326466773480057
-3.3203377330179857
-3.2957198443579747
-3.277256427862973
-3.2834109000279827
-3.3326466773480057
-3.3141832608529764
-3.301874316522985
-3.2957198443579747
-3.289565372192993
-3.277256427862973
-3.3141832608529764
-3.2218661783779687
-3.326492205182996
-3.3203377330179857
-3.3141832608529764
-3.308028788687994
-3.289565372192993
-3.3203377330179857
-3.3203377330179857
-3.308028788687994
-3.308028788687994
-3.308028788687994
-3.308028788687994
-3.3203377330179857
-3.289565372192993
-3.289565372192993
-3.357264566007989
-3.3203377330179857
-3.2957198443579747
-3.3141832608529764
-3.3203377330179857
-3.3203377330179857
-3.3326466773480057
-3.308028788687994
-3.308028788687994
-3.344955621677997
-3.2834109000279827
-3.2834109000279827
-3.2957198443579747
-3.2711019556979917
-3.2834109000279827
-3.3326466773480057
-3.2834109000279827
-3.2711019556979917
-3.043386485592936
-2.575646601052861
-3.301874316522985
-3.258793011367972
-3.25263853920299
-3.264947483532982
-3.301874316522985
-3.701915007248036
-3.898858116528071
-3.394191398997992
-3.277256427862973
-3.363419038172999
-3.3326466773480057
-3.3141832608529764
-3.3203377330179857
-3.308028788687994
-3.3203377330179857
-3.301874316522985
-3.301874316522985
-3.2957198443579747
-3.289565372192993
-3.264947483532982
-3.2095572340479768
-3.1480125123979352
-3.178784873222984
-3.191093817552976
-3.1295490959029335
-3.191093817552976
-3.357264566007989
-3.474199537143008
-3.4865084814730274
-3.424963759823013
-3.394191398997992
-3.338801149512988
-3.326492205182996
-3.289565372192993
-3.2834109000279827
-3.25263853920299
-3.215711706212987
-3.338801149512988
-3.301874316522985
-3.2834109000279827
-3.277256427862973
-3.258793011367972
-3.2403295948729705
-3.2711019556979917
-3.264947483532982
-3.289565372192993
-3.2834109000279827
-3.24648406703798
-3.258793011367972
-3.2218661783779687
-3.2218661783779687
-3.3203377330179857
-3.308028788687994
-3.258793011367972
-3.258793011367972
-3.2403295948729705
-3.24648406703798
-3.25263853920299
-3.258793011367972
-3.2403295948729705
-3.2034027618829675
-3.2218661783779687
-3.0618499020879373
-3.258793011367972
-3.2957198443579747
-3.117240151572942
-3.24648406703798
-3.25263853920299
-3.2034027618829675
-3.215711706212987
-3.2341751227079882
-3.2218661783779687
-3.25263853920299
-3.24648406703798
-3.2403295948729705
-3.2403295948729705
-3.2280206505429785
-3.258793011367972
-3.215711706212987
-3.258793011367972
-3.264947483532982
-3.264947483532982
-3.2034027618829675
-3.2095572340479768
-2.9141425701278982
-2.858752320642893
-3.043386485592936
-3.172630401057975
-3.215711706212987
-3.2341751227079882
-3.2341751227079882
-3.25263853920299
-3.788077617558061
-3.658833702093051
-3.412654815492993
-3.3511100938430074
-3.326492205182996
-3.3141832608529764
-3.301874316522985
-3.3203377330179857
-3.308028788687994
-3.3141832608529764
-3.3203377330179857
-3.3203377330179857
-3.326492205182996
-3.3141832608529764
-3.2711019556979917
-3.2403295948729705
-3.344955621677997
-3.344955621677997
-3.326492205182996
-3.326492205182996
-3.326492205182996
-3.301874316522985
-3.3203377330179857
-3.3326466773480057
-3.301874316522985
-3.301874316522985
-3.301874316522985
-3.308028788687994
-3.117240151572942
-2.55102871239285
-2.6987360443528896
-3.308028788687994
-3.8927036443630603
-3.461890592813016
-3.338801149512988
-3.3203377330179857
-3.3203377330179857
-3.3203377330179857
-3.3141832608529764
-3.258793011367972
-3.326492205182996
-3.3326466773480057
-3.289565372192993
-3.4311182319879947
-3.8311589227130733
-3.492662953638009
-3.381882454668
-3.363419038172999
-3.400345871163002
-3.357264566007989
-3.326492205182996
-3.338801149512988
-3.357264566007989
-3.3511100938430074
-3.3141832608529764
-3.301874316522985
-3.363419038172999
-3.289565372192993
-3.277256427862973
-3.3141832608529764
-3.3141832608529764
-3.3141832608529764
-3.308028788687994
-3.289565372192993
-3.344955621677997
-3.301874316522985
-3.338801149512988
-3.344955621677997
-3.3141832608529764
-3.3326466773480057
-3.2957198443579747
-3.264947483532982
-3.3203377330179857
-3.406500343328012
-3.3326466773480057
-3.308028788687994
-3.3511100938430074
-3.3141832608529764
-3.326492205182996
-3.3326466773480057
-3.3203377330179857
-3.3203377330179857
-3.3141832608529764
-3.3326466773480057
-3.3141832608529764
-3.289565372192993
-3.264947483532982
-3.357264566007989
-3.3511100938430074
-3.301874316522985
-3.3203377330179857
-3.357264566007989
-3.289565372192993
-3.080313318582939
-3.400345871163002
-3.357264566007989
-3.2711019556979917
-3.258793011367972
-3.264947483532982
-3.258793011367972
-3.215711706212987
-3.326492205182996
-2.8525978484779113
-3.4188092876580036
-3.437272704153005
-3.301874316522985
-3.289565372192993
-3.2711019556979917
-3.264947483532982
-3.264947483532982
-3.2341751227079882
-3.308028788687994
-3.2834109000279827
-3.258793011367972
-3.2711019556979917
-3.301874316522985
-3.2834109000279827
-3.25263853920299
-3.258793011367972
-3.301874316522985
-3.25263853920299
-3.25263853920299
-3.24648406703798
-3.2403295948729705
-3.258793011367972
-3.2341751227079882
-3.2341751227079882
-3.24648406703798
-3.2034027618829675
-3.2034027618829675
-3.2218661783779687
-3.2403295948729705
-3.2218661783779687
-3.1972482897179852
-3.160321456727955
-3.191093817552976
-3.172630401057975
-3.178784873222984
-3.2095572340479768
-3.184939345387966
-3.172630401057975
-3.191093817552976
-3.1357035680679433
-3.215711706212987
-3.277256427862973
-3.2034027618829675
-3.184939345387966
-3.1972482897179852
-3.191093817552976
-3.2034027618829675
-2.9510694031179288
-2.4525571577528327
-3.2218661783779687
-3.1357035680679433
-3.117240151572942
-3.172630401057975
-3.1357035680679433
-3.24648406703798
-3.8803947000330687
-3.369573510338009
-3.172630401057975
-3.1233946237379517
-3.074158846417929
-3.055695429922928
-3.0618499020879373
-3.184939345387966
-3.326492205182996
-3.308028788687994
-3.289565372192993
-3.2341751227079882
-3.160321456727955
-3.0618499020879373
-3.277256427862973
-3.141858040232953
-3.141858040232953
-3.1480125123979352
-3.1295490959029335
-3.160321456727955
-3.160321456727955
-3.1480125123979352
-3.117240151572942
-3.1049312072429505
-3.191093817552976
-3.184939345387966
-3.178784873222984
-3.2218661783779687
-3.4434271763180146
-3.2834109000279827
-3.2280206505429785
-3.2095572340479768
-3.2218661783779687
-3.2280206505429785
-3.2034027618829675
-3.2034027618829675
-3.178784873222984
-3.184939345387966
-3.1972482897179852
-3.178784873222984
-3.1480125123979352
-3.117240151572942
-3.0310775412629165
-3.1357035680679433
-3.1664759288929645
-3.160321456727955
-3.160321456727955
-3.1295490959029335
-3.1664759288929645
-3.160321456727955
-3.172630401057975
-3.141858040232953
-3.1480125123979352
-3.160321456727955
-3.1357035680679433
-3.049540957757918
-2.6618092113628857
-3.049540957757918
-3.258793011367972
-3.117240151572942
-3.117240151572942
-3.1049312072429505
-3.0987767350779407
-3.184939345387966
-3.141858040232953
-3.1480125123979352
-3.1664759288929645
-3.1357035680679433
-3.154166984562973
-3.154166984562973
-3.400345871163002
-3.38803692683301
-3.191093817552976
-3.178784873222984
-3.191093817552976
-3.191093817552976
-3.2218661783779687
-3.215711706212987
-3.2403295948729705
-3.2341751227079882
-3.215711706212987
-3.24648406703798
-3.277256427862973
-3.2034027618829675
-3.1295490959029335
-3.2341751227079882
-3.1972482897179852
-3.24648406703798
-3.25263853920299
-3.3203377330179857
-3.2218661783779687
-3.2341751227079882
-3.2280206505429785
-3.2403295948729705
-3.2403295948729705
-3.25263853920299
-3.2711019556979917
-3.264947483532982
-3.191093817552976
-3.308028788687994
-3.277256427862973
-3.2403295948729705
-3.25263853920299
-3.264947483532982
-3.2403295948729705
-3.2218661783779687
-3.1972482897179852
-3.172630401057975
-3.2034027618829675
-3.1972482897179852
-3.178784873222984
-3.2095572340479768
-3.2034027618829675
-3.264947483532982
-3.055695429922928
-2.7418173495078744
-3.074158846417929
-3.215711706212987
-3.837313394878056
-3.5665166196180156
-3.2957198443579747
-3.2711019556979917
-3.2711019556979917
-3.25263853920299
-3.264947483532982
-3.264947483532982
-3.24648406703798
-3.289565372192993
-3.2834109000279827
-3.25263853920299
-3.24648406703798
-3.264947483532982
-3.264947483532982
-3.258793011367972
-3.277256427862973
-3.2834109000279827
-3.264947483532982
-3.277256427862973
-3.258793011367972
-3.264947483532982
-3.25263853920299
-3.24648406703798
-3.3203377330179857
-3.264947483532982
-3.2711019556979917
-3.258793011367972
-3.2403295948729705
-3.264947483532982
-3.2711019556979917
-3.0249230690979347
-2.5387197680628573
-3.1110856794079322
-3.363419038172999
-3.2834109000279827
-3.215711706212987
-3.184939345387966
-3.344955621677997
-3.652679229928041
-3.9296304773530633
-3.4188092876580036
-3.357264566007989
-3.308028788687994
-3.3141832608529764
-3.344955621677997
-3.289565372192993
-3.2711019556979917
-3.308028788687994
-3.277256427862973
-3.264947483532982
-3.2095572340479768
-3.369573510338009
-3.301874316522985
-3.2341751227079882
-3.25263853920299
-3.308028788687994
-3.277256427862973
-3.277256427862973
-3.264947483532982
-3.25263853920299
-3.264947483532982
-3.25263853920299
-3.277256427862973
-3.264947483532982
-3.2403295948729705
-3.258793011367972
-3.289565372192993
-3.3141832608529764
-3.301874316522985
-3.2957198443579747
-3.277256427862973
-3.2957198443579747
-3.3141832608529764
-3.301874316522985
-3.289565372192993
-3.301874316522985
-3.308028788687994
-3.301874316522985
-3.2834109000279827
-3.363419038172999
-3.344955621677997
-3.326492205182996
-3.3203377330179857
-3.3326466773480057
-3.308028788687994
-3.3141832608529764
-3.3141832608529764
-3.308028788687994
-3.301874316522985
-3.326492205182996
-3.326492205182996
-3.326492205182996
-3.308028788687994
-3.2834109000279827
-3.172630401057975
-3.363419038172999
-3.38803692683301
-3.2711019556979917
-3.2711019556979917
-3.25263853920299
-3.25263853920299
-3.2403295948729705
-3.264947483532982
-3.2711019556979917
-3.264947483532982
-3.24648406703798
-3.2280206505429785
-3.1664759288929645
-3.277256427862973
-3.2341751227079882
-3.2957198443579747
-3.301874316522985
-3.2711019556979917
-3.289565372192993
-3.301874316522985
-3.2711019556979917
-3.277256427862973
-3.043386485592936
-2.778744182497905
-3.117240151572942
-3.1480125123979352
-3.160321456727955
-3.2834109000279827
-3.25263853920299
-3.277256427862973
-3.8188499783830547
-3.7080694794130453
-3.2711019556979917
-3.178784873222984
-3.1480125123979352
-3.141858040232953
-3.2095572340479768
-3.375727982502991
-3.4311182319879947
-3.468045064977998
-3.2711019556979917
-3.037232013427927
-3.2280206505429785
-3.264947483532982
-3.277256427862973
-3.264947483532982
-3.25263853920299
-3.2403295948729705
-3.2403295948729705
-3.264947483532982
-3.215711706212987
-3.2280206505429785
-3.258793011367972
-3.25263853920299
-3.289565372192993
-3.5418987309580316
-3.369573510338009
-3.308028788687994
-3.2834109000279827
-3.2711019556979917
-3.2711019556979917
-3.264947483532982
-3.25263853920299
-3.25263853920299
-3.25263853920299
-3.2341751227079882
-3.2341751227079882
-3.2280206505429785
-3.2034027618829675
-3.2341751227079882
-3.375727982502991
-3.2957198443579747
-3.2403295948729705
-3.258793011367972
-3.2711019556979917
-3.258793011367972
-3.264947483532982
-3.2403295948729705
-3.2711019556979917
-3.258793011367972
-3.258793011367972
-3.264947483532982
-3.215711706212987
-3.2034027618829675
-3.2957198443579747
-3.2280206505429785
-3.1110856794079322
-3.2711019556979917
-3.38803692683301
-3.24648406703798
-3.2218661783779687
-3.258793011367972
-3.24648406703798
-3.264947483532982
-3.3141832608529764
-3.264947483532982
-3.2280206505429785
-3.172630401057975
-3.3141832608529764
-3.3141832608529764
-3.264947483532982
-3.2711019556979917
-3.3141832608529764
-3.3141832608529764
-3.3141832608529764
-3.326492205182996
-3.3326466773480057
-3.344955621677997
-3.363419038172999
-3.338801149512988
-3.357264566007989
-3.2834109000279827
-3.369573510338009
-3.38803692683301
-3.363419038172999
-3.3203377330179857
-3.344955621677997
-3.357264566007989
-3.3326466773480057
-3.338801149512988
-3.3141832608529764
-3.2957198443579747
-3.338801149512988
-3.3141832608529764
-3.3141832608529764
-3.301874316522985
-3.344955621677997
-3.344955621677997
-3.344955621677997
-3.3326466773480057
-3.338801149512988
-3.400345871163002
-3.326492205182996
-3.3141832608529764
-3.2957198443579747
-3.3203377330179857
-3.289565372192993
-3.301874316522985
-3.308028788687994
-3.277256427862973
-3.264947483532982
-3.363419038172999
-3.3326466773480057
-3.308028788687994
-3.092622262912931
-2.5694921288878514
-3.3511100938430074
-3.277256427862973
-3.677297118588053
-3.9111670608580615
-3.424963759823013
-3.381882454668
-3.363419038172999
-3.3203377330179857
-3.326492205182996
-3.449581648482997
-3.3511100938430074
-3.357264566007989
-3.308028788687994
-3.301874316522985
-3.3203377330179857
-3.3326466773480057
-3.308028788687994
-3.308028788687994
-3.289565372192993
-3.326492205182996
-3.3326466773480057
-3.2957198443579747
-3.2403295948729705
-3.3203377330179857
-3.308028788687994
-3.308028788687994
-3.308028788687994
-3.3326466773480057
-3.308028788687994
-3.3141832608529764
-3.301874316522985
-3.2957198443579747
-3.2834109000279827
-3.3141832608529764
-3.277256427862973
-3.3141832608529764
-3.258793011367972
-3.338801149512988
-3.3511100938430074
-3.2834109000279827
-3.289565372192993
-3.308028788687994
-3.277256427862973
-3.2711019556979917
-3.2711019556979917
-3.277256427862973
-3.264947483532982
-3.25263853920299
-3.277256427862973
-3.2218661783779687
-3.301874316522985
-3.363419038172999
-3.301874316522985
-3.301874316522985
-3.2834109000279827
-3.2834109000279827
-3.2834109000279827
-2.96953281961293
-3.357264566007989
-3.412654815492993
-3.2711019556979917
-3.264947483532982
-3.074158846417929
-3.258793011367972
-3.363419038172999
-3.191093817552976
-3.308028788687994
-3.258793011367972
-3.264947483532982
-3.258793011367972
-3.258793011367972
-3.25263853920299
-3.25263853920299
-3.2280206505429785
-3.301874316522985
-3.24648406703798
-3.2341751227079882
-3.2341751227079882
-3.215711706212987
-3.215711706212987
-3.289565372192993
-3.2341751227079882
-3.2834109000279827
-3.215711706212987
-3.2218661783779687
-3.2403295948729705
-3.24648406703798
-3.2218661783779687
-3.2341751227079882
-3.258793011367972
-3.24648406703798
-3.215711706212987
-3.2280206505429785
-3.215711706212987
-3.2957198443579747
-3.264947483532982
-3.277256427862973
-3.24648406703798
-3.2711019556979917
-3.25263853920299
-3.2711019556979917
-3.264947483532982
-3.264947483532982
-3.25263853920299
-3.178784873222984
-2.507947407237865
-3.1295490959029335
-3.172630401057975
-3.2834109000279827
-3.25263853920299
-3.258793011367972
-3.2834109000279827
-3.4188092876580036
-3.972711782508076
-3.511126370133011
-3.344955621677997
-3.3203377330179857
-3.3141832608529764
-3.326492205182996
-3.301874316522985
-3.2280206505429785
-2.6371913227028756
-2.711044988682881
-3.117240151572942
-3.172630401057975
-3.215711706212987
-3.2403295948729705
-3.2711019556979917
-3.5849800361130173
-3.9296304773530633
-3.424963759823013
-3.326492205182996
-3.2280206505429785
-3.191093817552976
-3.172630401057975
-3.2218661783779687
-3.412654815492993
-3.424963759823013
-3.492662953638009
-3.554207675288024
-3.511126370133011
-3.437272704153005
-3.369573510338009
-3.3511100938430074
-3.2834109000279827
-3.344955621677997
-3.289565372192993
-3.301874316522985
-3.2834109000279827
-3.289565372192993
-3.3326466773480057
-3.3141832608529764
-3.277256427862973
-3.308028788687994
-3.289565372192993
-3.2834109000279827
-3.289565372192993
-3.2834109000279827
-3.277256427862973
-3.277256427862973
-3.289565372192993
-3.3141832608529764
-3.289565372192993
-3.277256427862973
-3.2834109000279827
-3.369573510338009
-3.3326466773480057
-3.326492205182996
-3.289565372192993
-3.289565372192993
-3.301874316522985
-3.264947483532982
-3.289565372192993
-3.277256427862973
-3.277256427862973
-3.2957198443579747
-3.277256427862973
-3.24648406703798
-3.184939345387966
-3.2957198443579747
-3.2834109000279827
-3.2711019556979917
-3.2711019556979917
-3.2403295948729705
-3.0618499020879373
-3.25263853920299
-3.394191398997992
-3.264947483532982
-3.258793011367972
-3.25263853920299
-3.2095572340479768
-3.2834109000279827
-3.2095572340479768
-3.301874316522985
-3.277256427862973
-3.25263853920299
-3.24648406703798
-3.25263853920299
-3.2403295948729705
-3.215711706212987
-3.277256427862973
-3.258793011367972
-3.2403295948729705
-3.264947483532982
-3.277256427862973
-3.264947483532982
-3.2403295948729705
-3.2711019556979917
-3.308028788687994
-3.308028788687994
-3.301874316522985
-3.2957198443579747
-3.301874316522985
-3.301874316522985
-3.2711019556979917
-3.258793011367972
-3.2957198443579747
-3.301874316522985
-3.3203377330179857
-3.3141832608529764
-3.258793011367972
-3.2711019556979917
-3.3326466773480057
-3.3203377330179857
-3.326492205182996
-3.2957198443579747
-3.301874316522985
-3.308028788687994
-3.308028788687994
-3.3141832608529764
-3.3203377330179857
-3.3141832608529764
-3.3203377330179857
-3.308028788687994
-3.2834109000279827
-3.258793011367972
-3.363419038172999
-3.357264566007989
-3.338801149512988
-3.308028788687994
-3.3326466773480057
-3.3511100938430074
-3.2280206505429785
-2.5141018794028467
-3.344955621677997
-3.289565372192993
-3.406500343328012
-3.9604028381780845
-3.511126370133011
-3.301874316522985
-3.400345871163002
-3.3511100938430074
-3.3326466773480057
-3.3326466773480057
-3.308028788687994
-3.326492205182996
-3.326492205182996
-3.3141832608529764
-3.3203377330179857
-3.3141832608529764
-3.3141832608529764
-3.3203377330179857
-3.301874316522985
-3.2834109000279827
-3.4188092876580036
-3.338801149512988
-3.289565372192993
-3.2957198443579747
-3.301874316522985
-3.301874316522985
-3.277256427862973
-3.2957198443579747
-3.2834109000279827
-3.2957198443579747
-3.277256427862973
-3.2711019556979917
-3.258793011367972
-3.1110856794079322
-2.7848986546628876
-3.1664759288929645
-3.2280206505429785
-3.2095572340479768
-3.215711706212987
-3.2280206505429785
-3.24648406703798
-3.2341751227079882
-3.2403295948729705
-3.308028788687994
-3.258793011367972
-3.2403295948729705
-3.215711706212987
-3.375727982502991
-4.009638615498079
-3.529589786628012
-3.338801149512988
-3.3326466773480057
-3.2957198443579747
-3.308028788687994
-3.2834109000279827
-3.277256427862973
-3.277256427862973
-3.264947483532982
-3.264947483532982
-3.2711019556979917
-3.24648406703798
-3.2034027618829675
-2.8464433763129016
-3.160321456727955
-3.394191398997992
-3.277256427862973
-3.258793011367972
-3.2711019556979917
-3.24648406703798
-3.25263853920299
-3.277256427862973
-3.2834109000279827
-3.2957198443579747
-3.264947483532982
-3.277256427862973
-3.277256427862973
-3.2218661783779687
-3.3141832608529764
-3.277256427862973
-3.289565372192993
-3.277256427862973
-3.301874316522985
-3.24648406703798
-3.25263853920299
-3.289565372192993
-3.289565372192993
-3.2711019556979917
-3.2711019556979917
-3.2711019556979917
-3.2218661783779687
-3.1972482897179852
-3.3326466773480057
-3.301874316522985
-3.2834109000279827
-3.2711019556979917
-3.264947483532982
-3.258793011367972
-3.24648406703798
-3.301874316522985
-3.2957198443579747
-3.2834109000279827
-3.2957198443579747
-3.3141832608529764
-3.2711019556979917
-3.2957198443579747
-3.4188092876580036
-3.381882454668
-3.289565372192993
-3.301874316522985
-3.301874316522985
-3.289565372192993
-3.2834109000279827
-3.289565372192993
-3.2957198443579747
-3.308028788687994
-3.2711019556979917
-3.258793011367972
-3.184939345387966
-3.1049312072429505
-3.0310775412629165
-2.932605986622927
-2.624882378372884
-3.1233946237379517
-3.357264566007989
-3.4188092876580036
-3.437272704153005
-3.406500343328012
-3.326492205182996
-3.381882454668
-3.923476005188081
-3.5726710917830253
-3.326492205182996
-3.2711019556979917
-3.258793011367972
-3.326492205182996
-3.2957198443579747
-3.2957198443579747
-3.301874316522985
-3.308028788687994
-3.289565372192993
-3.277256427862973
-3.2834109000279827
-3.2834109000279827
-3.2834109000279827
-3.2834109000279827
-3.2711019556979917
-3.2711019556979917
-3.2403295948729705
-3.344955621677997
-3.2834109000279827
-3.2711019556979917
-3.277256427862973
-3.25263853920299
-3.264947483532982
-3.264947483532982
-3.277256427862973
-3.277256427862973
-3.264947483532982
-3.289565372192993
-3.2834109000279827
-3.2218661783779687
-3.2341751227079882
-3.357264566007989
-3.2834109000279827
-3.25263853920299
-3.277256427862973
-3.258793011367972
-3.258793011367972
-3.2403295948729705
-3.2834109000279827
-3.24648406703798
-3.2341751227079882
-3.2711019556979917
-3.264947483532982
-3.215711706212987
-3.0864677907479487
-2.667963683527869
-2.674118155692878
-2.932605986622927
-3.2957198443579747
-3.184939345387966
-3.178784873222984
-3.1972482897179852
-3.2095572340479768
-3.806541034053064
-3.658833702093051
-3.3141832608529764
-3.258793011367972
-3.2711019556979917
-3.3203377330179857
-3.548053203123014
-3.394191398997992
-3.289565372192993
-3.308028788687994
-3.2834109000279827
-3.24648406703798
-3.25263853920299
-3.24648406703798
-3.264947483532982
-3.24648406703798
-3.258793011367972
-3.2834109000279827
-3.264947483532982
-3.24648406703798
-3.2218661783779687
-3.2834109000279827
-3.277256427862973
-3.24648406703798
-3.2341751227079882
-3.2711019556979917
-3.2403295948729705
-3.2280206505429785
-3.24648406703798
-3.24648406703798
-3.2218661783779687
-3.264947483532982
-3.2403295948729705
-3.2403295948729705
-3.25263853920299
-3.2834109000279827
-3.24648406703798
-3.264947483532982
-3.2403295948729705
-3.2095572340479768
-3.264947483532982
-3.258793011367972
-3.2341751227079882
-3.215711706212987
-3.2403295948729705
-3.258793011367972
-3.2280206505429785
-3.1972482897179852
-3.184939345387966
-3.2834109000279827
-3.25263853920299
-3.215711706212987
-3.2280206505429785
-3.2341751227079882
-3.2034027618829675
-3.1357035680679433
-3.074158846417929
-3.363419038172999
-3.0680043742529195
-2.471020574247862
-3.258793011367972
-3.1664759288929645
-3.1664759288929645
-3.788077617558061
-3.6896060629180436
-3.3141832608529764
-3.289565372192993
-3.258793011367972
-3.264947483532982
-3.24648406703798
-3.308028788687994
-3.264947483532982
-3.2218661783779687
-3.24648406703798
-3.258793011367972
-3.24648406703798
-3.049540957757918
-2.7418173495078744
-3.092622262912931
-3.172630401057975
-3.264947483532982
-3.2341751227079882
-3.258793011367972
-3.25263853920299
-3.25263853920299
-3.24648406703798
-3.258793011367972
-3.2711019556979917
-3.3141832608529764
-3.264947483532982
-3.406500343328012
-3.898858116528071
-3.504971897968029
-3.344955621677997
-3.344955621677997
-3.326492205182996
-3.308028788687994
-3.301874316522985
-3.2957198443579747
-3.2957198443579747
-3.3141832608529764
-3.301874316522985
-2.9633783474479203
-3.394191398997992
-3.4188092876580036
-3.178784873222984
-3.3326466773480057
-3.308028788687994
-3.338801149512988
-3.326492205182996
-3.301874316522985
-3.3141832608529764
-3.326492205182996
-3.3203377330179857
-3.3203377330179857
-3.3326466773480057
-3.2957198443579747
-3.289565372192993
-3.301874316522985
-3.326492205182996
-3.357264566007989
-3.289565372192993
-3.1295490959029335
-3.369573510338009
-3.4865084814730274
-3.363419038172999
-3.3511100938430074
-3.375727982502991
-3.326492205182996
-3.326492205182996
-3.3141832608529764
-3.3203377330179857
-3.289565372192993
-3.2403295948729705
-3.381882454668
-3.3203377330179857
-3.3141832608529764
-3.289565372192993
-3.289565372192993
-3.2711019556979917
-3.264947483532982
-3.2711019556979917
-3.2834109000279827
-3.2957198443579747
-3.2834109000279827
-3.289565372192993
-3.25263853920299
-3.0618499020879373
-2.858752320642893
-3.1233946237379517
-3.178784873222984
-3.24648406703798
-3.258793011367972
-3.264947483532982
-3.25263853920299
-3.2341751227079882
-3.264947483532982
-3.2403295948729705
-3.2341751227079882
-3.2957198443579747
-3.264947483532982
-3.3511100938430074
-3.701915007248036
-3.400345871163002
-3.2957198443579747
-3.326492205182996
-3.25263853920299
-3.2280206505429785
-3.2034027618829675
-3.172630401057975
-3.1295490959029335
-3.1480125123979352
-3.308028788687994
-3.4311182319879947
-3.511126370133011
-3.394191398997992
-3.1295490959029335
-3.25263853920299
-3.289565372192993
-3.2834109000279827
-3.037232013427927
-2.944914930952919
-3.855776811373057
-3.338801149512988
-3.308028788687994
-3.2711019556979917
-3.2834109000279827
-3.301874316522985
-3.301874316522985
-3.2341751227079882
-3.4865084814730274
-3.449581648482997
-3.2957198443579747
-3.3203377330179857
-3.308028788687994
-3.289565372192993
-3.277256427862973
-3.264947483532982
-3.3326466773480057
-3.308028788687994
-3.2957198443579747
-3.277256427862973
-3.2957198443579747
-3.2834109000279827
-3.24648406703798
-3.357264566007989
-3.326492205182996
-3.289565372192993
-3.289565372192993
-3.2834109000279827
-3.2957198443579747
-3.2834109000279827
-3.2834109000279827
-3.264947483532982
-3.2403295948729705
-3.2280206505429785
-3.2403295948729705
-3.215711706212987
-3.178784873222984
-3.3203377330179857
-3.2341751227079882
-3.2403295948729705
-3.2711019556979917
-3.2218661783779687
-3.2095572340479768
-3.2280206505429785
-3.2280206505429785
-3.215711706212987
-3.2403295948729705
-3.264947483532982
-3.258793011367972
-3.215711706212987
-3.1972482897179852
-3.2218661783779687
-3.2403295948729705
-3.215711706212987
-3.2834109000279827
-3.24648406703798
-3.2280206505429785
-3.258793011367972
-3.264947483532982
-3.258793011367972
-3.258793011367972
-3.2218661783779687
-3.1049312072429505
-3.344955621677997
-3.394191398997992
-3.326492205182996
-3.357264566007989
-3.338801149512988
-3.3141832608529764
-3.3141832608529764
-3.3203377330179857
-3.344955621677997
-3.3203377330179857
-3.2957198443579747
-3.308028788687994
-3.326492205182996
-3.301874316522985
-3.258793011367972
-3.25263853920299
-3.2403295948729705
-3.3141832608529764
-3.277256427862973
-3.2711019556979917
-3.277256427862973
-3.277256427862973
-3.289565372192993
-3.301874316522985
-3.277256427862973
-3.277256427862973
-3.264947483532982
-3.258793011367972
-3.2341751227079882
-3.184939345387966
-3.25263853920299
-3.3511100938430074
-3.3203377330179857
-3.2957198443579747
-3.2834109000279827
-3.301874316522985
-3.301874316522985
-3.289565372192993
-3.289565372192993
-3.258793011367972
-3.264947483532982
-3.25263853920299
-3.2711019556979917
-3.25263853920299
-3.2034027618829675
-3.3326466773480057
-3.264947483532982
-3.24648406703798
-3.277256427862973
-3.258793011367972
-3.2711019556979917
-3.289565372192993
-3.258793011367972
-3.277256427862973
-3.2957198443579747
-3.277256427862973
-3.277256427862973
-3.0126141247679152
-2.526410823732866
-3.369573510338009
-3.24648406703798
-3.1972482897179852
-3.3141832608529764
-3.3141832608529764
-3.0864677907479487
-3.394191398997992
-3.3141832608529764
-3.289565372192993
-3.2834109000279827
-3.24648406703798
-3.6034434526080172
-3.9050125886930798
-3.369573510338009
-3.25263853920299
-3.308028788687994
-3.308028788687994
-3.308028788687994
-3.2957198443579747
-3.2834109000279827
-3.3141832608529764
-3.289565372192993
-3.277256427862973
-3.3203377330179857
-3.25263853920299
-3.2711019556979917
-3.301874316522985
-3.2403295948729705
-3.289565372192993
-3.338801149512988
-3.258793011367972
-3.264947483532982
-3.277256427862973
-3.2711019556979917
-3.258793011367972
-3.2834109000279827
-3.2834109000279827
-3.2711019556979917
-3.2711019556979917
-3.258793011367972
-3.24648406703798
-3.2403295948729705
-3.2834109000279827
-3.3203377330179857
-3.301874316522985
-3.301874316522985
-3.289565372192993
-3.264947483532982
-3.24648406703798
-3.258793011367972
-3.25263853920299
-3.2280206505429785
-3.2341751227079882
-3.25263853920299
-3.1972482897179852
-3.2034027618829675
-3.1233946237379517
-3.24648406703798
-3.2280206505429785
-3.2218661783779687
-3.2280206505429785
-3.2341751227079882
-3.2403295948729705
-3.2218661783779687
-3.2095572340479768
-3.191093817552976
-3.2218661783779687
-3.0249230690979347
-3.2341751227079882
-3.301874316522985
-3.0680043742529195
-2.907988097962916
-3.160321456727955
-3.1972482897179852
-3.191093817552976
-3.191093817552976
-3.184939345387966
-3.2218661783779687
-3.2280206505429785
-3.2218661783779687
-3.2403295948729705
-3.2341751227079882
-3.2034027618829675
-3.2957198443579747
-3.3141832608529764
-3.5849800361130173
-3.412654815492993
-3.2957198443579747
-3.289565372192993
-3.2834109000279827
-3.258793011367972
-3.308028788687994
-3.24648406703798
-3.2834109000279827
-3.289565372192993
-3.289565372192993
-3.264947483532982
-3.2711019556979917
-3.2403295948729705
-2.895679153632896
-3.074158846417929
-3.2341751227079882
-3.2341751227079882
-3.2341751227079882
-3.191093817552976
-3.1357035680679433
-3.0987767350779407
-3.172630401057975
-3.2711019556979917
-3.4311182319879947
-3.4988174258030194
-3.492662953638009
-3.474199537143008
-3.75730525673304
-3.578825563948035
-3.394191398997992
-3.357264566007989
-3.338801149512988
-3.3141832608529764
-3.3141832608529764
-3.0680043742529195
-2.674118155692878
-4.028102031993082
-3.5234353144630304
-3.3326466773480057
-3.326492205182996
-3.289565372192993
-3.24648406703798
-3.394191398997992
-3.338801149512988
-3.3141832608529764
-3.2834109000279827
-3.308028788687994
-3.2834109000279827
-3.2957198443579747
-3.301874316522985
-3.308028788687994
-3.289565372192993
-3.2834109000279827
-3.308028788687994
-3.2834109000279827
-3.264947483532982
-3.344955621677997
-3.3141832608529764
-3.289565372192993
-3.2711019556979917
-3.326492205182996
-3.2834109000279827
-3.2957198443579747
-3.2834109000279827
-3.2834109000279827
-3.289565372192993
-3.2957198443579747
-3.258793011367972
-3.308028788687994
-3.258793011367972
-3.2711019556979917
-3.2834109000279827
-3.2711019556979917
-3.2711019556979917
-3.264947483532982
-3.2280206505429785
-3.2341751227079882
-3.2341751227079882
-3.264947483532982
-3.2403295948729705
-3.24648406703798
-3.2711019556979917
-3.2341751227079882
-3.1664759288929645
-3.215711706212987
-3.264947483532982
-3.2341751227079882
-3.2218661783779687
-3.2280206505429785
-3.2341751227079882
-3.2403295948729705
-3.2095572340479768
-3.2218661783779687
-3.24648406703798
-3.25263853920299
-3.258793011367972
-3.24648406703798
-3.2218661783779687
-3.0987767350779407
-3.381882454668
-3.4557361206480066
-3.308028788687994
-3.264947483532982
-3.264947483532982
-3.277256427862973
-3.277256427862973
-3.25263853920299
-3.289565372192993
-3.2957198443579747
-3.2834109000279827
-3.25263853920299
-3.2403295948729705
-3.172630401057975
-3.258793011367972
-3.3203377330179857
-3.289565372192993
-3.2341751227079882
-3.2403295948729705
-3.264947483532982
-3.2711019556979917
-3.277256427862973
-3.2711019556979917
-3.2341751227079882
-3.258793011367972
-3.2341751227079882
-3.2218661783779687
-3.2034027618829675
-3.326492205182996
-3.289565372192993
-3.2341751227079882
-3.2280206505429785
-3.3326466773480057
-3.301874316522985
-3.277256427862973
-3.264947483532982
-3.2957198443579747
-3.301874316522985
-3.289565372192993
-3.25263853920299
-3.301874316522985
-3.338801149512988
-3.511126370133011
-3.38803692683301
-3.326492205182996
-3.3203377330179857
-3.3141832608529764
-3.308028788687994
-3.308028788687994
-3.2834109000279827
-3.2957198443579747
-3.2957198443579747
-3.2957198443579747
-3.308028788687994
-3.258793011367972
-3.2403295948729705
-3.1295490959029335
-3.055695429922928
-2.6987360443528896
-3.117240151572942
-3.191093817552976
-3.2280206505429785
-3.363419038172999
-3.9296304773530633
-3.5911345082780266
-3.363419038172999
-3.3326466773480057
-3.308028788687994
-3.301874316522985
-3.2711019556979917
-3.25263853920299
-3.394191398997992
-3.357264566007989
-3.308028788687994
-3.3203377330179857
-3.289565372192993
-3.289565372192993
-3.326492205182996
-3.326492205182996
-3.2957198443579747
-3.301874316522985
-3.277256427862973
-3.2957198443579747
-3.2957198443579747
-3.2218661783779687
-3.338801149512988
-3.043386485592936
-3.400345871163002
-3.4865084814730274
-3.3203377330179857
-3.3141832608529764
-3.3141832608529764
-3.3203377330179857
-3.2834109000279827
-3.308028788687994
-3.412654815492993
-3.264947483532982
-3.2711019556979917
-3.2957198443579747
-3.357264566007989
-3.3141832608529764
-3.2834109000279827
-3.277256427862973
-3.3141832608529764
-3.2403295948729705
-3.2218661783779687
-3.25263853920299
-3.2711019556979917
-3.277256427862973
-3.277256427862973
-3.2834109000279827
-3.277256427862973
-3.037232013427927
-2.7848986546628876
-3.1664759288929645
-3.2095572340479768
-3.2341751227079882
-3.24648406703798
-3.2280206505429785
-3.277256427862973
-3.2034027618829675
-3.049540957757918
-3.2957198443579747
-3.369573510338009
-3.24648406703798
-3.2218661783779687
-3.264947483532982
-3.7696142010630598
-3.449581648482997
-3.301874316522985
-3.277256427862973
-3.25263853920299
-3.2403295948729705
-3.154166984562973
-2.711044988682881
-3.018768596932925
-3.080313318582939
-3.141858040232953
-3.178784873222984
-3.184939345387966
-3.1664759288929645
-3.412654815492993
-3.9850207268380964
-3.4865084814730274
-3.2834109000279827
-3.258793011367972
-3.258793011367972
-3.258793011367972
-3.2711019556979917
-3.2711019556979917
-3.2403295948729705
-3.2280206505429785
-3.2403295948729705
-3.2218661783779687
-3.2218661783779687
-3.2280206505429785
-3.3326466773480057
-3.2834109000279827
-3.264947483532982
-3.24648406703798
-3.258793011367972
-3.2711019556979917
-3.2341751227079882
-3.191093817552976
-3.1357035680679433
-3.1110856794079322
-3.1110856794079322
-3.092622262912931
-3.1233946237379517
-3.1972482897179852
-3.4311182319879947
-3.474199537143008
-3.437272704153005
-3.338801149512988
-3.338801149512988
-3.3203377330179857
-3.301874316522985
-3.2834109000279827
-3.2711019556979917
-3.080313318582939
-2.723353933012873
-3.720378423743037
-3.6896060629180436
-3.338801149512988
-3.381882454668
-3.357264566007989
-3.3203377330179857
-3.3203377330179857
-3.3141832608529764
-3.3141832608529764
-3.3203377330179857
-3.301874316522985
-3.289565372192993
-3.289565372192993
-3.277256427862973
-3.264947483532982
-3.264947483532982
-3.2341751227079882
-3.24648406703798
-3.289565372192993
-3.3141832608529764
-3.301874316522985
-3.289565372192993
-3.289565372192993
-3.2834109000279827
-3.2834109000279827
-3.2957198443579747
-3.289565372192993
-3.2711019556979917
-3.258793011367972
-3.25263853920299
-3.2218661783779687
-3.2280206505429785
-3.289565372192993
-3.258793011367972
-3.25263853920299
-3.2280206505429785
-3.2403295948729705
-3.2218661783779687
-3.2034027618829675
-3.25263853920299
-3.215711706212987
-3.1972482897179852
-3.215711706212987
-3.1972482897179852
-3.184939345387966
-3.1972482897179852
-3.2280206505429785
-3.2034027618829675
-3.25263853920299
-3.2280206505429785
-3.2218661783779687
-3.2403295948729705
-3.2341751227079882
-3.25263853920299
-3.2403295948729705
-3.2403295948729705
-3.2957198443579747
-3.25263853920299
-3.215711706212987
-3.2280206505429785
-3.2834109000279827
-3.2218661783779687
-3.074158846417929
-3.308028788687994
-3.4188092876580036
-3.277256427862973
-3.2711019556979917
-3.277256427862973
-3.2711019556979917
-3.2711019556979917
-3.277256427862973
-3.264947483532982
-3.289565372192993
-3.1972482897179852
-3.3326466773480057
-3.2957198443579747
-3.308028788687994
-3.308028788687994
-3.2957198443579747
-3.2711019556979917
-3.2711019556979917
-3.2834109000279827
-3.2834109000279827
-3.2834109000279827
-3.2711019556979917
-3.2834109000279827
-3.2711019556979917
-3.2834109000279827
-3.3141832608529764
-3.277256427862973
-3.2711019556979917
-3.24648406703798
-3.2403295948729705
-3.258793011367972
-3.2341751227079882
-3.258793011367972
-3.25263853920299
-3.258793011367972
-3.2034027618829675
-3.215711706212987
-3.2095572340479768
-3.178784873222984
-3.1480125123979352
-3.191093817552976
-3.141858040232953
-3.24648406703798
-3.2403295948729705
-3.2034027618829675
-3.1972482897179852
-3.2034027618829675
-3.2218661783779687
-3.2341751227079882
-3.2218661783779687
-3.1972482897179852
-3.25263853920299
-3.191093817552976
-3.1664759288929645
-3.2834109000279827
-3.178784873222984
-3.215711706212987
-2.975687291777912
-2.446402685587851
-3.2341751227079882
-3.178784873222984
-3.1664759288929645
-3.172630401057975
-3.6280613412680296
-3.1295490959029335
-0.396963454642546
-1.7140204979527456
-2.680272627857888
-3.1295490959029335
-3.172630401057975
-3.191093817552976
-3.184939345387966
-3.2403295948729705
-3.24648406703798
-3.2218661783779687
-3.24648406703798
-3.24648406703798
-3.2280206505429785
-3.2403295948729705
-3.277256427862973
-3.258793011367972
-3.2095572340479768
-3.3511100938430074
-3.2711019556979917
-3.24648406703798
-3.264947483532982
-3.264947483532982
-3.2403295948729705
-3.25263853920299
-3.25263853920299
-3.25263853920299
-3.264947483532982
-3.25263853920299
-3.2403295948729705
-3.1233946237379517
-3.043386485592936
-3.1480125123979352
-3.2218661783779687
-3.24648406703798
-3.24648406703798
-3.2341751227079882
-3.2280206505429785
-3.25263853920299
-3.2711019556979917
-3.2834109000279827
-3.2957198443579747
-3.258793011367972
-3.24648406703798
-3.277256427862973
-3.2218661783779687
-3.400345871163002
-3.308028788687994
-3.258793011367972
-3.277256427862973
-3.289565372192993
-3.277256427862973
-3.2711019556979917
-3.2834109000279827
-3.264947483532982
-3.301874316522985
-3.289565372192993
-3.1110856794079322
-3.3203377330179857
-3.412654815492993
-3.308028788687994
-3.363419038172999
-3.375727982502991
-3.381882454668
-3.344955621677997
-3.363419038172999
-3.369573510338009
-3.3511100938430074
-3.357264566007989
-3.357264566007989
-3.326492205182996
-3.400345871163002
-3.375727982502991
-3.338801149512988
-2.994150708272913
-3.0864677907479487
-3.289565372192993
-3.2834109000279827
-3.308028788687994
-3.326492205182996
-3.289565372192993
-3.2957198443579747
-3.2957198443579747
-3.2834109000279827
-3.289565372192993
-3.2834109000279827
-3.264947483532982
-3.277256427862973
-3.597288980443037
-3.634215813433039
-3.375727982502991
-3.363419038172999
-3.3326466773480057
-3.3326466773480057
-3.308028788687994
-3.289565372192993
-3.24648406703798
-3.2218661783779687
-3.178784873222984
-3.1664759288929645
-3.1664759288929645
-3.25263853920299
-3.375727982502991
-3.548053203123014
-3.511126370133011
-3.412654815492993
-3.357264566007989
-3.3141832608529764
-3.3141832608529764
-3.301874316522985
-3.277256427862973
-3.258793011367972
-3.2403295948729705
-3.2403295948729705
-3.277256427862973
-3.0618499020879373
-2.674118155692878
-3.1295490959029335
-3.9480938938480934
-3.529589786628012
-3.308028788687994
-3.2834109000279827
-3.2711019556979917
-3.277256427862973
-3.2711019556979917
-3.264947483532982
-3.2957198443579747
-3.2711019556979917
-3.258793011367972
-3.24648406703798
-3.2403295948729705
-3.264947483532982
-3.308028788687994
-3.258793011367972
-3.2711019556979917
-3.264947483532982
-3.2341751227079882
-3.2341751227079882
-3.25263853920299
-3.258793011367972
-3.25263853920299
-2.944914930952919
-2.747971821672884
-2.9879962361079313
-3.2957198443579747
-3.172630401057975
-3.25263853920299
-3.1972482897179852
-3.2218661783779687
-3.7634597288980496
-3.6219068691030203
-3.289565372192993
-3.258793011367972
-3.2341751227079882
-3.2280206505429785
-3.2403295948729705
-3.2218661783779687
-3.2095572340479768
-3.2034027618829675
-3.172630401057975
-3.25263853920299
-3.25263853920299
-3.2711019556979917
-3.25263853920299
-3.264947483532982
-3.2711019556979917
-3.258793011367972
-3.25263853920299
-3.264947483532982
-3.264947483532982
-3.2711019556979917
-3.2711019556979917
-3.2403295948729705
-3.215711706212987
-3.375727982502991
-3.3511100938430074
-3.3203377330179857
-3.308028788687994
-3.308028788687994
-3.308028788687994
-3.357264566007989
-3.338801149512988
-3.3326466773480057
-3.326492205182996
-3.3203377330179857
-3.357264566007989
-3.344955621677997
-3.3203377330179857
-3.468045064977998
-3.394191398997992
-3.338801149512988
-3.308028788687994
-3.308028788687994
-3.2957198443579747
-3.289565372192993
-3.2957198443579747
-3.277256427862973
-3.289565372192993
-3.2834109000279827
-3.277256427862973
-3.2218661783779687
-3.1664759288929645
-3.074158846417929
-3.2095572340479768
-3.1233946237379517
-3.043386485592936
-3.092622262912931
-3.092622262912931
-3.2095572340479768
-3.215711706212987
-3.2280206505429785
-3.2341751227079882
-3.2218661783779687
-3.24648406703798
-3.2280206505429785
-3.215711706212987
-3.1664759288929645
-3.289565372192993
-3.25263853920299
-3.24648406703798
-3.2095572340479768
-3.258793011367972
-3.258793011367972
-3.25263853920299
-3.264947483532982
-3.24648406703798
-3.2711019556979917
-3.2341751227079882
-3.277256427862973
-3.277256427862973
-3.3203377330179857
-3.535744258793022
-3.338801149512988
-3.3141832608529764
-3.289565372192993
-3.301874316522985
-3.308028788687994
-3.0618499020879373
-2.5325652958978484
-3.326492205182996
-3.2711019556979917
-3.264947483532982
-3.301874316522985
-3.504971897968029
-3.868085755703077
-3.4865084814730274
-3.4311182319879947
-3.400345871163002
-3.4188092876580036
-3.4311182319879947
-3.437272704153005
-3.449581648482997
-3.406500343328012
-3.4188092876580036
-3.412654815492993
-3.394191398997992
-3.424963759823013
-3.394191398997992
-3.412654815492993
-3.548053203123014
-3.437272704153005
-3.406500343328012
-3.369573510338009
-3.363419038172999
-3.363419038172999
-3.375727982502991
-3.369573510338009
-3.369573510338009
-3.394191398997992
-3.363419038172999
-3.3203377330179857
-3.301874316522985
-3.24648406703798
-3.160321456727955
-3.3141832608529764
-3.25263853920299
-3.308028788687994
-3.308028788687994
-3.289565372192993
-3.277256427862973
-3.289565372192993
-3.277256427862973
-3.289565372192993
-3.277256427862973
-3.277256427862973
-3.301874316522985
-3.2711019556979917
-3.24648406703798
-3.338801149512988
-3.2834109000279827
-3.289565372192993
-3.264947483532982
-3.289565372192993
-3.289565372192993
-3.258793011367972
-3.264947483532982
-3.2957198443579747
-3.2834109000279827
-3.2957198443579747
-3.2834109000279827
-3.289565372192993
-3.049540957757918
-3.264947483532982
-3.400345871163002
-3.2957198443579747
-3.2834109000279827
-3.264947483532982
-3.277256427862973
-3.258793011367972
-3.25263853920299
-3.24648406703798
-3.2341751227079882
-3.24648406703798
-3.2341751227079882
-3.258793011367972
-3.2218661783779687
-3.289565372192993
-3.25263853920299
-3.2341751227079882
-3.25263853920299
-3.24648406703798
-3.24648406703798
-3.2218661783779687
-3.24648406703798
-3.258793011367972
-3.2711019556979917
-3.264947483532982
-3.277256427862973
-3.258793011367972
-3.2218661783779687
-3.326492205182996
-3.344955621677997
-3.301874316522985
-3.289565372192993
-3.1049312072429505
-3.2218661783779687
-3.289565372192993
-3.2957198443579747
-3.2834109000279827
-3.308028788687994
-3.258793011367972
-3.24648406703798
-3.154166984562973
-3.1049312072429505
-3.1480125123979352
-3.2834109000279827
-3.400345871163002
-3.4988174258030194
-3.4865084814730274
-3.437272704153005
-3.375727982502991
-3.3511100938430074
-3.3326466773480057
-3.3203377330179857
-3.301874316522985
-3.308028788687994
-3.338801149512988
-3.2341751227079882
-2.883370209302905
-2.907988097962916
-2.680272627857888
-3.191093817552976
-3.861931283538067
-3.6219068691030203
-3.357264566007989
-3.3511100938430074
-3.338801149512988
-3.2834109000279827
-3.326492205182996
-3.2957198443579747
-3.289565372192993
-3.338801149512988
-3.7696142010630598
-3.658833702093051
-3.394191398997992
-3.3203377330179857
-3.301874316522985
-3.289565372192993
-3.289565372192993
-3.3141832608529764
-3.2957198443579747
-3.289565372192993
-3.258793011367972
-3.258793011367972
-3.2711019556979917
-3.264947483532982
-3.0310775412629165
-3.184939345387966
-3.2341751227079882
-3.2218661783779687
-3.2341751227079882
-3.2218661783779687
-3.2095572340479768
-3.191093817552976
-3.2403295948729705
-3.258793011367972
-3.2280206505429785
-3.215711706212987
-3.215711706212987
-3.191093817552976
-3.215711706212987
-3.289565372192993
-3.264947483532982
-3.2280206505429785
-3.2218661783779687
-3.2218661783779687
-3.2034027618829675
-3.2095572340479768
-3.24648406703798
-3.1972482897179852
-3.24648406703798
-3.2403295948729705
-3.25263853920299
-3.24648406703798
-3.2218661783779687
-3.289565372192993
-3.2957198443579747
-3.24648406703798
-3.308028788687994
-3.301874316522985
-3.3203377330179857
-3.3141832608529764
-3.3141832608529764
-3.184939345387966
-3.394191398997992
-3.5234353144630304
-3.4434271763180146
-3.406500343328012
-3.363419038172999
-3.3511100938430074
-3.449581648482997
-3.4188092876580036
-3.4311182319879947
-3.400345871163002
-3.381882454668
-3.394191398997992
-3.412654815492993
-3.400345871163002
-3.394191398997992
-3.4188092876580036
-3.400345871163002
-3.406500343328012
-3.375727982502991
-3.38803692683301
-3.424963759823013
-3.357264566007989
-3.338801149512988
-3.338801149512988
-3.344955621677997
-3.3326466773480057
-3.3141832608529764
-3.308028788687994
-3.326492205182996
-3.344955621677997
-3.357264566007989
-3.357264566007989
-3.1110856794079322
-2.624882378372884
-3.357264566007989
-3.289565372192993
-3.3141832608529764
-3.2834109000279827
-3.308028788687994
-3.2834109000279827
-3.640370285598049
-3.935784949518073
-3.4434271763180146
-3.363419038172999
-3.369573510338009
-3.3511100938430074
-3.3326466773480057
-3.264947483532982
-3.3511100938430074
-3.344955621677997
-3.3326466773480057
-3.344955621677997
-3.3326466773480057
-3.3326466773480057
-3.338801149512988
-3.338801149512988
-3.3511100938430074
-3.172630401057975
-2.8095165433228986
-3.2034027618829675
-3.277256427862973
-3.289565372192993
-3.381882454668
-3.375727982502991
-3.935784949518073
-3.7696142010630598
-3.468045064977998
-3.412654815492993
-3.357264566007989
-3.369573510338009
-3.38803692683301
-3.38803692683301
-3.369573510338009
-3.369573510338009
-3.381882454668
-3.363419038172999
-3.3511100938430074
-3.4188092876580036
-3.406500343328012
-3.394191398997992
-3.3511100938430074
-3.3511100938430074
-3.357264566007989
-3.3511100938430074
-3.326492205182996
-3.308028788687994
-3.301874316522985
-3.3141832608529764
-3.3141832608529764
-3.2403295948729705
-3.2403295948729705
-3.3511100938430074
-3.2834109000279827
-3.277256427862973
-3.2834109000279827
-3.308028788687994
-3.2834109000279827
-3.258793011367972
-3.2341751227079882
-3.289565372192993
-3.2834109000279827
-3.277256427862973
-3.2957198443579747
-3.2280206505429785
-3.2095572340479768
-3.363419038172999
-3.289565372192993
-3.289565372192993
-3.2957198443579747
-3.264947483532982
-3.277256427862973
-3.277256427862973
-3.3141832608529764
-3.2957198443579747
-3.2711019556979917
-3.289565372192993
-3.2957198443579747
-3.289565372192993
-3.258793011367972
-3.3141832608529764
-3.3326466773480057
-3.154166984562973
-3.289565372192993
-3.412654815492993
-3.301874316522985
-3.2957198443579747
-3.258793011367972
-3.2834109000279827
-3.3203377330179857
-3.2957198443579747
-3.258793011367972
-3.24648406703798
-3.049540957757918
-2.8525978484779113
-3.141858040232953
-3.2280206505429785
-3.2957198443579747
-3.2834109000279827
-3.2834109000279827
-3.2957198443579747
-3.277256427862973
-3.2711019556979917
-3.24648406703798
-3.24648406703798
-3.2957198443579747
-3.2711019556979917
-3.406500343328012
-3.75730525673304
-3.437272704153005
-3.344955621677997
-3.3141832608529764
-3.308028788687994
-3.3511100938430074
-3.3326466773480057
-3.326492205182996
-3.289565372192993
-3.3141832608529764
-3.308028788687994
-3.326492205182996
-3.3326466773480057
-3.264947483532982
-3.25263853920299
-3.38803692683301
-3.326492205182996
-3.301874316522985
-3.326492205182996
-3.0126141247679152
-3.412654815492993
-3.424963759823013
-3.2711019556979917
-3.2218661783779687
-3.184939345387966
-3.160321456727955
-3.172630401057975
-3.2834109000279827
-3.424963759823013
-3.5234353144630304
-3.474199537143008
-3.4434271763180146
-3.1664759288929645
-2.821825487652891
-3.25263853920299
-3.664988174258033
-3.837313394878056
-3.381882454668
-3.381882454668
-3.3511100938430074
-3.3203377330179857
-3.3203377330179857
-3.2834109000279827
-3.375727982502991
-3.369573510338009
-3.326492205182996
-3.3141832608529764
-3.3141832608529764
-3.3326466773480057
-3.301874316522985
-3.2834109000279827
-3.277256427862973
-3.308028788687994
-3.2834109000279827
-3.264947483532982
-3.25263853920299
-3.154166984562973
-3.2834109000279827
-3.258793011367972
-3.24648406703798
-3.264947483532982
-3.2280206505429785
-3.2403295948729705
-3.2341751227079882
-3.2218661783779687
-3.2341751227079882
-3.2341751227079882
-3.2095572340479768
-3.1972482897179852
-3.160321456727955
-3.1480125123979352
-3.154166984562973
-3.141858040232953
-3.1233946237379517
-3.1049312072429505
-3.0864677907479487
-3.092622262912931
-3.080313318582939
-3.092622262912931
-3.080313318582939
-3.0680043742529195
-3.080313318582939
-3.0864677907479487
-3.1049312072429505
-3.0618499020879373
-3.117240151572942
-3.172630401057975
-3.141858040232953
-3.1110856794079322
-3.1233946237379517
-3.141858040232953
-3.154166984562973
-3.178784873222984
-3.2034027618829675
-3.2341751227079882
-3.25263853920299
-3.1233946237379517
-3.2280206505429785
-3.381882454668
-3.301874316522985
-3.400345871163002
-3.326492205182996
-3.308028788687994
-3.3203377330179857
-3.3203377330179857
-3.3141832608529764
-3.258793011367972
-3.3141832608529764
-3.258793011367972
-3.215711706212987
-3.2218661783779687
-3.2403295948729705
-3.2280206505429785
-3.1664759288929645
-3.301874316522985
-3.289565372192993
-3.2095572340479768
-3.160321456727955
-3.1664759288929645
-3.160321456727955
-3.178784873222984
-3.184939345387966
-3.160321456727955
-3.2034027618829675
-3.2034027618829675
-3.1664759288929645
-3.184939345387966
-3.1295490959029335
-3.301874316522985
-3.289565372192993
-3.289565372192993
-3.308028788687994
-3.2957198443579747
-3.301874316522985
-3.2957198443579747
-3.338801149512988
-3.3203377330179857
-3.3203377330179857
-3.308028788687994
-3.3326466773480057
-3.3511100938430074
-3.338801149512988
-3.4557361206480066
-3.406500343328012
-3.38803692683301
-3.363419038172999
-3.344955621677997
-3.344955621677997
-3.344955621677997
-3.357264566007989
-3.3203377330179857
-3.3326466773480057
-3.338801149512988
-3.3326466773480057
-3.0680043742529195
-2.674118155692878
-3.0618499020879373
-3.191093817552976
-3.215711706212987
-3.2341751227079882
-3.215711706212987
-3.560362147453033
-3.923476005188081
-3.412654815492993
-3.344955621677997
-3.326492205182996
-3.3203377330179857
-3.3141832608529764
-3.3511100938430074
-3.277256427862973
-3.369573510338009
-3.394191398997992
-3.3141832608529764
-3.344955621677997
-3.326492205182996
-3.3326466773480057
-3.3326466773480057
-3.3141832608529764
-3.369573510338009
-3.363419038172999
-3.3203377330179857
-3.338801149512988
-3.369573510338009
-3.3203377330179857
-3.25263853920299
-3.357264566007989
-3.369573510338009
-3.338801149512988
-3.3203377330179857
-3.301874316522985
-3.338801149512988
-3.3203377330179857
-3.289565372192993
-3.308028788687994
-3.326492205182996
-3.301874316522985
-3.264947483532982
-3.2711019556979917
-3.184939345387966
-3.3326466773480057
-3.215711706212987
-2.4402482134228407
-3.049540957757918
-3.25263853920299
-3.301874316522985
-3.2095572340479768
-3.2218661783779687
-3.2403295948729705
-3.381882454668
-3.9173215330230713
-3.4803540093080176
-3.3511100938430074
-3.0003051804379233
-2.711044988682881
-3.154166984562973
-3.184939345387966
-3.1972482897179852
-3.1972482897179852
-3.215711706212987
-3.2218661783779687
-3.2095572340479768
-3.2095572340479768
-3.2218661783779687
-3.2280206505429785
-3.178784873222984
-3.2218661783779687
-3.3203377330179857
-3.474199537143008
-3.277256427862973
-3.24648406703798
-3.2095572340479768
-3.215711706212987
-3.215711706212987
-3.2711019556979917
-3.2280206505429785
-3.2403295948729705
-3.2403295948729705
-3.2095572340479768
-3.191093817552976
-3.215711706212987
-3.1664759288929645
-3.4557361206480066
-3.363419038172999
-3.2711019556979917
-3.1664759288929645
-3.215711706212987
-3.2034027618829675
-3.160321456727955
-3.160321456727955
-3.1664759288929645
-3.1357035680679433
-3.1049312072429505
-3.080313318582939
-3.1110856794079322
-3.055695429922928
-3.1049312072429505
-3.338801149512988
-3.394191398997992
-3.3326466773480057
-3.301874316522985
-3.2711019556979917
-3.2341751227079882
-3.2218661783779687
-3.2095572340479768
-3.1049312072429505
-3.092622262912931
-3.3326466773480057
-3.2341751227079882
-3.2095572340479768
-3.141858040232953
-3.264947483532982
-3.215711706212987
-3.1664759288929645
-3.1972482897179852
-3.2034027618829675
-3.1664759288929645
-2.9572238752829105
-2.631036850537866
-3.055695429922928
-3.258793011367972
-3.812695506218072
-3.363419038172999
-3.2034027618829675
-3.1110856794079322
-3.178784873222984
-3.178784873222984
-3.154166984562973
-3.191093817552976
-3.1295490959029335
-3.141858040232953
-3.184939345387966
-3.172630401057975
-3.178784873222984
-3.184939345387966
-3.1972482897179852
-3.1664759288929645
-3.25263853920299
-3.215711706212987
-3.2711019556979917
-3.277256427862973
-3.24648406703798
-3.24648406703798
-3.25263853920299
-3.215711706212987
-3.24648406703798
-3.160321456727955
-3.178784873222984
-3.191093817552976
-3.1480125123979352
-3.117240151572942
-3.1480125123979352
-3.117240151572942
-3.160321456727955
-3.160321456727955
-3.1357035680679433
-3.154166984562973
-3.1357035680679433
-3.154166984562973
-3.172630401057975
-3.1664759288929645
-3.215711706212987
-3.1972482897179852
-3.2034027618829675
-3.1972482897179852
-3.215711706212987
-3.2218661783779687
-3.172630401057975
-3.2711019556979917
-3.2957198443579747
-3.289565372192993
-3.2834109000279827
-3.301874316522985
-3.308028788687994
-3.25263853920299
-3.277256427862973
-3.2957198443579747
-3.289565372192993
-3.25263853920299
-3.289565372192993
-3.2711019556979917
-3.092622262912931
-3.006459652602933
-3.344955621677997
-3.2957198443579747
-3.3326466773480057
-3.25263853920299
-3.258793011367972
-3.25263853920299
-3.24648406703798
-3.191093817552976
-3.2280206505429785
-3.2280206505429785
-3.191093817552976
-3.172630401057975
-3.191093817552976
-3.277256427862973
-3.2034027618829675
-3.2095572340479768
-2.766435238167886
-3.548053203123014
-3.849622339208075
-4.108110170138096
-4.126573586633098
-4.052719920653092
-4.028102031993082
-3.9911751990030773
-3.9173215330230713
-3.9604028381780845
-3.855776811373057
-3.9419394216830828
-3.9173215330230713
-3.874240227868059
-3.855776811373057
-3.855776811373057
-3.8311589227130733
-3.825004450548064
-3.7942320897230712
-3.8434678670430653
-3.861931283538067
-3.849622339208075
-3.8434678670430653
-3.8434678670430653
-3.788077617558061
-3.8188499783830547
-3.861931283538067
-3.837313394878056
-3.855776811373057
-3.868085755703077
-3.8311589227130733
-3.8188499783830547
-3.837313394878056
-3.868085755703077
-3.8434678670430653
-3.849622339208075
-3.855776811373057
-3.8311589227130733
-3.7634597288980496
-3.738841840238039
-3.634215813433039
-3.191093817552976
-3.615752396938038
-3.7080694794130453
-3.720378423743037
-3.7142239515780546
-3.7142239515780546
-3.825004450548064
-4.403524834058148
-3.9911751990030773
-3.7511507845680576
-3.7449963124030474
-3.812695506218072
-3.548053203123014
-3.160321456727955
-3.018768596932925
-3.0618499020879373
-3.018768596932925
-3.018768596932925
-3.0249230690979347
-2.9879962361079313
-3.006459652602933
-3.006459652602933
-3.0310775412629165
-3.0249230690979347
-2.96953281961293
-2.981841763942921
-2.932605986622927
-3.0864677907479487
-3.037232013427927
-3.055695429922928
-2.9879962361079313
-3.0618499020879373
-3.0987767350779407
-3.0680043742529195
-3.018768596932925
-3.043386485592936
-3.092622262912931
-3.049540957757918
-2.994150708272913
-3.172630401057975
-3.117240151572942
-3.1357035680679433
-3.1295490959029335
-3.1233946237379517
-3.0864677907479487
-3.080313318582939
-3.049540957757918
-3.1480125123979352
-3.1110856794079322
-3.0680043742529195
-3.1110856794079322
-3.1110856794079322
-3.074158846417929
-3.080313318582939
-3.0618499020879373
-3.1110856794079322
-3.092622262912931
-3.1480125123979352
-3.1049312072429505
-3.1110856794079322
-3.1357035680679433
-3.1110856794079322
-3.172630401057975
-3.326492205182996
-2.871061264972913
-3.1664759288929645
-3.160321456727955
-3.117240151572942
-3.037232013427927
-2.778744182497905
-3.0249230690979347
-3.154166984562973
-3.080313318582939
-3.141858040232953
-3.172630401057975
-3.1233946237379517
-3.0864677907479487
-3.1357035680679433
-3.1110856794079322
-3.141858040232953
-3.0864677907479487
-3.092622262912931
-3.055695429922928
-3.2403295948729705
-3.258793011367972
-3.2280206505429785
-3.3141832608529764
-3.357264566007989
-3.326492205182996
-3.2957198443579747
-3.24648406703798
-3.2341751227079882
-3.2218661783779687
-3.2280206505429785
-3.178784873222984
-3.2034027618829675
-3.184939345387966
-3.0864677907479487
-3.2403295948729705
-3.191093817552976
-3.1972482897179852
-3.191093817552976
-3.141858040232953
-3.160321456727955
-3.154166984562973
-3.141858040232953
-3.1357035680679433
-3.1480125123979352
-3.1295490959029335
-3.0987767350779407
-3.1664759288929645
-3.055695429922928
-3.172630401057975
-3.1480125123979352
-3.1295490959029335
-3.1049312072429505
-3.1110856794079322
-2.6987360443528896
-2.667963683527869
-3.0680043742529195
-3.092622262912931
-2.9633783474479203
-4.058874392818101
-4.5573866381831705
-3.38803692683301
-3.24648406703798
-3.160321456727955
-3.2095572340479768
-2.766435238167886
-2.704890516517872
-3.080313318582939
-3.2341751227079882
-3.184939345387966
-3.1295490959029335
-3.1049312072429505
-3.25263853920299
-3.2341751227079882
-3.141858040232953
-3.1049312072429505
-3.074158846417929
-3.0680043742529195
-3.092622262912931
-3.0680043742529195
-3.074158846417929
-3.074158846417929
-3.0864677907479487
-3.092622262912931
-3.0864677907479487
-3.080313318582939
-3.055695429922928
-3.049540957757918
-3.0618499020879373
-3.0680043742529195
-3.0618499020879373
-3.117240151572942
-3.1357035680679433
-3.1972482897179852
-3.1664759288929645
-3.160321456727955
-3.178784873222984
-3.178784873222984
-3.2034027618829675
-3.1972482897179852
-3.184939345387966
-3.191093817552976
-3.1480125123979352
-3.1480125123979352
-3.1664759288929645
-3.172630401057975
-3.191093817552976
-3.178784873222984
-3.178784873222984
-3.2034027618829675
-3.1664759288929645
-3.154166984562973
-2.8525978484779113
-2.674118155692878
-2.754126293837894
-2.4279392690928487
-2.704890516517872
-2.778744182497905
-3.529589786628012
-3.141858040232953
-3.2095572340479768
-3.178784873222984
-3.117240151572942
-3.1480125123979352
-3.154166984562973
-3.1295490959029335
-3.178784873222984
-3.172630401057975
-3.1357035680679433
-3.1110856794079322
-3.1233946237379517
-3.154166984562973
-3.141858040232953
-2.877215737137895
-2.624882378372884
-3.0126141247679152
-3.117240151572942
-3.1233946237379517
-3.141858040232953
-3.154166984562973
-3.1357035680679433
-3.1233946237379517
-3.2034027618829675
-3.184939345387966
-3.178784873222984
-3.178784873222984
-3.160321456727955
-3.2341751227079882
-3.4434271763180146
-3.2834109000279827
-3.2341751227079882
-3.1972482897179852
-3.2341751227079882
-3.1972482897179852
-3.2034027618829675
-3.24648406703798
-3.2341751227079882
-3.2403295948729705
-3.2280206505429785
-3.277256427862973
-3.277256427862973
-3.277256427862973
-3.5849800361130173
-3.4311182319879947
-3.289565372192993
-3.2957198443579747
-3.338801149512988
-3.264947483532982
-3.2403295948729705
-3.2341751227079882
-3.2403295948729705
-3.2095572340479768
-3.184939345387966
-3.277256427862973
-3.2095572340479768
-3.178784873222984
-3.184939345387966
-3.548053203123014
-2.8525978484779113
-3.1357035680679433
-2.8095165433228986
-2.4648661020828517
-3.597288980443037
-3.1664759288929645
-3.1480125123979352
-3.1480125123979352
-3.2034027618829675
-3.172630401057975
-3.634215813433039
-3.7942320897230712
-3.3326466773480057
-3.5418987309580316
-3.264947483532982
-3.258793011367972
-3.215711706212987
-3.191093817552976
-3.184939345387966
-3.2711019556979917
-3.184939345387966
-3.1972482897179852
-3.1972482897179852
-3.1972482897179852
-3.264947483532982
-3.2034027618829675
-2.9202970422929075
-2.8895246814679143
-3.184939345387966
-3.184939345387966
-3.2034027618829675
-3.1972482897179852
-3.2034027618829675
-3.2218661783779687
-3.1972482897179852
-3.24648406703798
-3.2095572340479768
-3.2095572340479768
-3.2280206505429785
-3.2403295948729705
-3.2034027618829675
-3.24648406703798
-3.2341751227079882
-3.2095572340479768
-3.2034027618829675
-3.1972482897179852
-3.1972482897179852
-3.1664759288929645
-3.184939345387966
-3.141858040232953
-3.178784873222984
-3.1972482897179852
-3.1664759288929645
-3.191093817552976
-3.1664759288929645
-3.2280206505429785
-3.215711706212987
-3.1357035680679433
-3.1972482897179852
-3.178784873222984
-3.172630401057975
-3.191093817552976
-3.191093817552976
-3.2218661783779687
-3.2341751227079882
-3.160321456727955
-3.3141832608529764
-3.0126141247679152
-3.1357035680679433
-3.1110856794079322
-3.141858040232953
-3.074158846417929
-3.141858040232953
-3.308028788687994
-3.369573510338009
-3.357264566007989
-3.2957198443579747
-3.25263853920299
-3.2711019556979917
-3.2218661783779687
-3.1972482897179852
-3.160321456727955
-3.191093817552976
-3.092622262912931
-3.2711019556979917
-3.2034027618829675
-3.178784873222984
-3.1972482897179852
-3.184939345387966
-3.191093817552976
-3.2341751227079882
-3.184939345387966
-3.1664759288929645
-3.1664759288929645
-3.1972482897179852
-3.2218661783779687
-3.2095572340479768
-3.178784873222984
-3.277256427862973
-3.24648406703798
-3.2280206505429785
-3.191093817552976
-3.191093817552976
-3.2403295948729705
-3.2280206505429785
-3.24648406703798
-3.258793011367972
-3.2280206505429785
-3.2403295948729705
-3.25263853920299
-3.2095572340479768
-3.2034027618829675
-3.25263853920299
-3.258793011367972
-3.2403295948729705
-3.2218661783779687
-3.2341751227079882
-3.2403295948729705
-3.154166984562973
-3.172630401057975
-3.2218661783779687
-3.2218661783779687
-3.1480125123979352
-3.184939345387966
-2.96953281961293
-2.587955545382853
-3.080313318582939
-3.184939345387966
-3.4557361206480066
-3.812695506218072
-3.3203377330179857
-3.2403295948729705
-3.2280206505429785
-3.2341751227079882
-3.2034027618829675
-3.215711706212987
-3.215711706212987
-3.2403295948729705
-3.2034027618829675
-3.191093817552976
-3.178784873222984
-3.2711019556979917
-3.2341751227079882
-3.2341751227079882
-3.2095572340479768
-3.289565372192993
-3.2218661783779687
-3.2403295948729705
-3.25263853920299
-3.2403295948729705
-3.24648406703798
-3.2280206505429785
-3.1972482897179852
-3.264947483532982
-3.178784873222984
-3.301874316522985
-3.24648406703798
-3.2218661783779687
-3.2341751227079882
-3.191093817552976
-3.2034027618829675
-3.258793011367972
-3.24648406703798
-3.2218661783779687
-3.24648406703798
-3.258793011367972
-3.215711706212987
-3.2280206505429785
-3.2218661783779687
-3.289565372192993
-3.24648406703798
-3.2280206505429785
-3.2403295948729705
-3.24648406703798
-3.2280206505429785
-3.2280206505429785
-3.2280206505429785
-3.1972482897179852
-3.2341751227079882
-3.215711706212987
-3.1972482897179852
-3.178784873222984
-3.191093817552976
-3.344955621677997
-3.289565372192993
-3.1972482897179852
-3.1664759288929645
-3.154166984562973
-3.0618499020879373
-3.018768596932925
-3.277256427862973
-2.575646601052861
-2.747971821672884
-3.1295490959029335
-3.080313318582939
-3.1110856794079322
-3.0618499020879373
-3.018768596932925
-3.117240151572942
-3.4434271763180146
-3.806541034053064
-3.3141832608529764
-3.2403295948729705
-3.191093817552976
-3.2218661783779687
-3.2280206505429785
-3.191093817552976
-3.154166984562973
-3.264947483532982
-3.2034027618829675
-3.154166984562973
-3.141858040232953
-3.258793011367972
-3.2095572340479768
-3.2034027618829675
-3.191093817552976
-3.2341751227079882
-3.2403295948729705
-3.2095572340479768
-3.2280206505429785
-3.2341751227079882
-3.2034027618829675
-3.2034027618829675
-3.172630401057975
-3.1972482897179852
-3.1664759288929645
-3.2957198443579747
-3.258793011367972
-3.2403295948729705
-3.191093817552976
-3.215711706212987
-3.25263853920299
-3.2034027618829675
-3.215711706212987
-3.2280206505429785
-3.264947483532982
-3.2403295948729705
-3.1972482897179852
-3.2034027618829675
-3.2034027618829675
-3.277256427862973
-3.2341751227079882
-3.2403295948729705
-3.2280206505429785
-3.2280206505429785
-3.2341751227079882
-3.043386485592936
-2.7848986546628876
-3.043386485592936
-3.1049312072429505
-3.1357035680679433
-3.1664759288929645
-3.191093817552976
-2.901833625797906
-2.8033620711578893
-3.8188499783830547
-3.381882454668
-3.25263853920299
-3.215711706212987
-3.2218661783779687
-3.264947483532982
-3.24648406703798
-3.2280206505429785
-3.2834109000279827
-3.2403295948729705
-3.264947483532982
-3.264947483532982
-3.4557361206480066
-3.923476005188081
-3.394191398997992
-3.258793011367972
-3.3326466773480057
-3.2957198443579747
-3.2957198443579747
-3.2711019556979917
-3.289565372192993
-3.264947483532982
-3.277256427862973
-3.24648406703798
-3.277256427862973
-3.264947483532982
-3.2095572340479768
-3.1972482897179852
-3.25263853920299
-3.277256427862973
-3.2280206505429785
-3.2341751227079882
-3.25263853920299
-3.264947483532982
-3.25263853920299
-3.2280206505429785
-3.2403295948729705
-3.2403295948729705
-3.24648406703798
-3.2834109000279827
-3.2403295948729705
-3.184939345387966
-3.2834109000279827
-3.2095572340479768
-3.154166984562973
-3.0864677907479487
-3.0864677907479487
-3.092622262912931
-3.264947483532982
-3.381882454668
-3.400345871163002
-3.38803692683301
-3.338801149512988
-3.301874316522985
-3.308028788687994
-3.1664759288929645
-3.1480125123979352
-3.301874316522985
-3.25263853920299
-3.215711706212987
-3.1972482897179852
-3.2095572340479768
-3.215711706212987
-3.215711706212987
-3.2095572340479768
-3.24648406703798
-3.2034027618829675
-3.172630401057975
-3.2218661783779687
-3.191093817552976
-3.289565372192993
-3.2280206505429785
-3.2280206505429785
-3.25263853920299
-3.24648406703798
-3.2034027618829675
-3.2218661783779687
-3.2341751227079882
-3.172630401057975
-3.25263853920299
-3.2403295948729705
-3.24648406703798
-3.2095572340479768
-3.2034027618829675
-3.24648406703798
-3.24648406703798
-3.160321456727955
-3.258793011367972
-3.2218661783779687
-3.2403295948729705
-3.2403295948729705
-3.2034027618829675
-3.215711706212987
-3.2095572340479768
-3.178784873222984
-3.2403295948729705
-3.2280206505429785
-3.1664759288929645
-3.172630401057975
-3.258793011367972
-3.2218661783779687
-3.1972482897179852
-3.215711706212987
-3.258793011367972
-3.2095572340479768
-3.178784873222984
-3.191093817552976
-3.154166984562973
-3.2034027618829675
-3.1972482897179852
-3.178784873222984
-3.141858040232953
-3.117240151572942
-2.9264515144579173
-2.4402482134228407
-3.338801149512988
-3.154166984562973
-3.277256427862973
-3.9419394216830828
-3.4188092876580036
-3.2403295948729705
-3.25263853920299
-3.24648406703798
-3.2403295948729705
-3.2280206505429785
-3.2095572340479768
-3.1972482897179852
-3.3203377330179857
-3.2341751227079882
-3.258793011367972
-3.2403295948729705
-3.258793011367972
-3.258793011367972
-3.258793011367972
-3.2280206505429785
-3.24648406703798
-3.2403295948729705
-3.2834109000279827
-3.24648406703798
-3.2341751227079882
-3.1664759288929645
-3.3141832608529764
-3.2834109000279827
-3.2711019556979917
-3.277256427862973
-3.258793011367972
-3.277256427862973
-3.2711019556979917
-3.264947483532982
-3.2218661783779687
-3.338801149512988
-3.24648406703798
-3.25263853920299
-3.2834109000279827
-3.24648406703798
-3.369573510338009
-3.3326466773480057
-3.2711019556979917
-3.289565372192993
-3.2834109000279827
-3.289565372192993
-3.277256427862973
-3.264947483532982
-3.2280206505429785
-3.24648406703798
-3.258793011367972
-3.2711019556979917
-3.2280206505429785
-3.1664759288929645
-3.1295490959029335
-3.25263853920299
-3.215711706212987
-3.215711706212987
