-2.4279392690928487
-2.372549019607845
-2.378703491772827
-2.347931130947833
-2.4525571577528327
-2.3971669082678284
-2.378703491772827
-2.064825411357801
-1.1478090587726528
-1.966353856717784
-2.3233132422878215
-3.3141832608529764
-3.5418987309580316
-2.655654739197877
-2.4525571577528327
-2.4587116299178424
-2.471020574247862
-2.3540856031128428
-2.4279392690928487
-2.409475852597848
-2.4217847969278394
-2.434093741257831
-2.477175046412844
-2.446402685587851
-2.446402685587851
-2.471020574247862
-2.477175046412844
-2.4402482134228407
-2.434093741257831
-2.434093741257831
-2.4279392690928487
-2.3663945474428347
-2.403321380432838
-2.507947407237865
-2.483329518577854
-2.378703491772827
-2.4402482134228407
-2.477175046412844
-2.4648661020828517
-2.4894839907428636
-2.507947407237865
-2.495638462907845
-2.477175046412844
-2.4525571577528327
-2.4587116299178424
-2.4217847969278394
-2.446402685587851
-2.5941100175478624
-2.526410823732866
-2.520256351567857
-2.4894839907428636
-2.4894839907428636
-2.544874240227868
-2.5387197680628573
-2.5325652958978484
-2.507947407237865
-2.544874240227868
-2.495638462907845
-2.575646601052861
-2.4648661020828517
-2.347931130947833
-2.612573434042864
-2.520256351567857
-2.477175046412844
-2.4587116299178424
-2.501792935072855
-2.4525571577528327
-2.5325652958978484
-2.4587116299178424
-2.3971669082678284
-2.446402685587851
-2.083288827852803
-2.409475852597848
-2.772589710332896
-1.9048091350677696
-1.91096360723278
-2.391012436102846
-2.446402685587851
-2.4648661020828517
-2.483329518577854
-2.4587116299178424
-2.477175046412844
-2.3848579639378364
-2.544874240227868
-2.544874240227868
-2.520256351567857
-2.501792935072855
-2.4648661020828517
-2.895679153632896
-3.24648406703798
-2.5941100175478624
-2.526410823732866
-2.507947407237865
-2.483329518577854
-2.501792935072855
-2.520256351567857
-2.446402685587851
-2.3848579639378364
-2.409475852597848
-2.495638462907845
-2.471020574247862
-2.471020574247862
-2.286386409297819
-2.077134355687793
-2.335622186617841
-2.4279392690928487
-2.4525571577528327
-2.4894839907428636
-2.471020574247862
-2.507947407237865
-2.4894839907428636
-2.471020574247862
-2.520256351567857
-2.483329518577854
-2.4402482134228407
-2.495638462907845
-2.5941100175478624
-3.258793011367972
-2.9633783474479203
-2.5941100175478624
-2.483329518577854
-2.5141018794028467
-2.477175046412844
-2.483329518577854
-2.501792935072855
-2.477175046412844
-2.483329518577854
-2.507947407237865
-2.501792935072855
-2.403321380432838
-1.326288751557686
-1.39398794537271
-2.3540856031128428
-2.471020574247862
-2.507947407237865
-2.507947407237865
-2.495638462907845
-2.901833625797906
-3.9296304773530633
-3.0003051804379233
-2.600264489712873
-2.526410823732866
-2.495638462907845
-2.434093741257831
-2.4279392690928487
-2.4156303247628297
-2.2309961598128147
-2.3417766587828237
-2.434093741257831
-2.4587116299178424
-2.4587116299178424
-2.495638462907845
-2.495638462907845
-2.4525571577528327
-2.563337656722869
-2.495638462907845
-2.55102871239285
-2.612573434042864
-2.4894839907428636
-2.5325652958978484
-2.704890516517872
-2.0217441062027888
-0.8831667556776225
-2.077134355687793
-2.858752320642893
-2.6064189618778553
-2.483329518577854
-2.5387197680628573
-2.563337656722869
-3.4988174258030194
-3.652679229928041
-2.68642710002287
-2.4894839907428636
-2.391012436102846
-2.544874240227868
-2.55102871239285
-2.5141018794028467
-2.483329518577854
-2.501792935072855
-2.4648661020828517
-2.4894839907428636
-2.4525571577528327
-2.4894839907428636
-2.5325652958978484
-2.526410823732866
-2.501792935072855
-2.544874240227868
-2.403321380432838
-2.3171587701228398
-2.471020574247862
-2.477175046412844
-2.501792935072855
-2.544874240227868
-2.5325652958978484
-2.5325652958978484
-2.563337656722869
-2.575646601052861
-2.5387197680628573
-2.520256351567857
-2.4894839907428636
-2.5325652958978484
-2.5141018794028467
-2.723353933012873
-2.6371913227028756
-2.544874240227868
-2.526410823732866
-2.55102871239285
-2.575646601052861
-2.5941100175478624
-2.55102871239285
-2.495638462907845
-2.471020574247862
-2.4894839907428636
-2.4648661020828517
-2.4217847969278394
-2.3540856031128428
-2.471020574247862
-2.55718318455786
-2.471020574247862
-2.471020574247862
-2.4648661020828517
-2.4894839907428636
-2.507947407237865
-2.477175046412844
-2.3663945474428347
-1.972508328882766
-2.5325652958978484
-2.711044988682881
-2.526410823732866
-2.4279392690928487
-2.3663945474428347
-2.581801073217871
-2.501792935072855
-2.477175046412844
-2.495638462907845
-2.483329518577854
-2.477175046412844
-2.501792935072855
-2.4525571577528327
-2.483329518577854
-2.471020574247862
-2.477175046412844
-2.477175046412844
-2.409475852597848
-2.3110042979578305
-2.471020574247862
-2.434093741257831
-2.403321380432838
-2.4279392690928487
-2.477175046412844
-2.4587116299178424
-2.1632969659978185
-1.215508252587677
-1.9971262175427773
-2.335622186617841
-2.483329518577854
-3.615752396938038
-3.4434271763180146
-2.4525571577528327
-2.5141018794028467
-2.520256351567857
-2.471020574247862
-2.495638462907845
-2.526410823732866
-2.507947407237865
-2.5325652958978484
-2.483329518577854
-2.4587116299178424
-2.507947407237865
-2.501792935072855
-2.4894839907428636
-2.4525571577528327
-2.360240075277825
-2.5387197680628573
-2.495638462907845
-2.4402482134228407
-2.477175046412844
-2.446402685587851
-2.446402685587851
-2.4648661020828517
-2.446402685587851
-2.4894839907428636
-2.4894839907428636
-2.4525571577528327
-2.501792935072855
-2.477175046412844
-2.360240075277825
-2.403321380432838
-2.501792935072855
-2.4402482134228407
-2.4525571577528327
-2.391012436102846
-2.403321380432838
-2.4525571577528327
-2.4587116299178424
-1.9478904402227823
-2.507947407237865
-2.8525978484779113
-2.507947407237865
-2.4648661020828517
-2.434093741257831
-2.378703491772827
-2.5694921288878514
-2.434093741257831
-2.4894839907428636
-2.477175046412844
-2.434093741257831
-2.4525571577528327
-2.4587116299178424
-2.483329518577854
-2.446402685587851
-2.3540856031128428
-2.434093741257831
-2.4894839907428636
-2.3971669082678284
-1.9478904402227823
-2.4156303247628297
-2.8033620711578893
-2.575646601052861
-2.446402685587851
-2.495638462907845
-2.4279392690928487
-2.3971669082678284
-2.391012436102846
-2.403321380432838
-2.4156303247628297
-2.3971669082678284
-2.4279392690928487
-2.4217847969278394
-2.261768520637808
-2.5694921288878514
-2.5141018794028467
-2.4587116299178424
-2.4648661020828517
-2.471020574247862
-2.4402482134228407
-2.4648661020828517
-2.4525571577528327
-2.471020574247862
-2.4525571577528327
-2.3848579639378364
-2.4156303247628297
-2.4279392690928487
-2.3110042979578305
-2.4894839907428636
-2.471020574247862
-2.391012436102846
-2.378703491772827
-2.347931130947833
-2.360240075277825
-2.3971669082678284
-2.372549019607845
-2.347931130947833
-2.378703491772827
-2.372549019607845
-2.3848579639378364
-2.378703491772827
-2.298695353627811
-2.6987360443528896
-2.544874240227868
-2.298695353627811
-2.2740774649678275
-2.3110042979578305
-2.298695353627811
-2.255614048472826
-2.2740774649678275
-2.329467714452832
-2.255614048472826
-2.249459576307816
-2.298695353627811
-2.3110042979578305
-2.120215660842805
-1.7078660257877356
-1.7878741639327511
-1.0862643371226666
-3.4988174258030194
-2.7418173495078744
-2.4525571577528327
-2.3663945474428347
-2.3110042979578305
-2.391012436102846
-2.360240075277825
-2.372549019607845
-2.4587116299178424
-2.4648661020828517
-2.360240075277825
-2.6064189618778553
-2.858752320642893
-2.507947407237865
-2.434093741257831
-2.4217847969278394
-2.378703491772827
-2.378703491772827
-2.378703491772827
-2.372549019607845
-2.3971669082678284
-2.403321380432838
-2.378703491772827
-2.3233132422878215
-2.329467714452832
-2.04020752269779
-2.403321380432838
-2.3171587701228398
-2.391012436102846
-2.483329518577854
-2.471020574247862
-2.483329518577854
-2.5941100175478624
-2.581801073217871
-2.5694921288878514
-2.520256351567857
-2.5141018794028467
-2.55102871239285
-2.526410823732866
-2.5141018794028467
-2.6618092113628857
-2.563337656722869
-2.55718318455786
-2.575646601052861
-2.5325652958978484
-2.5325652958978484
-2.507947407237865
-2.471020574247862
-2.507947407237865
-2.55102871239285
-2.544874240227868
-2.5694921288878514
-2.5387197680628573
-2.4217847969278394
-2.624882378372884
-2.6064189618778553
-2.600264489712873
-2.612573434042864
-2.55718318455786
-2.581801073217871
-2.55102871239285
-2.5387197680628573
-2.1632969659978185
-2.5387197680628573
-2.9510694031179288
-2.6618092113628857
-2.6371913227028756
-2.526410823732866
-2.55718318455786
-2.6618092113628857
-2.655654739197877
-2.5941100175478624
-2.55718318455786
-2.618727906207874
-2.6371913227028756
-2.631036850537866
-2.680272627857888
-2.649500267032867
-2.649500267032867
-2.587955545382853
-2.55102871239285
-2.520256351567857
-2.4894839907428636
-2.618727906207874
-2.55718318455786
-2.587955545382853
-2.581801073217871
-2.612573434042864
-2.5387197680628573
-2.5325652958978484
-2.6064189618778553
-2.5941100175478624
-2.6064189618778553
-2.5941100175478624
-2.5387197680628573
-2.5694921288878514
-2.600264489712873
-2.8279799598179
-2.667963683527869
-2.754126293837894
-2.6987360443528896
-2.655654739197877
-2.1263701330077875
-1.615548943312728
-2.0463619948628
-2.501792935072855
-2.581801073217871
-2.55718318455786
-2.55718318455786
-2.520256351567857
-3.560362147453033
-3.6834515907530343
-2.815671015487909
-2.624882378372884
-2.6064189618778553
-2.618727906207874
-2.563337656722869
-2.563337656722869
-2.5694921288878514
-2.6371913227028756
-2.2802319371328093
-1.363215584547689
-2.1079067165127863
-2.378703491772827
-2.3663945474428347
-2.797207598992907
-3.898858116528071
-3.412654815492993
-2.729508405177883
-2.55102871239285
-2.5694921288878514
-2.55718318455786
-2.5387197680628573
-2.5325652958978484
-2.520256351567857
-2.501792935072855
-2.471020574247862
-2.477175046412844
-2.446402685587851
-2.55718318455786
-2.544874240227868
-2.5387197680628573
-2.520256351567857
-2.507947407237865
-2.483329518577854
-2.5325652958978484
-2.544874240227868
-2.4894839907428636
-2.483329518577854
-2.5325652958978484
-2.575646601052861
-2.507947407237865
-2.471020574247862
-2.4402482134228407
-2.495638462907845
-2.5141018794028467
-2.5141018794028467
-2.526410823732866
-2.477175046412844
-2.4648661020828517
-2.495638462907845
-2.501792935072855
-2.4648661020828517
-2.4525571577528327
-2.4279392690928487
-2.471020574247862
-2.3848579639378364
-2.3171587701228398
-2.4525571577528327
-2.4279392690928487
-2.4402482134228407
-2.347931130947833
-2.304849825792821
-2.335622186617841
-2.3848579639378364
-2.335622186617841
-2.304849825792821
-2.3110042979578305
-2.335622186617841
-2.360240075277825
-2.304849825792821
-2.2679229928028177
-2.434093741257831
-2.2925408814628288
-1.972508328882766
-2.2802319371328093
-2.6925815721878803
-2.477175046412844
-2.335622186617841
-2.3233132422878215
-2.3663945474428347
-2.360240075277825
-2.335622186617841
-2.298695353627811
-2.3110042979578305
-2.200223798987821
-2.3971669082678284
-2.378703491772827
-2.3110042979578305
-2.2925408814628288
-2.3171587701228398
-2.329467714452832
-2.3233132422878215
-2.378703491772827
-2.391012436102846
-2.329467714452832
-2.391012436102846
-2.3971669082678284
-2.329467714452832
-2.212532743317813
-2.403321380432838
-2.3971669082678284
-2.3971669082678284
-2.335622186617841
-2.3663945474428347
-2.391012436102846
-2.3971669082678284
-2.360240075277825
-2.4217847969278394
-2.409475852597848
-2.3848579639378364
-2.434093741257831
-2.446402685587851
-2.3417766587828237
-2.212532743317813
-2.372549019607845
-2.3971669082678284
-2.4402482134228407
-2.434093741257831
-2.4279392690928487
-2.372549019607845
-2.3971669082678284
-2.3663945474428347
-2.391012436102846
-2.4525571577528327
-2.403321380432838
-2.298695353627811
-2.3971669082678284
-2.5941100175478624
-2.55102871239285
-2.471020574247862
-2.4894839907428636
-2.1263701330077875
-1.1293456422776516
-2.624882378372884
-3.664988174258033
-2.8033620711578893
-3.0618499020879373
-7.129956003153526
-6.182167289743385
-3.800386561888053
-2.7848986546628876
-2.6371913227028756
-2.655654739197877
-2.587955545382853
-2.55102871239285
-2.495638462907845
-2.4525571577528327
-2.477175046412844
-2.4648661020828517
-2.391012436102846
-2.434093741257831
-2.4279392690928487
-2.4402482134228407
-2.403321380432838
-2.335622186617841
-2.2740774649678275
-2.501792935072855
-2.3848579639378364
-2.477175046412844
-2.4279392690928487
-2.378703491772827
-2.347931130947833
-2.329467714452832
-2.2802319371328093
-2.2371506319778245
-2.261768520637808
-2.298695353627811
-2.335622186617841
-2.2309961598128147
-2.1448335495027893
-2.4217847969278394
-2.3110042979578305
-2.360240075277825
-2.3233132422878215
-2.298695353627811
-2.304849825792821
-2.347931130947833
-2.347931130947833
-2.3171587701228398
-2.347931130947833
-2.409475852597848
-2.372549019607845
-2.372549019607845
-2.2371506319778245
-2.501792935072855
-2.501792935072855
-2.4156303247628297
-2.3848579639378364
-2.434093741257831
-2.4156303247628297
-2.378703491772827
-2.372549019607845
-2.391012436102846
-2.3663945474428347
-2.3171587701228398
-1.9601993845527748
-2.329467714452832
-2.3233132422878215
-1.4432237226927047
-2.1079067165127863
-2.261768520637808
-2.3233132422878215
-2.3110042979578305
-2.2802319371328093
-2.255614048472826
-2.335622186617841
-2.372549019607845
-2.304849825792821
-2.3110042979578305
-2.286386409297819
-2.2679229928028177
-2.446402685587851
-3.437272704153005
-2.858752320642893
-2.434093741257831
-2.3663945474428347
-2.347931130947833
-2.2925408814628288
-2.3233132422878215
-2.3233132422878215
-2.3110042979578305
-2.391012436102846
-2.3663945474428347
-2.329467714452832
-2.2925408814628288
-2.212532743317813
-1.9417359680577726
-2.2433051041428067
-2.261768520637808
-2.261768520637808
-2.2925408814628288
-2.298695353627811
-2.212532743317813
-2.255614048472826
-2.298695353627811
-2.249459576307816
-2.261768520637808
-2.3110042979578305
-2.3540856031128428
-2.261768520637808
-2.194069326822812
-2.4648661020828517
-2.3971669082678284
-2.360240075277825
-2.3233132422878215
-2.335622186617841
-2.391012436102846
-2.347931130947833
-2.3417766587828237
-2.3848579639378364
-2.360240075277825
-2.360240075277825
-2.335622186617841
-1.9048091350677696
-0.6185244525825918
-2.1632969659978185
-2.286386409297819
-2.304849825792821
-2.3417766587828237
-2.575646601052861
-3.75730525673304
-3.006459652602933
-2.434093741257831
-2.3848579639378364
-2.372549019607845
-2.372549019607845
-2.391012436102846
-2.372549019607845
-2.304849825792821
-2.335622186617841
-2.286386409297819
-2.2371506319778245
-2.1632969659978185
-2.187914854657802
-2.1263701330077875
-2.1079067165127863
-2.009435161872797
-1.9786628010477763
-2.015589634037779
-1.990971745377768
-2.04020752269779
-2.083288827852803
-1.954044912387765
-1.8432644134177558
-2.1079067165127863
-2.0955977721827947
-2.077134355687793
-2.138679077337807
-2.150988021667799
-2.1079067165127863
-2.0340530505327803
-1.9971262175427773
-1.9786628010477763
-1.9848172732127856
-2.052516467027782
-2.052516467027782
-2.0955977721827947
-2.261768520637808
-2.1571424938328088
-2.04020752269779
-2.0463619948628
-2.0955977721827947
-2.114061188677796
-2.1448335495027893
-2.1632969659978185
-2.070979883522784
-1.9601993845527748
-1.0924188092876486
-0.44619923196256844
-1.4062968897027015
-2.052516467027782
-1.7755652196027594
-1.91096360723278
-1.861727829912757
-1.9478904402227823
-3.043386485592936
-3.0249230690979347
-2.2309961598128147
-2.138679077337807
-2.1694514381628007
-2.1448335495027893
-2.175605910327811
-2.200223798987821
-2.187914854657802
-2.212532743317813
-1.9786628010477763
-2.120215660842805
-2.212532743317813
-2.335622186617841
-2.3233132422878215
-2.2740774649678275
-2.2433051041428067
-2.3663945474428347
-2.304849825792821
-2.2925408814628288
-2.347931130947833
-2.378703491772827
-2.372549019607845
-2.3540856031128428
-2.4648661020828517
-2.612573434042864
-2.434093741257831
-2.4217847969278394
-2.471020574247862
-2.446402685587851
-2.4279392690928487
-2.446402685587851
-2.446402685587851
-2.4217847969278394
-2.347931130947833
-2.372549019607845
-2.446402685587851
-2.4279392690928487
-2.1017522443478045
-1.2647440299076718
-2.2679229928028177
-2.7848986546628876
-2.4648661020828517
-2.409475852597848
-2.409475852597848
-2.434093741257831
-2.372549019607845
-2.3171587701228398
-2.378703491772827
-2.3540856031128428
-2.372549019607845
-2.347931130947833
-2.55718318455786
-3.0249230690979347
-2.5694921288878514
-2.200223798987821
-1.954044912387765
-2.649500267032867
-2.587955545382853
-2.4587116299178424
-1.9786628010477763
-0.6985325907276074
-2.175605910327811
-3.1664759288929645
-3.5911345082780266
-2.587955545382853
-2.2740774649678275
-2.2679229928028177
-2.409475852597848
-2.391012436102846
-2.347931130947833
-2.3171587701228398
-2.3110042979578305
-2.304849825792821
-2.3171587701228398
-2.3540856031128428
-2.3540856031128428
-2.347931130947833
-2.3417766587828237
-2.3417766587828237
-2.329467714452832
-2.3171587701228398
-2.501792935072855
-2.4217847969278394
-2.3848579639378364
-2.3848579639378364
-2.378703491772827
-2.409475852597848
-2.3417766587828237
-2.347931130947833
-2.434093741257831
-2.4402482134228407
-2.3971669082678284
-2.434093741257831
-2.403321380432838
-2.2925408814628288
-2.587955545382853
-2.4648661020828517
-2.4587116299178424
-2.495638462907845
-2.483329518577854
-2.55102871239285
-2.563337656722869
-2.4525571577528327
-2.434093741257831
-2.483329518577854
-2.483329518577854
-2.434093741257831
-2.3540856031128428
-2.3171587701228398
-2.495638462907845
-2.501792935072855
-2.4217847969278394
-2.372549019607845
-2.507947407237865
-2.347931130947833
-2.409475852597848
-2.3540856031128428
-1.9417359680577726
-2.483329518577854
-2.7848986546628876
-2.446402685587851
-2.409475852597848
-2.360240075277825
-2.138679077337807
-2.4894839907428636
-2.711044988682881
-2.495638462907845
-2.501792935072855
-2.4156303247628297
-2.4648661020828517
-2.495638462907845
-2.4894839907428636
-2.477175046412844
-2.477175046412844
-2.4894839907428636
-2.483329518577854
-2.434093741257831
-2.4894839907428636
-2.5141018794028467
-2.4525571577528327
-2.4525571577528327
-2.477175046412844
-2.4894839907428636
-2.4587116299178424
-2.4894839907428636
-2.5141018794028467
-2.495638462907845
-2.4648661020828517
-2.4894839907428636
-2.4402482134228407
-2.446402685587851
-2.4525571577528327
-2.507947407237865
-2.4587116299178424
-2.495638462907845
-2.495638462907845
-2.4156303247628297
-2.3540856031128428
-2.477175046412844
-2.483329518577854
-2.446402685587851
-2.403321380432838
-2.409475852597848
-2.4217847969278394
-2.4156303247628297
-2.360240075277825
-2.483329518577854
-2.4525571577528327
-2.4402482134228407
-2.4156303247628297
-2.403321380432838
-2.4217847969278394
-2.4156303247628297
-2.4217847969278394
-2.446402685587851
-2.4279392690928487
-2.360240075277825
-2.4279392690928487
-2.3848579639378364
-2.2679229928028177
-2.507947407237865
-2.1448335495027893
-0.7108415350575992
-2.255614048472826
-2.360240075277825
-2.391012436102846
-2.391012436102846
-2.4156303247628297
-2.8095165433228986
-3.9050125886930798
-2.994150708272913
-2.5141018794028467
-2.471020574247862
-2.501792935072855
-2.618727906207874
-2.507947407237865
-2.403321380432838
-2.4217847969278394
-2.4217847969278394
-2.3971669082678284
-2.347931130947833
-2.360240075277825
-2.4156303247628297
-2.403321380432838
-2.3848579639378364
-2.446402685587851
-2.4402482134228407
-2.298695353627811
-2.2925408814628288
-2.378703491772827
-2.360240075277825
-2.3848579639378364
-2.4217847969278394
-2.409475852597848
-2.3971669082678284
-2.372549019607845
-2.347931130947833
-2.409475852597848
-2.3663945474428347
-2.3540856031128428
-2.372549019607845
-2.3540856031128428
-2.3417766587828237
-2.4525571577528327
-2.4156303247628297
-2.403321380432838
-2.4279392690928487
-2.409475852597848
-2.3110042979578305
-2.409475852597848
-2.3848579639378364
-2.3417766587828237
-2.347931130947833
-2.409475852597848
-2.409475852597848
-2.3110042979578305
-2.3417766587828237
-2.4894839907428636
-2.4217847969278394
-2.378703491772827
-2.391012436102846
-2.4279392690928487
-2.4156303247628297
-2.378703491772827
-2.372549019607845
-2.0217441062027888
-2.335622186617841
-2.7418173495078744
-2.5141018794028467
-2.3417766587828237
-2.261768520637808
-2.471020574247862
-2.4279392690928487
-2.446402685587851
-2.403321380432838
-2.3971669082678284
-2.4279392690928487
-2.409475852597848
-2.3848579639378364
-2.403321380432838
-2.446402685587851
-2.4279392690928487
-2.3971669082678284
-2.3971669082678284
-2.255614048472826
-2.4217847969278394
-2.409475852597848
-2.4648661020828517
-2.403321380432838
-2.329467714452832
-2.378703491772827
-2.4279392690928487
-2.4156303247628297
-2.434093741257831
-2.409475852597848
-2.3848579639378364
-2.4156303247628297
-2.378703491772827
-2.3233132422878215
-2.4894839907428636
-2.434093741257831
-2.403321380432838
-2.403321380432838
-2.3540856031128428
-2.391012436102846
-2.360240075277825
-2.335622186617841
-2.3848579639378364
-2.3663945474428347
-2.3110042979578305
-2.286386409297819
-2.2433051041428067
-2.2063782711528033
-2.249459576307816
-2.2802319371328093
-2.2371506319778245
-2.200223798987821
-2.212532743317813
-2.175605910327811
-2.1817603824928202
-2.212532743317813
-2.187914854657802
-2.138679077337807
-1.7878741639327511
-0.49543500928256323
-2.015589634037779
-2.1017522443478045
-2.212532743317813
-1.9048091350677696
-1.9048091350677696
-2.471020574247862
-2.2433051041428067
-2.175605910327811
-2.187914854657802
-2.255614048472826
-3.3326466773480057
-3.154166984562973
-2.378703491772827
-2.261768520637808
-2.255614048472826
-2.249459576307816
-2.212532743317813
-2.403321380432838
-2.2802319371328093
-2.249459576307816
-2.286386409297819
-2.304849825792821
-2.255614048472826
-2.2679229928028177
-2.304849825792821
-2.2802319371328093
-2.2925408814628288
-2.335622186617841
-2.335622186617841
-2.2433051041428067
-2.2186872154828228
-2.409475852597848
-2.3233132422878215
-2.3417766587828237
-2.3417766587828237
-2.3848579639378364
-2.4217847969278394
-2.4279392690928487
-2.434093741257831
-2.4402482134228407
-2.3663945474428347
-2.4648661020828517
-2.4279392690928487
-2.3233132422878215
-1.8740367742427766
-1.7447928587777384
-2.286386409297819
-2.3848579639378364
-2.372549019607845
-2.3540856031128428
-2.378703491772827
-2.4156303247628297
-2.409475852597848
-2.3971669082678284
-2.409475852597848
-2.391012436102846
-2.3848579639378364
-2.304849825792821
-2.704890516517872
-3.141858040232953
-2.6433457948678853
-2.4279392690928487
-2.4525571577528327
-2.495638462907845
-2.409475852597848
-2.3971669082678284
-1.9971262175427773
-2.667963683527869
-2.667963683527869
-2.471020574247862
-2.409475852597848
-2.501792935072855
-2.2740774649678275
-1.757101803107758
-2.298695353627811
-2.446402685587851
-2.434093741257831
-2.4402482134228407
-2.471020574247862
-2.446402685587851
-2.4402482134228407
-2.4156303247628297
-2.55718318455786
-2.483329518577854
-2.477175046412844
-2.4648661020828517
-2.612573434042864
-3.381882454668
-2.944914930952919
-2.649500267032867
-2.655654739197877
-2.6433457948678853
-2.624882378372884
-2.680272627857888
-2.729508405177883
-2.711044988682881
-2.747971821672884
-2.7171994608478913
-2.711044988682881
-2.747971821672884
-2.5694921288878514
-1.8801912464077586
-2.212532743317813
-2.526410823732866
-2.5387197680628573
-2.501792935072855
-2.631036850537866
-2.6064189618778553
-2.563337656722869
-2.55718318455786
-2.5694921288878514
-2.5325652958978484
-2.520256351567857
-2.55102871239285
-2.544874240227868
-3.0003051804379233
-3.037232013427927
-2.667963683527869
-2.55718318455786
-2.581801073217871
-2.575646601052861
-1.5540042216627135
-1.7263294422827367
-2.4156303247628297
-2.587955545382853
-2.618727906207874
-2.5941100175478624
-2.667963683527869
-3.1357035680679433
-3.8927036443630603
-3.117240151572942
-2.797207598992907
-2.704890516517872
-2.68642710002287
-2.655654739197877
-2.6618092113628857
-2.680272627857888
-2.7171994608478913
-2.631036850537866
-2.6925815721878803
-2.667963683527869
-2.575646601052861
-2.563337656722869
-2.4156303247628297
-2.544874240227868
-2.526410823732866
-2.501792935072855
-2.520256351567857
-2.483329518577854
-2.477175046412844
-2.507947407237865
-2.483329518577854
-2.4402482134228407
-2.5325652958978484
-2.495638462907845
-2.4894839907428636
-2.495638462907845
-2.3233132422878215
-2.409475852597848
-2.5387197680628573
-2.471020574247862
-2.477175046412844
-2.409475852597848
-2.471020574247862
-2.495638462907845
-2.4525571577528327
-2.507947407237865
-2.4402482134228407
-2.446402685587851
-2.477175046412844
-2.4894839907428636
-2.477175046412844
-2.5694921288878514
-2.575646601052861
-2.5141018794028467
-2.55102871239285
-2.483329518577854
-2.495638462907845
-2.507947407237865
-2.5141018794028467
-2.544874240227868
-2.581801073217871
-2.5387197680628573
-2.55102871239285
-2.1448335495027893
-2.3971669082678284
-2.261768520637808
-2.194069326822812
-2.4279392690928487
-2.4279392690928487
-2.4217847969278394
-2.507947407237865
-2.526410823732866
-2.55102871239285
-2.5325652958978484
-2.5141018794028467
-2.501792935072855
-2.477175046412844
-2.526410823732866
-2.624882378372884
-2.9879962361079313
-2.96953281961293
-2.655654739197877
-2.5325652958978484
-2.507947407237865
-2.563337656722869
-2.526410823732866
-2.5387197680628573
-2.5325652958978484
-2.5141018794028467
-2.4648661020828517
-2.4648661020828517
-2.5141018794028467
-2.507947407237865
-2.372549019607845
-2.544874240227868
-2.507947407237865
-2.501792935072855
-2.483329518577854
-2.446402685587851
-2.501792935072855
-2.483329518577854
-2.4587116299178424
-2.477175046412844
-2.4587116299178424
-2.4217847969278394
-2.477175046412844
-2.446402685587851
-2.372549019607845
-2.526410823732866
-2.4587116299178424
-2.3663945474428347
-2.3971669082678284
-2.360240075277825
-2.347931130947833
-2.3110042979578305
-2.286386409297819
-2.261768520637808
-2.224841687647805
-2.1817603824928202
-2.194069326822812
-2.2309961598128147
-1.7940286360977609
-0.7046870628925892
-1.5540042216627135
-1.990971745377768
-2.2309961598128147
-3.449581648482997
-3.160321456727955
-2.347931130947833
-2.200223798987821
-2.187914854657802
-2.2309961598128147
-2.2433051041428067
-2.249459576307816
-2.224841687647805
-2.2679229928028177
-2.5141018794028467
-2.4217847969278394
-2.3171587701228398
-2.347931130947833
-2.3540856031128428
-2.2925408814628288
-2.2802319371328093
-2.3417766587828237
-2.3233132422878215
-2.347931130947833
-2.4156303247628297
-2.3663945474428347
-2.409475852597848
-2.3971669082678284
-2.3110042979578305
-2.3417766587828237
-2.3233132422878215
-2.3971669082678284
-2.3971669082678284
-2.3540856031128428
-2.360240075277825
-2.4156303247628297
-2.3971669082678284
-2.286386409297819
-2.2925408814628288
-2.335622186617841
-2.403321380432838
-2.329467714452832
-2.2679229928028177
-2.4648661020828517
-2.434093741257831
-2.298695353627811
-2.2925408814628288
-2.3110042979578305
-2.360240075277825
-2.335622186617841
-2.347931130947833
-2.3540856031128428
-2.335622186617841
-2.3233132422878215
-2.4217847969278394
-2.372549019607845
-2.0278985783677985
-1.9294270237277809
-2.2925408814628288
-2.3540856031128428
-2.4279392690928487
-2.372549019607845
-2.372549019607845
-2.015589634037779
-2.329467714452832
-2.778744182497905
-2.507947407237865
-2.409475852597848
-2.563337656722869
-2.471020574247862
-2.8649067928079033
-3.517280842298021
-2.797207598992907
-2.587955545382853
-2.563337656722869
-1.689402609292734
-1.689402609292734
-2.1694514381628007
-2.6064189618778553
-2.4279392690928487
-2.409475852597848
-2.471020574247862
-2.5941100175478624
-3.7942320897230712
-3.344955621677997
-2.2925408814628288
-2.4587116299178424
-2.600264489712873
-2.544874240227868
-2.526410823732866
-2.5387197680628573
-2.4587116299178424
-2.501792935072855
-2.575646601052861
-2.55102871239285
-2.575646601052861
-2.5941100175478624
-2.581801073217871
-2.477175046412844
-2.575646601052861
-2.587955545382853
-2.5387197680628573
-2.544874240227868
-2.477175046412844
-2.4648661020828517
-2.483329518577854
-2.477175046412844
-2.4648661020828517
-2.5325652958978484
-2.495638462907845
-2.4525571577528327
-2.4587116299178424
-2.372549019607845
-1.8678823020777668
-2.1571424938328088
-2.329467714452832
-2.3663945474428347
-2.409475852597848
-2.372549019607845
-2.403321380432838
-2.360240075277825
-2.064825411357801
-1.8432644134177558
-3.375727982502991
-2.680272627857888
-2.4525571577528327
-2.4402482134228407
-2.871061264972913
-2.994150708272913
-2.5325652958978484
-2.372549019607845
-2.4217847969278394
-2.4402482134228407
-2.4217847969278394
-2.446402685587851
-2.4894839907428636
-2.4894839907428636
-2.4525571577528327
-2.3663945474428347
-2.4279392690928487
-2.434093741257831
-2.298695353627811
-2.526410823732866
-2.495638462907845
-2.4402482134228407
-2.4217847969278394
-2.391012436102846
-2.378703491772827
-2.4402482134228407
-2.4894839907428636
-2.4894839907428636
-2.4156303247628297
-2.3663945474428347
-2.335622186617841
-2.2679229928028177
-2.249459576307816
-2.0340530505327803
-2.2309961598128147
-2.2433051041428067
-2.335622186617841
-2.329467714452832
-2.3971669082678284
-2.434093741257831
-2.3848579639378364
-2.347931130947833
-2.3171587701228398
-2.3233132422878215
-2.3540856031128428
-2.3171587701228398
-2.3233132422878215
-2.4587116299178424
-2.4279392690928487
-2.378703491772827
-2.378703491772827
-2.329467714452832
-2.372549019607845
-2.3848579639378364
-2.372549019607845
-2.3971669082678284
-2.3971669082678284
-2.3848579639378364
-2.409475852597848
-2.3848579639378364
-2.3171587701228398
-2.3971669082678284
-2.120215660842805
-2.3971669082678284
-2.680272627857888
-2.409475852597848
-2.347931130947833
-2.3171587701228398
-2.2925408814628288
-2.2925408814628288
-2.329467714452832
-2.261768520637808
-2.2679229928028177
-2.255614048472826
-2.2309961598128147
-2.114061188677796
-2.3540856031128428
-2.2925408814628288
-2.261768520637808
-2.2433051041428067
-2.2802319371328093
-2.261768520637808
-2.261768520637808
-2.286386409297819
-2.286386409297819
-2.249459576307816
-2.2371506319778245
-2.335622186617841
-2.286386409297819
-2.0586709391927913
-2.1817603824928202
-2.2740774649678275
-2.2802319371328093
-2.261768520637808
-2.2802319371328093
-2.249459576307816
-2.255614048472826
-2.298695353627811
-2.298695353627811
-2.261768520637808
-2.298695353627811
-2.3171587701228398
-2.2309961598128147
-2.434093741257831
-2.520256351567857
-2.360240075277825
-2.329467714452832
-2.3233132422878215
-2.3233132422878215
-2.2925408814628288
-2.3110042979578305
-2.360240075277825
-2.3540856031128428
-2.3417766587828237
-2.3233132422878215
-2.372549019607845
-2.360240075277825
-2.304849825792821
-2.3971669082678284
-2.3971669082678284
-2.1017522443478045
-1.178581419597674
-1.8801912464077586
-2.2186872154828228
-2.3110042979578305
-2.507947407237865
-3.6834515907530343
-3.0987767350779407
-2.520256351567857
-2.378703491772827
-2.3540856031128428
-2.3417766587828237
-2.304849825792821
-2.446402685587851
-2.4279392690928487
-2.3417766587828237
-2.347931130947833
-2.3663945474428347
-2.378703491772827
-2.360240075277825
-2.409475852597848
-2.4279392690928487
-2.3971669082678284
-2.391012436102846
-2.403321380432838
-2.2925408814628288
-2.298695353627811
-2.471020574247862
-2.4156303247628297
-1.966353856717784
-2.4525571577528327
-2.7910531268278973
-2.501792935072855
-2.4217847969278394
-2.391012436102846
-2.3971669082678284
-2.391012436102846
-2.347931130947833
-2.4648661020828517
-2.347931130947833
-2.3233132422878215
-2.5387197680628573
-2.446402685587851
-2.403321380432838
-2.360240075277825
-2.391012436102846
-2.4217847969278394
-2.372549019607845
-2.3663945474428347
-2.372549019607845
-2.3417766587828237
-2.335622186617841
-2.4156303247628297
-2.347931130947833
-2.2433051041428067
-2.471020574247862
-2.4525571577528327
-2.3971669082678284
-2.4279392690928487
-2.4279392690928487
-2.3971669082678284
-2.378703491772827
-2.403321380432838
-2.360240075277825
-2.003280689707787
-2.329467714452832
-2.735662877342893
-2.4279392690928487
-2.298695353627811
-2.544874240227868
-2.520256351567857
-2.4894839907428636
-2.4587116299178424
-2.3971669082678284
-2.378703491772827
-2.372549019607845
-2.378703491772827
-2.347931130947833
-2.409475852597848
-2.360240075277825
-2.329467714452832
-2.329467714452832
-2.3848579639378364
-2.587955545382853
-2.477175046412844
-2.4279392690928487
-2.3663945474428347
-2.3110042979578305
-2.304849825792821
-2.391012436102846
-2.378703491772827
-2.329467714452832
-2.4156303247628297
-2.495638462907845
-2.249459576307816
-2.3233132422878215
-2.3171587701228398
-2.175605910327811
-2.329467714452832
-2.3110042979578305
-2.4156303247628297
-2.4156303247628297
-2.3171587701228398
-2.3540856031128428
-2.391012436102846
-2.304849825792821
-2.2802319371328093
-2.2925408814628288
-2.286386409297819
-2.360240075277825
-2.2802319371328093
-2.2063782711528033
-2.4894839907428636
-2.329467714452832
-2.261768520637808
-2.3110042979578305
-2.3663945474428347
-2.372549019607845
-2.3663945474428347
-2.372549019607845
-2.335622186617841
-2.2679229928028177
-1.954044912387765
-1.1293456422776516
-2.600264489712873
-3.4557361206480066
-2.9510694031179288
-2.4587116299178424
-2.360240075277825
-2.3110042979578305
-2.3171587701228398
-2.2925408814628288
-2.2679229928028177
-2.329467714452832
-2.335622186617841
-2.304849825792821
-2.335622186617841
-2.347931130947833
-2.286386409297819
-2.052516467027782
-2.015589634037779
-2.3233132422878215
-2.347931130947833
-2.360240075277825
-2.335622186617841
-2.298695353627811
-2.3171587701228398
-2.304849825792821
-1.39398794537271
-1.184735891762656
-2.077134355687793
-2.55718318455786
-2.3171587701228398
-2.2433051041428067
-2.3171587701228398
-2.501792935072855
-3.6034434526080172
-3.1357035680679433
-2.4648661020828517
-2.3417766587828237
-2.2740774649678275
-2.2802319371328093
-2.304849825792821
-2.2925408814628288
-2.249459576307816
-2.3110042979578305
-2.372549019607845
-2.2679229928028177
-2.3171587701228398
-2.409475852597848
-2.372549019607845
-2.347931130947833
-2.304849825792821
-2.3663945474428347
-2.3848579639378364
-2.335622186617841
-2.3663945474428347
-2.3663945474428347
-2.3848579639378364
-2.4279392690928487
-2.409475852597848
-2.286386409297819
-2.3417766587828237
-2.4217847969278394
-2.3663945474428347
-2.3540856031128428
-2.3663945474428347
-2.3417766587828237
-2.3417766587828237
-2.3171587701228398
-2.298695353627811
-2.3171587701228398
-2.3110042979578305
-2.335622186617841
-2.391012436102846
-2.2309961598128147
-2.1817603824928202
-2.4402482134228407
-2.335622186617841
-2.329467714452832
-2.3971669082678284
-2.3848579639378364
-2.335622186617841
-2.261768520637808
-2.3663945474428347
-2.4279392690928487
-2.3417766587828237
-2.360240075277825
-2.403321380432838
-2.372549019607845
-2.2371506319778245
-2.1263701330077875
-2.187914854657802
-2.754126293837894
-2.544874240227868
-2.4525571577528327
-2.372549019607845
-2.3971669082678284
-2.3848579639378364
-2.360240075277825
-2.378703491772827
-2.3540856031128428
-2.347931130947833
-2.3110042979578305
-2.2679229928028177
-2.391012436102846
-2.4402482134228407
-2.3171587701228398
-2.3663945474428347
-2.4156303247628297
-2.4279392690928487
-2.3663945474428347
-2.329467714452832
-2.360240075277825
-2.378703491772827
-2.3417766587828237
-2.3848579639378364
-2.391012436102846
-2.255614048472826
-2.3663945474428347
-2.3663945474428347
-2.347931130947833
-2.3663945474428347
-2.3417766587828237
-2.0955977721827947
-1.2401261412476885
-1.855573357747775
-2.200223798987821
-2.286386409297819
-2.3540856031128428
-2.581801073217871
-3.7696142010630598
-2.9141425701278982
-2.483329518577854
-2.446402685587851
-2.403321380432838
-2.335622186617841
-2.335622186617841
-2.4402482134228407
-2.378703491772827
-2.298695353627811
-2.3233132422878215
-2.3540856031128428
-2.391012436102846
-2.3663945474428347
-2.3663945474428347
-2.391012436102846
-2.6433457948678853
-2.674118155692878
-2.4648661020828517
-2.403321380432838
-2.372549019607845
-2.3848579639378364
-2.403321380432838
-2.403321380432838
-2.3971669082678284
-2.409475852597848
-2.3971669082678284
-2.3971669082678284
-2.3848579639378364
-2.3110042979578305
-1.39398794537271
-1.578622110322725
-2.2433051041428067
-2.298695353627811
-2.347931130947833
-2.372549019607845
-2.360240075277825
-2.3663945474428347
-2.3417766587828237
-2.3171587701228398
-2.4587116299178424
-2.378703491772827
-2.3540856031128428
-2.378703491772827
-3.0126141247679152
-3.049540957757918
-2.520256351567857
-2.4156303247628297
-2.409475852597848
-2.360240075277825
-2.403321380432838
-2.434093741257831
-2.378703491772827
-2.391012436102846
-2.391012436102846
-2.347931130947833
-2.409475852597848
-1.9971262175427773
-2.372549019607845
-2.871061264972913
-2.507947407237865
-2.434093741257831
-2.4402482134228407
-2.3417766587828237
-2.360240075277825
-2.360240075277825
-2.3663945474428347
-2.391012436102846
-2.3971669082678284
-2.3663945474428347
-2.3540856031128428
-2.378703491772827
-2.3233132422878215
-2.298695353627811
-2.4156303247628297
-2.4279392690928487
-2.3663945474428347
-2.347931130947833
-2.403321380432838
-2.4217847969278394
-2.378703491772827
-2.360240075277825
-2.3848579639378364
-2.372549019607845
-2.3663945474428347
-2.3848579639378364
-2.347931130947833
-1.990971745377768
-2.187914854657802
-2.3540856031128428
-2.2925408814628288
-2.304849825792821
-2.403321380432838
-2.391012436102846
-2.360240075277825
-2.4156303247628297
-2.403321380432838
-2.347931130947833
-2.4648661020828517
-2.2925408814628288
-2.335622186617841
-2.735662877342893
-2.631036850537866
-2.372549019607845
-2.3171587701228398
-2.3540856031128428
-2.360240075277825
-2.3540856031128428
-2.304849825792821
-2.3540856031128428
-2.2802319371328093
-2.3233132422878215
-2.3540856031128428
-2.378703491772827
-2.3110042979578305
-1.8124920525927626
-0.9508659494926462
-2.2802319371328093
-3.308028788687994
-3.474199537143008
-2.544874240227868
-2.372549019607845
-2.347931130947833
-2.3848579639378364
-2.391012436102846
-2.3171587701228398
-2.3540856031128428
-2.3971669082678284
-2.3540856031128428
-2.2371506319778245
-2.4402482134228407
-2.3540856031128428
-2.304849825792821
-2.2802319371328093
-2.3171587701228398
-2.3663945474428347
-2.3110042979578305
-2.360240075277825
-2.3540856031128428
-2.3233132422878215
-2.3171587701228398
-2.2740774649678275
-2.261768520637808
-2.1448335495027893
-2.3663945474428347
-2.3540856031128428
-2.2309961598128147
-2.2433051041428067
-2.2802319371328093
-2.286386409297819
-2.286386409297819
-2.335622186617841
-2.3417766587828237
-2.329467714452832
-2.298695353627811
-2.2679229928028177
-2.304849825792821
-2.2371506319778245
-2.224841687647805
-2.347931130947833
-2.3171587701228398
-2.2925408814628288
-2.2433051041428067
-2.2679229928028177
-2.347931130947833
-2.372549019607845
-2.2679229928028177
-2.2309961598128147
-2.3171587701228398
-2.3171587701228398
-2.2433051041428067
-2.2063782711528033
-2.329467714452832
-2.3110042979578305
-2.2309961598128147
-2.1817603824928202
-2.138679077337807
-2.1694514381628007
-2.1571424938328088
-1.7509473309427481
-2.089443300017785
-2.5141018794028467
-2.2679229928028177
-2.2063782711528033
-2.2433051041428067
-2.200223798987821
-2.1817603824928202
-2.2925408814628288
-2.2309961598128147
-2.2309961598128147
-2.224841687647805
-2.2371506319778245
-2.2371506319778245
-2.224841687647805
-2.2433051041428067
-2.2063782711528033
-2.224841687647805
-2.261768520637808
-2.304849825792821
-2.224841687647805
-2.1325246051727973
-2.434093741257831
-2.3417766587828237
-2.2740774649678275
-2.3540856031128428
-2.3848579639378364
-2.4648661020828517
-2.403321380432838
-2.3848579639378364
-2.403321380432838
-2.4648661020828517
-2.507947407237865
-2.483329518577854
-1.4432237226927047
-1.6586302484677409
-2.495638462907845
-2.587955545382853
-2.563337656722869
-2.55102871239285
-2.495638462907845
-2.649500267032867
-3.806541034053064
-3.25263853920299
-2.618727906207874
-2.477175046412844
-2.4648661020828517
-2.520256351567857
-2.434093741257831
-2.070979883522784
-1.7447928587777384
-2.3110042979578305
-2.391012436102846
-2.434093741257831
-2.4525571577528327
-2.3971669082678284
-2.3971669082678284
-2.360240075277825
-2.0340530505327803
-0.8462399226876194
-2.2740774649678275
-2.378703491772827
-2.372549019607845
-2.631036850537866
-3.338801149512988
-3.1480125123979352
-3.923476005188081
-2.981841763942921
-2.563337656722869
-2.5141018794028467
-2.501792935072855
-2.477175046412844
-2.4894839907428636
-2.4402482134228407
-2.4648661020828517
-2.4587116299178424
-2.4279392690928487
-2.3663945474428347
-2.3663945474428347
-2.5141018794028467
-2.446402685587851
-2.4156303247628297
-2.501792935072855
-2.471020574247862
-2.409475852597848
-2.4279392690928487
-2.4279392690928487
-2.4402482134228407
-2.446402685587851
-2.3417766587828237
-2.409475852597848
-2.3663945474428347
-2.3171587701228398
-2.520256351567857
-2.3663945474428347
-2.3848579639378364
-2.3848579639378364
-2.347931130947833
-2.372549019607845
-2.329467714452832
-2.3417766587828237
-2.329467714452832
-2.3110042979578305
-2.298695353627811
-2.298695353627811
-2.2063782711528033
-2.175605910327811
-2.360240075277825
-2.329467714452832
-2.298695353627811
-2.224841687647805
-2.249459576307816
-2.2679229928028177
-2.212532743317813
-2.212532743317813
-2.249459576307816
-2.2371506319778245
-2.200223798987821
-2.249459576307816
-2.2309961598128147
-2.138679077337807
-2.3971669082678284
-1.9294270237277809
-2.2063782711528033
-2.6064189618778553
-2.3171587701228398
-2.286386409297819
-2.249459576307816
-2.200223798987821
-2.200223798987821
-2.335622186617841
-2.3233132422878215
-2.2679229928028177
-2.2063782711528033
-2.1632969659978185
-2.335622186617841
-2.4525571577528327
-2.3417766587828237
-2.2802319371328093
-2.3540856031128428
-2.3233132422878215
-2.286386409297819
-2.298695353627811
-2.3233132422878215
-1.8740367742427766
-2.3110042979578305
-2.649500267032867
-2.3233132422878215
-2.1694514381628007
-2.2679229928028177
-2.286386409297819
-2.2186872154828228
-2.224841687647805
-2.298695353627811
-2.3110042979578305
-2.224841687647805
-2.2063782711528033
-2.1817603824928202
-2.1571424938328088
-2.1325246051727973
-2.138679077337807
-2.1694514381628007
-2.1017522443478045
-2.1017522443478045
-2.200223798987821
-2.114061188677796
-2.083288827852803
-2.0955977721827947
-2.138679077337807
-2.175605910327811
-2.200223798987821
-2.175605910327811
-2.1448335495027893
-2.1632969659978185
-2.212532743317813
-2.3110042979578305
-2.009435161872797
-2.083288827852803
-2.249459576307816
-2.212532743317813
-1.9355814958927628
-0.9631748938226381
-1.7386383866127564
-2.1448335495027893
-3.369573510338009
-3.3141832608529764
-2.4279392690928487
-2.3417766587828237
-2.372549019607845
-2.286386409297819
-2.249459576307816
-2.200223798987821
-2.4525571577528327
-2.3848579639378364
-2.304849825792821
-2.360240075277825
-2.3663945474428347
-2.3233132422878215
-2.304849825792821
-2.3233132422878215
-2.2802319371328093
-2.298695353627811
-2.329467714452832
-2.3171587701228398
-2.304849825792821
-2.224841687647805
-2.378703491772827
-2.3417766587828237
-2.3540856031128428
-2.3848579639378364
-2.329467714452832
-2.298695353627811
-2.347931130947833
-2.3540856031128428
-2.3540856031128428
-2.391012436102846
-2.3971669082678284
-2.3540856031128428
-2.372549019607845
-2.114061188677796
-1.6093944711477182
-2.1817603824928202
-2.329467714452832
-1.7263294422827367
-2.403321380432838
-2.815671015487909
-2.4525571577528327
-2.3848579639378364
-2.3540856031128428
-2.360240075277825
-2.4217847969278394
-2.3663945474428347
-2.403321380432838
-2.5387197680628573
-3.172630401057975
-2.747971821672884
-2.495638462907845
-2.483329518577854
-2.495638462907845
-2.4402482134228407
-2.4525571577528327
-2.4217847969278394
-2.372549019607845
-2.3417766587828237
-2.015589634037779
-2.360240075277825
-2.778744182497905
-2.3971669082678284
-2.329467714452832
-2.446402685587851
-2.403321380432838
-2.4156303247628297
-2.3971669082678284
-2.4525571577528327
-2.4587116299178424
-2.3971669082678284
-2.3971669082678284
-2.4156303247628297
-2.4217847969278394
-2.372549019607845
-2.409475852597848
-2.3171587701228398
-2.3110042979578305
-2.5387197680628573
-2.4648661020828517
-2.409475852597848
-2.4217847969278394
-2.403321380432838
-2.4217847969278394
-2.4217847969278394
-2.409475852597848
-2.3848579639378364
-2.372549019607845
-2.347931130947833
-2.3110042979578305
-2.391012436102846
-2.329467714452832
-2.409475852597848
-2.434093741257831
-2.378703491772827
-2.4525571577528327
-2.446402685587851
-2.3971669082678284
-2.403321380432838
-2.4587116299178424
-2.477175046412844
-2.471020574247862
-2.446402685587851
-2.501792935072855
-2.471020574247862
-2.298695353627811
-2.55718318455786
-2.563337656722869
-2.483329518577854
-2.624882378372884
-2.649500267032867
-2.563337656722869
-2.618727906207874
-2.6371913227028756
-2.612573434042864
-2.618727906207874
-2.6064189618778553
-1.7140204979527456
-1.0062561989776508
-2.704890516517872
-2.618727906207874
-2.544874240227868
-2.495638462907845
-2.495638462907845
-2.5694921288878514
-3.092622262912931
-3.8865491721980785
-2.932605986622927
-2.612573434042864
-2.520256351567857
-2.495638462907845
-2.495638462907845
-2.520256351567857
-2.2925408814628288
-1.5847765824877347
-2.077134355687793
-2.378703491772827
-2.4217847969278394
-2.403321380432838
-2.4156303247628297
-2.4217847969278394
-2.3971669082678284
-2.403321380432838
-2.409475852597848
-2.434093741257831
-2.403321380432838
-2.3971669082678284
-2.4587116299178424
-3.1295490959029335
-2.907988097962916
-2.581801073217871
-2.4279392690928487
-2.4156303247628297
-2.4402482134228407
-2.4279392690928487
-2.446402685587851
-2.403321380432838
-2.3663945474428347
-2.4279392690928487
-2.4525571577528327
-2.3848579639378364
-2.335622186617841
-2.409475852597848
-2.55718318455786
-2.372549019607845
-0.9324025329976448
-1.2585895577426898
-2.347931130947833
-2.6618092113628857
-2.434093741257831
-2.329467714452832
-2.347931130947833
-2.544874240227868
-3.7634597288980496
-3.1664759288929645
-2.4525571577528327
-2.2063782711528033
-2.477175046412844
-2.4279392690928487
-2.434093741257831
-2.403321380432838
-2.372549019607845
-2.3663945474428347
-2.3663945474428347
-2.409475852597848
-2.391012436102846
-2.347931130947833
-2.378703491772827
-2.3848579639378364
-2.4156303247628297
-2.2925408814628288
-2.434093741257831
-2.4587116299178424
-2.409475852597848
-2.403321380432838
-2.391012436102846
-2.4279392690928487
-2.4217847969278394
-2.391012436102846
-2.3971669082678284
-2.3540856031128428
-2.3848579639378364
-2.3848579639378364
-2.329467714452832
-2.2802319371328093
-2.507947407237865
-2.587955545382853
-2.471020574247862
-2.4402482134228407
-2.446402685587851
-2.3971669082678284
-2.3540856031128428
-2.329467714452832
-2.391012436102846
-2.372549019607845
-2.391012436102846
-2.3540856031128428
-2.409475852597848
-2.3540856031128428
-2.304849825792821
-2.3971669082678284
-2.409475852597848
-2.3417766587828237
-2.3417766587828237
-2.3848579639378364
-2.3971669082678284
-2.4217847969278394
-2.372549019607845
-2.064825411357801
-2.064825411357801
-2.735662877342893
-2.544874240227868
-2.3233132422878215
-2.2186872154828228
-2.495638462907845
-2.477175046412844
-2.409475852597848
-2.434093741257831
-2.335622186617841
-2.052516467027782
-0.8462399226876194
-2.2802319371328093
-2.3417766587828237
-2.526410823732866
-3.6957605350830534
-3.2034027618829675
-2.526410823732866
-2.7171994608478913
-2.5141018794028467
-2.403321380432838
-2.4156303247628297
-2.4217847969278394
-2.434093741257831
-2.4156303247628297
-2.4156303247628297
-2.391012436102846
-2.3971669082678284
-2.409475852597848
-2.3663945474428347
-2.391012436102846
-2.3540856031128428
-2.1325246051727973
-2.3171587701228398
-2.403321380432838
-2.4156303247628297
-2.403321380432838
-2.378703491772827
-2.409475852597848
-2.4402482134228407
-2.391012436102846
-2.3663945474428347
-2.372549019607845
-2.3848579639378364
-2.3848579639378364
-2.4156303247628297
-2.2309961598128147
-2.015589634037779
-2.3233132422878215
-2.3540856031128428
-2.434093741257831
-2.4587116299178424
-2.378703491772827
-2.372549019607845
-2.3540856031128428
-2.4525571577528327
-2.391012436102846
-2.391012436102846
-2.403321380432838
-2.3848579639378364
-2.501792935072855
-2.772589710332896
-2.520256351567857
-2.4525571577528327
-2.4156303247628297
-2.3971669082678284
-2.434093741257831
-2.4156303247628297
-2.372549019607845
-2.4402482134228407
-2.4279392690928487
-2.446402685587851
-2.434093741257831
-2.372549019607845
-1.8432644134177558
-1.5540042216627135
-2.4587116299178424
-2.4156303247628297
-2.3233132422878215
-2.434093741257831
-2.372549019607845
-2.403321380432838
-2.403321380432838
-2.3848579639378364
-2.391012436102846
-2.378703491772827
-2.3233132422878215
-2.4156303247628297
-2.483329518577854
-3.1110856794079322
-2.895679153632896
-2.526410823732866
-2.471020574247862
-2.483329518577854
-2.4217847969278394
-2.3971669082678284
-2.446402685587851
-2.4402482134228407
-2.403321380432838
-2.3971669082678284
-2.3971669082678284
-2.372549019607845
-2.391012436102846
-2.255614048472826
-2.4648661020828517
-2.4402482134228407
-2.391012436102846
-2.391012436102846
-2.3971669082678284
-2.360240075277825
-2.3971669082678284
-2.4525571577528327
-2.4217847969278394
-2.3848579639378364
-2.4156303247628297
-2.403321380432838
-2.372549019607845
-2.4894839907428636
-2.507947407237865
-2.372549019607845
-2.3971669082678284
-2.4217847969278394
-2.372549019607845
-2.391012436102846
-2.3971669082678284
-2.3540856031128428
-2.4217847969278394
-2.403321380432838
-2.4217847969278394
-2.4217847969278394
-2.4279392690928487
-2.261768520637808
-1.8678823020777668
-1.9232725515627715
-3.344955621677997
-2.631036850537866
-2.446402685587851
-2.409475852597848
-2.329467714452832
-2.391012436102846
-2.4402482134228407
-2.372549019607845
-2.372549019607845
-2.409475852597848
-2.4156303247628297
-2.378703491772827
-2.581801073217871
-2.4894839907428636
-2.3971669082678284
-2.3848579639378364
-2.409475852597848
-2.3971669082678284
-2.3848579639378364
-2.3848579639378364
-2.391012436102846
-2.4648661020828517
-2.4279392690928487
-2.3233132422878215
-2.391012436102846
-2.3233132422878215
-2.391012436102846
-2.501792935072855
-2.4156303247628297
-2.3417766587828237
-2.378703491772827
-2.3971669082678284
-2.4217847969278394
-2.3663945474428347
-2.335622186617841
-2.4402482134228407
-2.4217847969278394
-2.3663945474428347
-2.378703491772827
-2.304849825792821
-1.8801912464077586
-2.0217441062027888
-2.304849825792821
-2.3417766587828237
-2.3417766587828237
-2.347931130947833
-2.3110042979578305
-2.3540856031128428
-2.4156303247628297
-2.360240075277825
-2.304849825792821
-2.3110042979578305
-2.372549019607845
-2.347931130947833
-2.815671015487909
-2.9141425701278982
-2.4648661020828517
-2.360240075277825
-2.4156303247628297
-2.3848579639378364
-2.3417766587828237
-2.3417766587828237
-2.003280689707787
-2.298695353627811
-2.729508405177883
-2.3848579639378364
-2.329467714452832
-2.3171587701228398
-2.224841687647805
-2.3417766587828237
-2.360240075277825
-2.3848579639378364
-2.335622186617841
-2.372549019607845
-2.360240075277825
-2.3171587701228398
-2.360240075277825
-2.3663945474428347
-2.2679229928028177
-2.329467714452832
-2.434093741257831
-2.4279392690928487
-2.3971669082678284
-2.5941100175478624
-2.471020574247862
-2.403321380432838
-2.347931130947833
-2.360240075277825
-2.372549019607845
-2.347931130947833
-2.372549019607845
-2.3663945474428347
-2.3848579639378364
-2.403321380432838
-2.3848579639378364
-2.446402685587851
-2.304849825792821
-2.2309961598128147
-2.4525571577528327
-2.409475852597848
-2.3540856031128428
-2.3663945474428347
-2.3540856031128428
-2.403321380432838
-2.391012436102846
-2.360240075277825
-2.409475852597848
-2.391012436102846
-2.372549019607845
-2.3417766587828237
-2.1817603824928202
-1.6032399989827366
-1.892500190737778
-2.2740774649678275
-2.329467714452832
-2.3171587701228398
-2.3417766587828237
-2.249459576307816
-0.8585488670176111
-1.7324839144477464
-2.1079067165127863
-2.1325246051727973
-2.9572238752829105
-2.4217847969278394
-2.403321380432838
-3.369573510338009
-4.501996388698165
-3.289565372192993
-2.544874240227868
-2.4217847969278394
-2.4156303247628297
-2.3971669082678284
-2.3848579639378364
-2.3971669082678284
-2.4217847969278394
-2.372549019607845
-2.3971669082678284
-2.409475852597848
-2.378703491772827
-2.194069326822812
-2.378703491772827
-2.501792935072855
-2.4587116299178424
-2.2679229928028177
-2.3417766587828237
-2.3663945474428347
-2.4156303247628297
-2.403321380432838
-2.4279392690928487
-2.360240075277825
-2.4402482134228407
-2.3848579639378364
-2.3417766587828237
-2.3110042979578305
-2.575646601052861
-2.501792935072855
-2.3848579639378364
-2.372549019607845
-2.4279392690928487
-2.4156303247628297
-2.4217847969278394
-2.4279392690928487
-2.391012436102846
-2.3971669082678284
-2.403321380432838
-2.3971669082678284
-2.4587116299178424
-2.286386409297819
-1.990971745377768
-2.298695353627811
-2.3971669082678284
-2.360240075277825
-2.403321380432838
-2.372549019607845
-2.4648661020828517
-2.434093741257831
-2.403321380432838
-2.4156303247628297
-2.3540856031128428
-2.434093741257831
-2.4217847969278394
-2.409475852597848
-2.8895246814679143
-2.618727906207874
-2.015589634037779
-2.347931130947833
-2.747971821672884
-2.4525571577528327
-2.3971669082678284
-2.3663945474428347
-2.403321380432838
-2.4217847969278394
-2.3971669082678284
-2.4587116299178424
-2.4279392690928487
-2.298695353627811
-2.286386409297819
-2.526410823732866
-2.403321380432838
-2.3540856031128428
-2.335622186617841
-2.360240075277825
-2.409475852597848
-2.403321380432838
-2.391012436102846
-2.347931130947833
-2.409475852597848
-2.471020574247862
-2.4156303247628297
-2.304849825792821
-2.194069326822812
-2.495638462907845
-2.4587116299178424
-2.3233132422878215
-2.3663945474428347
-2.4156303247628297
-2.4156303247628297
-2.3971669082678284
-2.3971669082678284
-2.3971669082678284
-2.4587116299178424
-2.3971669082678284
-2.391012436102846
-2.372549019607845
-2.249459576307816
-2.471020574247862
-2.477175046412844
-2.4279392690928487
-2.372549019607845
-2.4525571577528327
-2.477175046412844
-2.434093741257831
-2.403321380432838
-2.372549019607845
-2.360240075277825
-2.360240075277825
-2.347931130947833
-2.3540856031128428
-2.304849825792821
-2.403321380432838
-2.3540856031128428
-2.409475852597848
-2.003280689707787
-0.7785407288726233
-3.043386485592936
-3.615752396938038
-2.674118155692878
-2.446402685587851
-2.4217847969278394
-2.409475852597848
-2.3848579639378364
-2.360240075277825
-2.2740774649678275
-2.704890516517872
-2.624882378372884
-2.4587116299178424
-2.4156303247628297
-2.391012436102846
-2.434093741257831
-2.409475852597848
-2.403321380432838
-2.4402482134228407
-2.4402482134228407
-2.360240075277825
-2.360240075277825
-2.4279392690928487
-2.304849825792821
-2.052516467027782
-2.3171587701228398
-2.360240075277825
-2.3171587701228398
-2.3110042979578305
-2.372549019607845
-2.3540856031128428
-2.3971669082678284
-2.403321380432838
-2.329467714452832
-2.3663945474428347
-2.378703491772827
-2.372549019607845
-2.2679229928028177
-2.2802319371328093
-2.5325652958978484
-2.4156303247628297
-2.3233132422878215
-2.3971669082678284
-2.409475852597848
-2.3663945474428347
-2.403321380432838
-2.360240075277825
-2.360240075277825
-2.378703491772827
-2.4156303247628297
-2.4648661020828517
-2.360240075277825
-2.2802319371328093
-2.4402482134228407
-2.409475852597848
-2.378703491772827
-2.4525571577528327
-2.378703491772827
-2.3233132422878215
-2.4279392690928487
-2.446402685587851
-2.3971669082678284
-2.3540856031128428
-2.015589634037779
-2.347931130947833
-2.6987360443528896
-2.3417766587828237
-2.4402482134228407
-2.3663945474428347
-2.3417766587828237
-2.347931130947833
-2.378703491772827
-2.3663945474428347
-2.4402482134228407
-2.4217847969278394
-2.409475852597848
-2.3971669082678284
-2.391012436102846
-2.3663945474428347
-2.298695353627811
-1.972508328882766
-1.5293863330027024
-2.1263701330077875
-2.360240075277825
-2.4217847969278394
-2.3848579639378364
-2.360240075277825
-2.360240075277825
-2.3417766587828237
-2.4217847969278394
-2.391012436102846
-2.391012436102846
-2.3417766587828237
-2.3110042979578305
-2.618727906207874
-3.326492205182996
-2.68642710002287
-2.4648661020828517
-2.3971669082678284
-2.4156303247628297
-2.409475852597848
-2.3848579639378364
-2.372549019607845
-2.3171587701228398
-2.304849825792821
-2.360240075277825
-2.329467714452832
-2.360240075277825
-2.2186872154828228
-2.0278985783677985
-2.304849825792821
-2.3417766587828237
-2.286386409297819
-2.3233132422878215
-2.372549019607845
-2.3233132422878215
-2.347931130947833
-2.360240075277825
-2.3417766587828237
-2.347931130947833
-2.3110042979578305
-1.9786628010477763
-0.7662317845426038
-2.3171587701228398
-2.4894839907428636
-2.3171587701228398
-2.286386409297819
-2.655654739197877
-3.7942320897230712
-2.8402889041478923
-2.3848579639378364
-2.3417766587828237
-2.286386409297819
-2.3540856031128428
-2.3663945474428347
-2.360240075277825
-2.2740774649678275
-2.1694514381628007
-2.674118155692878
-4.015793087663089
-3.338801149512988
-2.581801073217871
-2.5141018794028467
-2.483329518577854
-2.4587116299178424
-2.434093741257831
-2.446402685587851
-2.4648661020828517
-2.4217847969278394
-2.403321380432838
-2.391012436102846
-2.2186872154828228
-2.3663945474428347
-2.483329518577854
-2.4587116299178424
-2.483329518577854
-2.391012436102846
-2.4648661020828517
-2.4156303247628297
-2.372549019607845
-2.446402685587851
-2.4402482134228407
-2.3971669082678284
-2.3540856031128428
-2.4402482134228407
-2.4217847969278394
-2.360240075277825
-2.409475852597848
-2.4402482134228407
-2.4402482134228407
-2.4894839907428636
-2.409475852597848
-2.3848579639378364
-2.3971669082678284
-2.3663945474428347
-2.347931130947833
-2.4894839907428636
-2.4525571577528327
-2.434093741257831
-2.4156303247628297
-2.563337656722869
-2.55718318455786
-2.5141018794028467
-2.471020574247862
-2.471020574247862
-2.064825411357801
-2.378703491772827
-2.821825487652891
-2.563337656722869
-2.4217847969278394
-2.378703491772827
-1.5293863330027024
-1.8124920525927626
-1.9786628010477763
-2.1632969659978185
-2.4525571577528327
-2.4217847969278394
-2.4525571577528327
-2.649500267032867
-3.781923145393051
-3.080313318582939
-2.544874240227868
-2.4279392690928487
-2.3848579639378364
-2.409475852597848
-2.4156303247628297
-2.4587116299178424
-2.391012436102846
-2.3417766587828237
-2.507947407237865
-2.4279392690928487
-2.3848579639378364
-2.347931130947833
-2.3848579639378364
-2.4648661020828517
-2.391012436102846
-2.360240075277825
-2.3663945474428347
-2.372549019607845
-2.3971669082678284
-2.3848579639378364
-2.335622186617841
-2.2925408814628288
-2.495638462907845
-2.446402685587851
-2.360240075277825
-2.3848579639378364
-2.403321380432838
-2.378703491772827
-2.3110042979578305
-2.304849825792821
-2.378703491772827
-2.3848579639378364
-2.3971669082678284
-2.3540856031128428
-2.2925408814628288
-2.1817603824928202
-2.4587116299178424
-2.347931130947833
-2.360240075277825
-2.347931130947833
-2.329467714452832
-2.391012436102846
-1.9786628010477763
-0.8093130896976164
-2.1817603824928202
-3.277256427862973
-3.492662953638009
-2.5387197680628573
-2.3848579639378364
-2.3971669082678284
-2.403321380432838
-2.3663945474428347
-2.3540856031128428
-2.335622186617841
-2.3663945474428347
-2.3663945474428347
-2.378703491772827
-2.329467714452832
-2.3171587701228398
-2.3663945474428347
-2.372549019607845
-2.2309961598128147
-2.329467714452832
-2.2925408814628288
-2.2063782711528033
-2.3540856031128428
-2.372549019607845
-2.378703491772827
-2.360240075277825
-2.335622186617841
-2.3171587701228398
-2.3663945474428347
-2.347931130947833
-2.4156303247628297
-2.3971669082678284
-2.3848579639378364
-2.304849825792821
-2.261768520637808
-2.2679229928028177
-2.4217847969278394
-2.409475852597848
-2.360240075277825
-2.304849825792821
-2.3233132422878215
-2.347931130947833
-2.409475852597848
-2.360240075277825
-2.3171587701228398
-2.360240075277825
-2.3663945474428347
-2.3171587701228398
-2.2802319371328093
-1.7447928587777384
-2.526410823732866
-2.729508405177883
-2.4156303247628297
-2.391012436102846
-2.3971669082678284
-2.3848579639378364
-2.378703491772827
-2.372549019607845
-2.403321380432838
-2.378703491772827
-2.3848579639378364
-2.3663945474428347
-2.298695353627811
-1.8063375804277528
-2.1817603824928202
-2.655654739197877
-2.471020574247862
-2.434093741257831
-2.4156303247628297
-2.3233132422878215
-2.3171587701228398
-2.3663945474428347
-2.3848579639378364
-2.2740774649678275
-2.2802319371328093
-2.3663945474428347
-2.372549019607845
-2.403321380432838
-2.6064189618778553
-2.4402482134228407
-2.3233132422878215
-2.3233132422878215
-2.3971669082678284
-2.329467714452832
-2.2802319371328093
-2.298695353627811
-2.3848579639378364
-2.304849825792821
-2.2740774649678275
-2.304849825792821
-2.3971669082678284
-2.2802319371328093
-2.261768520637808
-2.347931130947833
-2.335622186617841
-2.3663945474428347
-2.335622186617841
-2.298695353627811
-2.391012436102846
-2.3417766587828237
-2.3663945474428347
-2.329467714452832
-2.378703491772827
-2.3971669082678284
-2.329467714452832
-2.2802319371328093
-2.3971669082678284
-2.4648661020828517
-2.391012436102846
-2.3233132422878215
-2.3171587701228398
-2.3110042979578305
-2.2925408814628288
-2.3417766587828237
-2.3233132422878215
-2.255614048472826
-2.286386409297819
-2.347931130947833
-2.329467714452832
-2.2371506319778245
-2.3110042979578305
-2.052516467027782
-0.7600773123775938
-2.1817603824928202
-2.3233132422878215
-2.261768520637808
-2.3171587701228398
-2.3417766587828237
-2.797207598992907
-3.7511507845680576
-2.815671015487909
-2.4525571577528327
-2.409475852597848
-2.347931130947833
-2.224841687647805
-2.434093741257831
-2.403321380432838
-2.446402685587851
-2.4217847969278394
-2.409475852597848
-2.391012436102846
-2.372549019607845
-2.360240075277825
-2.403321380432838
-2.434093741257831
-2.4156303247628297
-2.403321380432838
-2.3417766587828237
-2.3171587701228398
-2.754126293837894
-2.526410823732866
-2.3848579639378364
-2.3848579639378364
-2.403321380432838
-2.335622186617841
-2.3417766587828237
-2.3663945474428347
-2.3540856031128428
-2.329467714452832
-2.335622186617841
-2.335622186617841
-2.3417766587828237
-2.1263701330077875
-2.0586709391927913
-2.335622186617841
-2.329467714452832
-2.3663945474428347
-2.4156303247628297
-2.4525571577528327
-2.360240075277825
-2.175605910327811
-2.2802319371328093
-2.3663945474428347
-2.372549019607845
-2.3540856031128428
-2.372549019607845
-2.391012436102846
-2.4525571577528327
-2.4156303247628297
-2.3848579639378364
-2.409475852597848
-2.391012436102846
-2.3417766587828237
-2.372549019607845
-2.298695353627811
-1.9417359680577726
-2.3110042979578305
-2.711044988682881
-2.4587116299178424
-2.3971669082678284
-2.372549019607845
-2.3540856031128428
-2.4894839907428636
-2.403321380432838
-2.3663945474428347
-2.372549019607845
-2.3971669082678284
-2.347931130947833
-2.403321380432838
-2.477175046412844
-2.3848579639378364
-2.347931130947833
-2.3417766587828237
-2.372549019607845
-2.372549019607845
-2.224841687647805
-2.4279392690928487
-2.3971669082678284
-2.403321380432838
-2.3971669082678284
-2.3848579639378364
-2.304849825792821
-2.3540856031128428
-2.360240075277825
-2.378703491772827
-2.304849825792821
-2.3417766587828237
-2.378703491772827
-2.329467714452832
-2.2679229928028177
-2.5387197680628573
-2.446402685587851
-2.372549019607845
-2.3540856031128428
-2.434093741257831
-2.378703491772827
-2.4156303247628297
-2.4217847969278394
-2.409475852597848
-2.4279392690928487
-2.483329518577854
-2.434093741257831
-2.4279392690928487
-2.249459576307816
-2.4402482134228407
-2.477175046412844
-2.4217847969278394
-2.4156303247628297
-2.3971669082678284
-2.4279392690928487
-2.471020574247862
-2.403321380432838
-2.409475852597848
-2.089443300017785
-0.895475700007614
-2.2309961598128147
-2.434093741257831
-3.2341751227079882
-2.495638462907845
-2.3540856031128428
-2.372549019607845
-2.409475852597848
-2.403321380432838
-2.434093741257831
-2.4156303247628297
-2.391012436102846
-2.471020574247862
-2.409475852597848
-2.4217847969278394
-2.403321380432838
-2.372549019607845
-2.612573434042864
-3.326492205182996
-1.3078253350626845
-1.5724676381577152
-2.471020574247862
-2.624882378372884
-2.4156303247628297
-2.3233132422878215
-2.3417766587828237
-2.667963683527869
-3.788077617558061
-2.9141425701278982
-2.5141018794028467
-2.446402685587851
-2.261768520637808
-2.2371506319778245
-2.434093741257831
-2.477175046412844
-2.4279392690928487
-2.347931130947833
-2.403321380432838
-2.3663945474428347
-2.360240075277825
-2.329467714452832
-2.3171587701228398
-2.2802319371328093
-2.4587116299178424
-2.446402685587851
-2.3110042979578305
-2.255614048472826
-2.4279392690928487
-2.3540856031128428
-2.3171587701228398
-2.3110042979578305
-2.347931130947833
-2.3417766587828237
-2.347931130947833
-2.335622186617841
-2.3110042979578305
-2.3417766587828237
-2.3110042979578305
-2.2802319371328093
-2.261768520637808
-2.3110042979578305
-2.4279392690928487
-2.3233132422878215
-2.255614048472826
-2.304849825792821
-2.3233132422878215
-2.255614048472826
-2.347931130947833
-2.378703491772827
-2.335622186617841
-2.3171587701228398
-2.2925408814628288
-2.2925408814628288
-2.255614048472826
-2.150988021667799
-2.3848579639378364
-2.286386409297819
-2.2309961598128147
-2.2679229928028177
-2.2679229928028177
-2.2802319371328093
-2.261768520637808
-1.9171180793977614
-2.1571424938328088
-2.6925815721878803
-2.372549019607845
-2.298695353627811
-2.347931130947833
-2.114061188677796
-1.861727829912757
-2.175605910327811
-2.2740774649678275
-2.2679229928028177
-2.2679229928028177
-2.286386409297819
-2.3171587701228398
-2.3417766587828237
-2.2802319371328093
-2.2433051041428067
-2.2925408814628288
-2.2433051041428067
-2.2925408814628288
-2.3848579639378364
-2.766435238167886
-2.520256351567857
-2.347931130947833
-2.3971669082678284
-2.3417766587828237
-2.3233132422878215
-2.3540856031128428
-2.3663945474428347
-2.329467714452832
-2.286386409297819
-2.3971669082678284
-2.347931130947833
-2.2802319371328093
-2.286386409297819
-2.2371506319778245
-2.4279392690928487
-2.3171587701228398
-2.304849825792821
-1.990971745377768
-1.0678009206276373
-1.8063375804277528
-2.138679077337807
-2.2740774649678275
-2.286386409297819
-2.249459576307816
-2.2925408814628288
-2.932605986622927
-3.658833702093051
-2.6925815721878803
-2.6987360443528896
-2.409475852597848
-2.3417766587828237
-2.3417766587828237
-2.329467714452832
-2.335622186617841
-2.347931130947833
-2.298695353627811
-2.3540856031128428
-2.298695353627811
-2.3171587701228398
-2.304849825792821
-2.2433051041428067
-2.0278985783677985
-2.2063782711528033
-2.3417766587828237
-2.347931130947833
-2.372549019607845
-2.2802319371328093
-2.2925408814628288
-2.335622186617841
-2.3233132422878215
-2.329467714452832
-2.329467714452832
-2.3417766587828237
-2.3171587701228398
-2.298695353627811
-2.1817603824928202
-2.335622186617841
-2.360240075277825
-2.360240075277825
-2.3417766587828237
-2.3417766587828237
-2.3663945474428347
-2.335622186617841
-2.3233132422878215
-2.372549019607845
-2.3540856031128428
-2.378703491772827
-2.3171587701228398
-2.3417766587828237
-2.304849825792821
-2.649500267032867
-2.575646601052861
-2.434093741257831
-2.3540856031128428
-2.360240075277825
-2.335622186617841
-2.4279392690928487
-2.360240075277825
-2.304849825792821
-2.335622186617841
-2.2371506319778245
-0.7846952010376053
-1.3447521680526875
-2.2433051041428067
-1.2339716690826785
-1.9232725515627715
-3.578825563948035
-3.258793011367972
-2.600264489712873
-2.372549019607845
-2.2925408814628288
-2.360240075277825
-2.3663945474428347
-2.347931130947833
-2.3663945474428347
-2.3540856031128428
-2.3233132422878215
-2.4156303247628297
-2.797207598992907
-2.587955545382853
-2.378703491772827
-2.360240075277825
-2.347931130947833
-2.3971669082678284
-2.286386409297819
-2.378703491772827
-2.3663945474428347
-2.3110042979578305
-2.3171587701228398
-2.3971669082678284
-2.360240075277825
-2.3110042979578305
-2.544874240227868
-2.667963683527869
-2.4587116299178424
-2.378703491772827
-2.329467714452832
-2.3171587701228398
-2.304849825792821
-2.304849825792821
-2.2925408814628288
-2.360240075277825
-2.298695353627811
-1.7940286360977609
-0.8462399226876194
-1.8248009969227534
-1.7632562752727399
-1.504768444342719
-2.5941100175478624
-3.7757686732280415
-2.8279799598179
-2.446402685587851
-2.372549019607845
-2.3540856031128428
-2.403321380432838
-2.3540856031128428
-2.3233132422878215
-2.434093741257831
-2.403321380432838
-1.954044912387765
-1.1293456422776516
-2.975687291777912
-2.471020574247862
-2.501792935072855
-3.6957605350830534
-3.172630401057975
-2.520256351567857
-2.372549019607845
-2.3848579639378364
-2.3540856031128428
-2.3110042979578305
-2.304849825792821
-2.347931130947833
-2.360240075277825
-2.224841687647805
-2.329467714452832
-2.4156303247628297
-2.249459576307816
-2.2309961598128147
-2.298695353627811
-2.2740774649678275
-2.286386409297819
-2.304849825792821
-2.286386409297819
-2.2802319371328093
-2.2433051041428067
-2.2679229928028177
-2.403321380432838
-2.2433051041428067
-2.212532743317813
-2.3971669082678284
-2.360240075277825
-2.329467714452832
-2.335622186617841
-2.286386409297819
-2.329467714452832
-2.372549019607845
-2.2925408814628288
-2.304849825792821
-2.3110042979578305
-2.329467714452832
-2.3848579639378364
-2.286386409297819
-2.2679229928028177
-2.4648661020828517
-2.360240075277825
-2.372549019607845
-2.4156303247628297
-2.378703491772827
-2.372549019607845
-2.3171587701228398
-2.378703491772827
-2.471020574247862
-2.434093741257831
-2.335622186617841
-2.3540856031128428
-2.3663945474428347
-2.2371506319778245
-2.495638462907845
-2.409475852597848
-2.3848579639378364
-2.3540856031128428
-2.2925408814628288
-1.966353856717784
-2.347931130947833
-2.6618092113628857
-2.3848579639378364
-2.3663945474428347
-2.4217847969278394
-2.347931130947833
-2.347931130947833
-2.2063782711528033
-2.372549019607845
-2.3417766587828237
-2.3233132422878215
-2.298695353627811
-2.347931130947833
-2.3663945474428347
-2.335622186617841
-2.2802319371328093
-2.2802319371328093
-2.335622186617841
-2.3848579639378364
-2.3110042979578305
-2.347931130947833
-2.138679077337807
-1.818646524757745
-2.255614048472826
-2.335622186617841
-2.391012436102846
-2.2371506319778245
-1.0062561989776508
-1.9786628010477763
-2.2186872154828228
-2.3233132422878215
-2.3171587701228398
-2.255614048472826
-2.2802319371328093
-2.612573434042864
-3.9419394216830828
-3.517280842298021
-2.729508405177883
-2.4648661020828517
-2.409475852597848
-2.3848579639378364
-2.4156303247628297
-2.4402482134228407
-2.372549019607845
-2.3233132422878215
-2.3233132422878215
-2.4156303247628297
-2.3848579639378364
-2.372549019607845
-2.2433051041428067
-1.8863457185727683
-2.261768520637808
-2.3171587701228398
-2.2925408814628288
-2.304849825792821
-2.329467714452832
-2.372549019607845
-2.083288827852803
-1.8801912464077586
-3.24648406703798
-2.600264489712873
-2.4279392690928487
-2.391012436102846
-2.378703491772827
-2.015589634037779
-2.0463619948628
-2.2433051041428067
-2.3233132422878215
-2.434093741257831
-2.471020574247862
-2.4279392690928487
-2.4217847969278394
-2.4217847969278394
-2.409475852597848
-2.347931130947833
-2.4587116299178424
-2.4156303247628297
-2.3663945474428347
-2.895679153632896
-3.0310775412629165
-2.4894839907428636
-2.3971669082678284
-2.3540856031128428
-2.3848579639378364
-2.3417766587828237
-2.3417766587828237
-2.3233132422878215
-2.347931130947833
-2.3110042979578305
-2.3417766587828237
-2.3971669082678284
-2.3663945474428347
-2.2063782711528033
-2.4279392690928487
-2.4217847969278394
-2.3110042979578305
-2.3110042979578305
-2.347931130947833
-2.2802319371328093
-2.2802319371328093
-2.329467714452832
-2.261768520637808
-2.329467714452832
-2.3171587701228398
-2.261768520637808
-2.212532743317813
-2.335622186617841
-2.471020574247862
-2.378703491772827
-2.2802319371328093
-2.2740774649678275
-2.304849825792821
-2.2925408814628288
-2.2679229928028177
-2.2433051041428067
-2.2309961598128147
-2.255614048472826
-2.3171587701228398
-2.3171587701228398
-2.329467714452832
-2.200223798987821
-1.7940286360977609
-2.2679229928028177
-2.655654739197877
-2.409475852597848
-2.372549019607845
-2.409475852597848
-2.378703491772827
-2.501792935072855
-2.298695353627811
-2.2679229928028177
-2.3171587701228398
-2.3417766587828237
-2.3663945474428347
-2.3663945474428347
-2.3171587701228398
-2.335622186617841
-2.378703491772827
-2.3663945474428347
-2.2802319371328093
-2.255614048472826
-2.329467714452832
-2.335622186617841
-2.304849825792821
-2.2740774649678275
-2.286386409297819
-2.298695353627811
-2.298695353627811
-2.298695353627811
-2.249459576307816
-2.329467714452832
-2.298695353627811
-2.2309961598128147
-2.2309961598128147
-2.261768520637808
-2.298695353627811
-2.286386409297819
-2.2679229928028177
-2.224841687647805
-2.187914854657802
-2.2186872154828228
-2.212532743317813
-2.2679229928028177
-2.194069326822812
-2.2433051041428067
-2.2802319371328093
-2.2802319371328093
-2.2679229928028177
-2.286386409297819
-2.255614048472826
-2.2186872154828228
-2.2740774649678275
-2.2309961598128147
-2.2371506319778245
-2.298695353627811
-2.2679229928028177
-2.2186872154828228
-2.2063782711528033
-2.391012436102846
-2.0278985783677985
-1.0247196154726523
-1.7940286360977609
-2.114061188677796
-2.175605910327811
-2.4156303247628297
-3.560362147453033
-2.901833625797906
-2.403321380432838
-2.2740774649678275
-2.194069326822812
-2.200223798987821
-2.1571424938328088
-2.1017522443478045
-2.304849825792821
-2.2802319371328093
-2.2186872154828228
-2.224841687647805
-2.249459576307816
-2.2309961598128147
-2.255614048472826
-2.3171587701228398
-2.2309961598128147
-2.194069326822812
-2.200223798987821
-2.2371506319778245
-2.194069326822812
-2.2309961598128147
-2.378703491772827
-2.249459576307816
-2.261768520637808
-2.2433051041428067
-2.2802319371328093
-2.304849825792821
-2.3233132422878215
-2.304849825792821
-2.2679229928028177
-2.2679229928028177
-2.3233132422878215
-2.2925408814628288
-2.2186872154828228
-2.1694514381628007
-2.391012436102846
-2.2925408814628288
-2.286386409297819
-2.2371506319778245
-2.261768520637808
-2.360240075277825
-2.372549019607845
-2.2925408814628288
-2.2309961598128147
-2.255614048472826
-2.2802319371328093
-2.378703491772827
-2.378703491772827
-2.249459576307816
-2.446402685587851
-2.3540856031128428
-2.3110042979578305
-2.3110042979578305
-2.249459576307816
-2.2371506319778245
-2.3663945474428347
-2.298695353627811
-1.9417359680577726
-2.261768520637808
-2.631036850537866
-2.372549019607845
-2.2802319371328093
-2.1017522443478045
-2.3110042979578305
-2.2925408814628288
-2.2679229928028177
-2.3233132422878215
-2.298695353627811
-2.286386409297819
-2.304849825792821
-2.2740774649678275
-2.304849825792821
-2.2740774649678275
-2.224841687647805
-2.2740774649678275
-2.329467714452832
-2.009435161872797
-1.4555326670226965
-2.064825411357801
-2.255614048472826
-2.2433051041428067
-2.249459576307816
-2.2433051041428067
-2.2740774649678275
-2.2740774649678275
-2.2371506319778245
-2.286386409297819
-2.329467714452832
-2.3110042979578305
-2.2802319371328093
-2.477175046412844
-3.2218661783779687
-2.6925815721878803
-2.434093741257831
-2.347931130947833
-2.3663945474428347
-2.286386409297819
-2.2679229928028177
-2.298695353627811
-2.255614048472826
-2.329467714452832
-2.372549019607845
-2.3171587701228398
-2.2679229928028177
-2.1817603824928202
-2.2063782711528033
-2.4402482134228407
-2.3171587701228398
-2.255614048472826
-2.2371506319778245
-2.2802319371328093
-2.2740774649678275
-2.249459576307816
-2.2433051041428067
-2.2679229928028177
-1.9355814958927628
-0.6800691742326057
-2.994150708272913
-3.4803540093080176
-2.4402482134228407
-2.4156303247628297
-2.3110042979578305
-2.286386409297819
-2.304849825792821
-2.3171587701228398
-2.304849825792821
-2.3417766587828237
-2.372549019607845
-2.3110042979578305
-2.2925408814628288
-2.347931130947833
-2.335622186617841
-2.2802319371328093
-2.249459576307816
-2.477175046412844
-2.372549019607845
-2.3233132422878215
-2.335622186617841
-2.298695353627811
-2.372549019607845
-2.372549019607845
-2.3110042979578305
-2.3417766587828237
-2.3663945474428347
-2.378703491772827
-2.3663945474428347
-2.3110042979578305
-2.2309961598128147
-2.4217847969278394
-2.409475852597848
-2.347931130947833
-2.3233132422878215
-2.286386409297819
-2.261768520637808
-2.3233132422878215
-2.3233132422878215
-2.1632969659978185
-1.1293456422776516
-1.1355001144426613
-2.261768520637808
-2.477175046412844
-2.2371506319778245
-2.1694514381628007
-2.2802319371328093
-2.587955545382853
-3.6957605350830534
-2.8341344319829105
-2.3971669082678284
-2.3540856031128428
-2.335622186617841
-2.2925408814628288
-2.2309961598128147
-2.298695353627811
-2.2925408814628288
-2.329467714452832
-2.2802319371328093
-2.2679229928028177
-2.3971669082678284
-2.3663945474428347
-2.3171587701228398
-2.3417766587828237
-2.3540856031128428
-2.304849825792821
-2.329467714452832
-2.329467714452832
-2.2740774649678275
-2.329467714452832
-2.360240075277825
-2.2802319371328093
-2.329467714452832
-2.378703491772827
-2.4217847969278394
-2.347931130947833
-2.335622186617841
-2.434093741257831
-2.4648661020828517
-2.4217847969278394
-2.3848579639378364
-2.3417766587828237
-2.4402482134228407
-2.391012436102846
-2.304849825792821
-2.3663945474428347
-2.304849825792821
-2.0955977721827947
-2.2679229928028177
-2.3171587701228398
-2.3233132422878215
-2.3540856031128428
-2.286386409297819
-2.286386409297819
-2.2802319371328093
-2.329467714452832
-2.3233132422878215
-2.249459576307816
-2.175605910327811
-2.1632969659978185
-2.286386409297819
-2.2740774649678275
-2.4894839907428636
-1.849418885582765
-2.0463619948628
-2.55718318455786
-2.249459576307816
-2.120215660842805
-2.1263701330077875
-2.089443300017785
-2.200223798987821
-2.1694514381628007
-2.138679077337807
-2.2309961598128147
-2.1694514381628007
-1.954044912387765
-1.9848172732127856
-1.966353856717784
-1.89865466290276
-1.892500190737778
-1.5970855268177266
-0.6923781185625978
-1.3016708628976748
-1.5663131659927332
-1.590931054652717
-1.5232318608377204
-1.89865466290276
-3.141858040232953
-2.2186872154828228
-1.5663131659927332
-1.6093944711477182
-1.6463213041377216
-1.5663131659927332
-1.5416952773327224
-1.615548943312728
-1.5970855268177266
-1.4924595000126994
-1.5416952773327224
-1.5847765824877347
-1.578622110322725
-1.5601586938277234
-1.6093944711477182
-1.6340123598077294
-1.6955570814577436
-1.7632562752727399
-1.8678823020777668
-1.8248009969227534
-1.861727829912757
-1.9171180793977614
-1.972508328882766
-1.9417359680577726
-2.0278985783677985
-2.083288827852803
-2.077134355687793
-2.0278985783677985
-2.0278985783677985
-2.138679077337807
-2.1448335495027893
-2.255614048472826
-2.3110042979578305
-2.224841687647805
-2.212532743317813
-2.1632969659978185
-2.2371506319778245
-2.3110042979578305
-2.224841687647805
-2.1817603824928202
-2.3110042979578305
-2.3110042979578305
-2.335622186617841
-2.372549019607845
-2.391012436102846
-2.212532743317813
-2.5325652958978484
-2.3971669082678284
-2.4402482134228407
-2.4648661020828517
-2.4587116299178424
-2.495638462907845
-2.507947407237865
-2.495638462907845
-2.5941100175478624
-2.618727906207874
-2.624882378372884
-2.2740774649678275
-2.575646601052861
-2.772589710332896
-2.68642710002287
-2.68642710002287
-2.680272627857888
-2.6987360443528896
-2.711044988682881
-2.735662877342893
-2.797207598992907
-2.7418173495078744
-2.821825487652891
-2.8464433763129016
-2.883370209302905
-2.9202970422929075
-2.96953281961293
-2.883370209302905
-2.821825487652891
-2.8525978484779113
-2.8341344319829105
-2.8402889041478923
-2.815671015487909
-2.729508405177883
-2.674118155692878
-2.618727906207874
-2.5941100175478624
-2.575646601052861
-2.55718318455786
-2.544874240227868
-2.544874240227868
-2.495638462907845
-2.5694921288878514
-2.563337656722869
-2.526410823732866
-2.520256351567857
-2.5387197680628573
-2.501792935072855
-2.495638462907845
-2.55102871239285
-2.507947407237865
-2.495638462907845
-2.526410823732866
-2.477175046412844
-2.495638462907845
-2.4648661020828517
-2.391012436102846
-2.55102871239285
-2.507947407237865
-2.477175046412844
-2.55102871239285
-2.5325652958978484
-2.501792935072855
-2.526410823732866
-2.5387197680628573
-2.581801073217871
-2.520256351567857
-2.55718318455786
-2.544874240227868
-2.1263701330077875
-0.901630172172624
-2.4525571577528327
-3.4988174258030194
-3.664988174258033
-2.723353933012873
-2.5387197680628573
-2.55102871239285
-2.563337656722869
-2.526410823732866
-2.544874240227868
-2.649500267032867
-2.6618092113628857
-2.655654739197877
-2.600264489712873
-2.3540856031128428
-2.526410823732866
-2.446402685587851
-2.391012436102846
-2.335622186617841
-2.360240075277825
-2.4279392690928487
-2.434093741257831
-2.434093741257831
-2.403321380432838
-2.434093741257831
-2.483329518577854
-2.4402482134228407
-2.434093741257831
-2.4156303247628297
-2.495638462907845
-2.4648661020828517
-2.4525571577528327
-2.434093741257831
-2.391012436102846
-2.360240075277825
-2.4402482134228407
-2.4648661020828517
-2.409475852597848
-2.378703491772827
-2.335622186617841
-2.4156303247628297
-2.4402482134228407
-2.261768520637808
-2.471020574247862
-6.680679535108453
-6.582207980468463
-3.258793011367972
-2.618727906207874
-2.446402685587851
-1.8863457185727683
-2.329467714452832
-2.680272627857888
-2.378703491772827
-2.347931130947833
-2.3110042979578305
-2.329467714452832
-2.2186872154828228
-2.224841687647805
-2.3417766587828237
-2.2679229928028177
-2.2679229928028177
-2.200223798987821
-2.1817603824928202
-1.8371099412527454
-2.1263701330077875
-2.55102871239285
-2.3848579639378364
-2.3233132422878215
-2.255614048472826
-2.3110042979578305
-2.261768520637808
-2.2309961598128147
-2.477175046412844
-2.403321380432838
-2.391012436102846
-2.3540856031128428
-2.3663945474428347
-2.3540856031128428
-2.335622186617841
-2.391012436102846
-2.3848579639378364
-2.2925408814628288
-2.3110042979578305
-2.347931130947833
-2.286386409297819
-2.261768520637808
-2.286386409297819
-2.2740774649678275
-2.347931130947833
-2.391012436102846
-2.409475852597848
-2.372549019607845
-2.391012436102846
-2.329467714452832
-2.3417766587828237
-2.3417766587828237
-2.4894839907428636
-2.2186872154828228
-2.249459576307816
-2.212532743317813
-2.4648661020828517
-2.483329518577854
-2.347931130947833
-2.2802319371328093
-2.3663945474428347
-2.3848579639378364
-2.347931130947833
-2.360240075277825
-2.378703491772827
-2.372549019607845
-2.378703491772827
-2.3540856031128428
-2.1632969659978185
-0.9139391165026156
-2.187914854657802
-2.403321380432838
-2.347931130947833
-2.434093741257831
-2.4894839907428636
-2.483329518577854
-2.8095165433228986
-4.083492281478085
-2.7848986546628876
-2.286386409297819
-2.4156303247628297
-2.5694921288878514
-2.5325652958978484
-2.4587116299178424
-2.3848579639378364
-3.9542483660130747
-3.394191398997992
-2.6618092113628857
-2.477175046412844
-2.507947407237865
-2.495638462907845
-2.4587116299178424
-2.446402685587851
-2.544874240227868
-2.471020574247862
-2.4217847969278394
-2.4648661020828517
-2.403321380432838
-2.347931130947833
-2.446402685587851
-2.3971669082678284
-2.4648661020828517
-2.495638462907845
-2.483329518577854
-2.403321380432838
-2.391012436102846
-2.4525571577528327
-2.4648661020828517
-2.409475852597848
-2.3540856031128428
-2.403321380432838
-2.372549019607845
-2.2802319371328093
-2.4525571577528327
-2.391012436102846
-2.391012436102846
-2.4156303247628297
-2.4525571577528327
-2.3971669082678284
-2.403321380432838
-2.378703491772827
-2.372549019607845
-2.3663945474428347
-2.3540856031128428
-2.3417766587828237
-2.3417766587828237
-2.335622186617841
-2.501792935072855
-2.4217847969278394
-2.4279392690928487
-2.3663945474428347
-2.360240075277825
-2.3171587701228398
-2.391012436102846
-2.2925408814628288
-2.304849825792821
-2.3110042979578305
-2.3110042979578305
-2.3540856031128428
-2.360240075277825
-2.194069326822812
-2.083288827852803
-2.391012436102846
-2.7171994608478913
-2.5141018794028467
-2.409475852597848
-2.3848579639378364
-2.391012436102846
-2.347931130947833
-2.4217847969278394
-2.403321380432838
-2.391012436102846
-2.391012436102846
-2.3848579639378364
-2.286386409297819
-2.3417766587828237
-2.471020574247862
-2.360240075277825
-2.3540856031128428
-2.3848579639378364
-2.403321380432838
-2.378703491772827
-2.391012436102846
-2.378703491772827
-2.4279392690928487
-2.4156303247628297
-2.3971669082678284
-2.4156303247628297
-2.3540856031128428
-2.3417766587828237
-2.4894839907428636
-2.446402685587851
-2.477175046412844
-2.446402685587851
-2.403321380432838
-2.403321380432838
-2.403321380432838
-2.3971669082678284
-2.471020574247862
-2.4648661020828517
-2.4894839907428636
-2.5387197680628573
-2.483329518577854
-2.471020574247862
-2.655654739197877
-2.624882378372884
-2.55718318455786
-2.581801073217871
-2.680272627857888
-2.655654739197877
-2.624882378372884
-2.581801073217871
-2.631036850537866
-2.6064189618778553
-2.5387197680628573
-2.5694921288878514
-2.501792935072855
-2.4279392690928487
-2.68642710002287
-2.2063782711528033
-1.1231911701126696
-2.4648661020828517
-2.5941100175478624
-3.664988174258033
-3.4865084814730274
-2.754126293837894
-2.618727906207874
-2.5694921288878514
-2.55102871239285
-2.5387197680628573
-2.501792935072855
-2.446402685587851
-2.563337656722869
-2.5387197680628573
-2.507947407237865
-2.483329518577854
-2.4894839907428636
-2.483329518577854
-2.4279392690928487
-2.409475852597848
-2.3848579639378364
-2.255614048472826
-2.1448335495027893
-2.0463619948628
-2.015589634037779
-1.9786628010477763
-2.0955977721827947
-2.1017522443478045
-2.114061188677796
-2.150988021667799
-2.150988021667799
-2.083288827852803
-2.1694514381628007
-2.138679077337807
-2.052516467027782
-2.015589634037779
-1.9232725515627715
-1.966353856717784
-1.9478904402227823
-1.9171180793977614
-2.1017522443478045
-2.083288827852803
-2.0586709391927913
-2.1263701330077875
-2.083288827852803
-2.0586709391927913
-2.0340530505327803
-1.9848172732127856
-2.009435161872797
-2.04020752269779
-2.04020752269779
-2.0586709391927913
-2.052516467027782
-1.9971262175427773
-1.9478904402227823
-2.187914854657802
-2.187914854657802
-2.1694514381628007
-2.1017522443478045
-2.1817603824928202
-2.2371506319778245
-2.2433051041428067
-2.200223798987821
-1.8801912464077586
-2.2433051041428067
-2.587955545382853
-2.372549019607845
-2.347931130947833
-1.7201749701177547
-1.972508328882766
-2.2679229928028177
-2.3233132422878215
-2.391012436102846
-2.3540856031128428
-2.3663945474428347
-2.4648661020828517
-2.4648661020828517
-2.4587116299178424
-2.4525571577528327
-2.495638462907845
-2.544874240227868
-2.483329518577854
-2.8341344319829105
-3.1049312072429505
-2.667963683527869
-2.575646601052861
-2.6371913227028756
-2.667963683527869
-2.618727906207874
-2.631036850537866
-2.6064189618778553
-2.667963683527869
-2.624882378372884
-2.581801073217871
-2.55102871239285
-2.581801073217871
-2.55718318455786
-2.7848986546628876
-2.6925815721878803
-2.649500267032867
-2.6371913227028756
-2.575646601052861
-2.612573434042864
-2.704890516517872
-2.6987360443528896
-2.680272627857888
-2.680272627857888
-2.6987360443528896
-2.729508405177883
-2.760280766002876
-2.5325652958978484
-2.563337656722869
-2.674118155692878
-2.729508405177883
-2.618727906207874
-2.55102871239285
-2.612573434042864
-2.575646601052861
-2.600264489712873
-2.6064189618778553
-2.563337656722869
-2.1571424938328088
-0.8216220340276081
-2.3171587701228398
-2.249459576307816
-1.5478497494977315
-2.089443300017785
-2.298695353627811
-2.3417766587828237
-2.9510694031179288
-3.75730525673304
-2.729508405177883
-2.434093741257831
-2.378703491772827
-2.335622186617841
-2.298695353627811
-2.3110042979578305
-2.224841687647805
-2.446402685587851
-3.141858040232953
-2.7848986546628876
-2.434093741257831
-2.347931130947833
-2.3848579639378364
-2.409475852597848
-2.3848579639378364
-2.409475852597848
-2.3663945474428347
-2.329467714452832
-2.446402685587851
-2.391012436102846
-2.3971669082678284
-2.360240075277825
-1.8001831082627426
-1.966353856717784
-2.2802319371328093
-2.3110042979578305
-2.3540856031128428
-2.409475852597848
-2.409475852597848
-2.3971669082678284
-2.391012436102846
-2.4217847969278394
-2.378703491772827
-2.335622186617841
-2.298695353627811
-2.2740774649678275
-2.711044988682881
-2.901833625797906
-2.4587116299178424
-2.347931130947833
-2.378703491772827
-2.335622186617841
-2.329467714452832
-2.3663945474428347
-2.2925408814628288
-2.261768520637808
-2.298695353627811
-2.3417766587828237
-2.3663945474428347
-2.298695353627811
-2.200223798987821
-2.471020574247862
-2.4525571577528327
-2.249459576307816
-1.1601180031026725
-1.3447521680526875
-2.446402685587851
-2.55718318455786
-2.3971669082678284
-2.409475852597848
-2.4156303247628297
-2.7418173495078744
-3.8434678670430653
-2.9202970422929075
-2.495638462907845
-2.6618092113628857
-2.5325652958978484
-2.4894839907428636
-2.4648661020828517
-2.4279392690928487
-2.477175046412844
-2.4279392690928487
-2.4648661020828517
-2.4587116299178424
-2.409475852597848
-2.391012436102846
-2.4279392690928487
-2.409475852597848
-2.378703491772827
-2.2925408814628288
-2.483329518577854
-2.495638462907845
-2.434093741257831
-2.403321380432838
-2.446402685587851
-2.4648661020828517
-2.471020574247862
-2.4894839907428636
-2.471020574247862
-2.4402482134228407
-2.4587116299178424
-2.471020574247862
-2.335622186617841
-1.6032399989827366
-1.9786628010477763
-2.3233132422878215
-2.3848579639378364
-2.360240075277825
-2.360240075277825
-2.372549019607845
-2.3540856031128428
-2.286386409297819
-2.446402685587851
-2.4217847969278394
-2.4279392690928487
-2.3848579639378364
-2.403321380432838
-2.5387197680628573
-2.4525571577528327
-2.378703491772827
-2.4525571577528327
-2.434093741257831
-2.120215660842805
-1.2832074464026733
-1.9355814958927628
-2.261768520637808
-2.4525571577528327
-3.560362147453033
-3.215711706212987
-2.520256351567857
-2.372549019607845
-2.760280766002876
-2.858752320642893
-2.4894839907428636
-2.4648661020828517
-2.372549019607845
-2.329467714452832
-2.347931130947833
-2.3540856031128428
-2.347931130947833
-2.360240075277825
-2.3417766587828237
-2.360240075277825
-2.304849825792821
-2.329467714452832
-2.335622186617841
-2.4156303247628297
-2.3540856031128428
-2.3233132422878215
-2.372549019607845
-2.403321380432838
-2.335622186617841
-2.2802319371328093
-2.372549019607845
-2.360240075277825
-2.3663945474428347
-2.3540856031128428
-2.3417766587828237
-2.3110042979578305
-2.212532743317813
-2.378703491772827
-2.4402482134228407
-2.286386409297819
-2.2740774649678275
-2.347931130947833
-2.3171587701228398
-2.3110042979578305
-2.4217847969278394
-2.372549019607845
-2.3171587701228398
-2.335622186617841
-2.372549019607845
-2.403321380432838
-2.329467714452832
-2.2925408814628288
-2.4648661020828517
-2.4648661020828517
-2.360240075277825
-2.335622186617841
-2.4402482134228407
-2.409475852597848
-2.3663945474428347
-2.391012436102846
-2.4279392690928487
-2.477175046412844
-2.347931130947833
-1.972508328882766
-2.3171587701228398
-2.735662877342893
-2.5694921288878514
-2.434093741257831
-2.4402482134228407
-2.434093741257831
-2.4279392690928487
-2.3971669082678284
-2.391012436102846
-2.4402482134228407
-2.4587116299178424
-2.3663945474428347
-2.4279392690928487
-2.4402482134228407
-2.335622186617841
-2.2740774649678275
-2.4217847969278394
-2.372549019607845
-2.3540856031128428
-2.4156303247628297
-2.378703491772827
-2.360240075277825
-2.3971669082678284
-2.347931130947833
-2.3971669082678284
-2.409475852597848
-2.360240075277825
-2.403321380432838
-2.403321380432838
-2.249459576307816
-2.520256351567857
-2.409475852597848
-2.3540856031128428
-2.403321380432838
-2.391012436102846
-2.434093741257831
-2.4156303247628297
-2.3233132422878215
-2.347931130947833
-2.329467714452832
-2.335622186617841
-2.3110042979578305
-2.335622186617841
-2.2740774649678275
-2.3110042979578305
-2.3848579639378364
-2.329467714452832
-2.347931130947833
-2.378703491772827
-2.3417766587828237
-2.3233132422878215
-2.3663945474428347
-2.298695353627811
-2.304849825792821
-2.304849825792821
-2.255614048472826
-2.286386409297819
-1.89865466290276
-1.4986139721777092
-3.406500343328012
-2.483329518577854
-2.304849825792821
-2.347931130947833
-2.298695353627811
-2.249459576307816
-2.298695353627811
-2.347931130947833
-2.3971669082678284
-2.3971669082678284
-2.4156303247628297
-2.409475852597848
-2.3663945474428347
-2.4279392690928487
-2.563337656722869
-2.4402482134228407
-2.409475852597848
-2.409475852597848
-2.3971669082678284
-2.403321380432838
-2.403321380432838
-2.3663945474428347
-2.391012436102846
-2.372549019607845
-2.372549019607845
-2.434093741257831
-2.4217847969278394
-2.3171587701228398
-2.526410823732866
-2.409475852597848
-2.3971669082678284
-2.286386409297819
-2.3971669082678284
-2.403321380432838
-2.4525571577528327
-2.501792935072855
-2.4279392690928487
-2.347931130947833
-2.409475852597848
-2.378703491772827
-2.3110042979578305
-2.224841687647805
-2.4156303247628297
-2.335622186617841
-2.3663945474428347
-2.3971669082678284
-2.329467714452832
-2.403321380432838
-2.4156303247628297
-2.3540856031128428
-2.329467714452832
-2.3663945474428347
-2.347931130947833
-2.372549019607845
-2.3540856031128428
-2.3171587701228398
-2.544874240227868
-2.446402685587851
-2.4156303247628297
-2.3971669082678284
-2.360240075277825
-2.335622186617841
-2.015589634037779
-2.3110042979578305
-2.680272627857888
-2.403321380432838
-2.3233132422878215
-2.3110042979578305
-2.3417766587828237
-2.1571424938328088
-2.0586709391927913
-2.304849825792821
-2.2925408814628288
-2.298695353627811
-2.335622186617841
-2.391012436102846
-2.3848579639378364
-2.329467714452832
-2.3417766587828237
-2.378703491772827
-2.335622186617841
-2.3417766587828237
-2.372549019607845
-2.3663945474428347
-2.55102871239285
-2.4402482134228407
-2.3110042979578305
-2.403321380432838
-2.3663945474428347
-2.347931130947833
-2.3417766587828237
-2.3663945474428347
-2.3417766587828237
-2.329467714452832
-2.304849825792821
-2.360240075277825
-2.378703491772827
-2.2740774649678275
-2.2679229928028177
-2.403321380432838
-2.347931130947833
-2.3848579639378364
-2.3540856031128428
-2.347931130947833
-2.3848579639378364
-2.360240075277825
-2.3417766587828237
-2.3540856031128428
-2.3971669082678284
-2.3971669082678284
-2.378703491772827
-2.335622186617841
-2.2309961598128147
-2.507947407237865
-2.391012436102846
-2.378703491772827
-2.3417766587828237
-2.391012436102846
-2.4156303247628297
-2.3971669082678284
-2.04020752269779
-0.8277765061926179
-2.2186872154828228
-2.304849825792821
-2.378703491772827
-2.5941100175478624
-3.597288980443037
-3.080313318582939
-2.5325652958978484
-2.3848579639378364
-2.3540856031128428
-2.378703491772827
-2.403321380432838
-2.1017522443478045
-0.7169960072226089
-1.5847765824877347
-2.55718318455786
-2.495638462907845
-2.434093741257831
-2.360240075277825
-2.249459576307816
-2.8095165433228986
-3.849622339208075
-2.907988097962916
-2.446402685587851
-2.3663945474428347
-2.409475852597848
-2.4279392690928487
-2.3417766587828237
-2.3663945474428347
-2.403321380432838
-2.360240075277825
-2.347931130947833
-2.360240075277825
-2.212532743317813
-1.9478904402227823
-2.255614048472826
-2.2433051041428067
-2.378703491772827
-2.403321380432838
-2.335622186617841
-2.3171587701228398
-2.3417766587828237
-2.3848579639378364
-2.3663945474428347
-2.372549019607845
-2.434093741257831
-2.378703491772827
-2.391012436102846
-2.68642710002287
-2.600264489712873
-2.4402482134228407
-2.360240075277825
-2.3540856031128428
-2.4525571577528327
-2.409475852597848
-2.409475852597848
-2.403321380432838
-2.372549019607845
-2.378703491772827
-2.3848579639378364
-2.4525571577528327
-2.347931130947833
-2.0586709391927913
-2.3540856031128428
-2.4156303247628297
-2.372549019607845
-2.403321380432838
-2.3417766587828237
-2.329467714452832
-2.4156303247628297
-2.403321380432838
-2.378703491772827
-2.403321380432838
-2.3233132422878215
-2.3417766587828237
-2.2925408814628288
-2.083288827852803
-2.507947407237865
-2.7848986546628876
-2.446402685587851
-2.3971669082678284
-2.3663945474428347
-2.3417766587828237
-2.3417766587828237
-2.403321380432838
-2.372549019607845
-2.378703491772827
-2.391012436102846
-2.4217847969278394
-2.329467714452832
-2.194069326822812
-2.378703491772827
-2.347931130947833
-2.3233132422878215
-2.3110042979578305
-2.3233132422878215
-2.3110042979578305
-2.3110042979578305
-2.3171587701228398
-2.335622186617841
-2.3663945474428347
-2.286386409297819
-2.335622186617841
-2.3417766587828237
-2.2433051041428067
-2.335622186617841
-2.3417766587828237
-2.3171587701228398
-2.298695353627811
-2.298695353627811
-2.3110042979578305
-2.286386409297819
-2.304849825792821
-2.298695353627811
-2.286386409297819
-2.304849825792821
-2.2740774649678275
-2.298695353627811
-2.255614048472826
-2.2371506319778245
-2.391012436102846
-2.0278985783677985
-0.8770122835126126
-3.0680043742529195
-3.6465247577630313
-2.655654739197877
-2.4402482134228407
-2.495638462907845
-2.4648661020828517
-2.471020574247862
-2.4525571577528327
-2.3848579639378364
-2.4648661020828517
-2.3540856031128428
-2.612573434042864
-2.563337656722869
-2.378703491772827
-2.4894839907428636
-2.471020574247862
-2.4156303247628297
-2.4894839907428636
-2.507947407237865
-2.5325652958978484
-2.5387197680628573
-2.507947407237865
-2.55102871239285
-2.501792935072855
-2.483329518577854
-2.5694921288878514
-2.4156303247628297
-2.3417766587828237
-2.378703491772827
-2.3663945474428347
-2.4279392690928487
-2.434093741257831
-2.347931130947833
-2.329467714452832
-2.372549019607845
-2.329467714452832
-2.360240075277825
-2.335622186617841
-2.1632969659978185
-2.4402482134228407
-2.360240075277825
-2.372549019607845
-2.372549019607845
-2.2925408814628288
-2.286386409297819
-2.194069326822812
-2.1632969659978185
-2.187914854657802
-2.2186872154828228
-2.1448335495027893
-2.1571424938328088
-2.1571424938328088
-2.138679077337807
-2.304849825792821
-2.212532743317813
-2.212532743317813
-2.1694514381628007
-2.114061188677796
-2.1571424938328088
-2.2063782711528033
-2.224841687647805
-2.1325246051727973
-1.7386383866127564
-2.077134355687793
-2.477175046412844
-2.249459576307816
-1.8678823020777668
-1.1724269474326645
-1.8678823020777668
-2.1448335495027893
-2.1632969659978185
-2.1325246051727973
-2.175605910327811
-2.212532743317813
-2.150988021667799
-2.200223798987821
-2.249459576307816
-2.2802319371328093
-2.261768520637808
-2.1694514381628007
-2.4402482134228407
-3.24648406703798
-2.6925815721878803
-2.4156303247628297
-2.378703491772827
-2.304849825792821
-2.255614048472826
-2.261768520637808
-2.2740774649678275
-2.2433051041428067
-2.261768520637808
-2.175605910327811
-2.150988021667799
-2.187914854657802
-2.083288827852803
-1.6709391927977324
-1.9478904402227823
-2.0278985783677985
-1.9478904402227823
-1.9848172732127856
-1.9786628010477763
-1.9355814958927628
-1.9355814958927628
-1.9417359680577726
-2.1325246051727973
-2.1448335495027893
-2.089443300017785
-2.1263701330077875
-2.2063782711528033
-2.631036850537866
-2.711044988682881
-2.372549019607845
-2.3540856031128428
-2.3663945474428347
-2.372549019607845
-2.4156303247628297
-2.483329518577854
-2.4648661020828517
-2.4894839907428636
-2.5141018794028467
-2.200223798987821
-2.2433051041428067
-4.945118384578229
-3.117240151572942
-2.6371913227028756
-2.575646601052861
-2.471020574247862
-1.849418885582765
-1.9355814958927628
-2.5941100175478624
-2.772589710332896
-2.631036850537866
-2.6064189618778553
-2.735662877342893
-3.1295490959029335
-2.772589710332896
-2.5941100175478624
-2.674118155692878
-2.704890516517872
-2.649500267032867
-2.587955545382853
-2.612573434042864
-2.631036850537866
-2.5694921288878514
-2.520256351567857
-2.5141018794028467
-2.520256351567857
-2.55718318455786
-2.587955545382853
-2.618727906207874
-2.649500267032867
-2.5694921288878514
-2.587955545382853
-2.624882378372884
-2.563337656722869
-2.5387197680628573
-2.5325652958978484
-2.544874240227868
-2.618727906207874
-2.587955545382853
-2.631036850537866
-2.612573434042864
-2.587955545382853
-2.55102871239285
-2.483329518577854
-2.4648661020828517
-2.261768520637808
-1.4186058340326935
-2.0340530505327803
-2.3110042979578305
-2.3663945474428347
-1.9294270237277809
-0.9570204216576284
-1.9355814958927628
-3.424963759823013
-3.517280842298021
-2.624882378372884
-2.3971669082678284
-2.3971669082678284
-2.3540856031128428
-2.3540856031128428
-2.507947407237865
-2.3540856031128428
-2.3540856031128428
-2.3233132422878215
-2.261768520637808
-2.2679229928028177
-2.2371506319778245
-2.224841687647805
-2.2186872154828228
-2.255614048472826
-2.1694514381628007
-2.200223798987821
-2.212532743317813
-2.1263701330077875
-2.175605910327811
-2.2371506319778245
-2.224841687647805
-2.212532743317813
-2.249459576307816
-2.200223798987821
-2.187914854657802
-2.175605910327811
-2.175605910327811
-2.212532743317813
-1.9601993845527748
-1.3385976958876775
-1.3324432237226955
-1.4924595000126994
-2.495638462907845
-2.212532743317813
-2.0955977721827947
-2.0955977721827947
-2.4648661020828517
-3.511126370133011
-2.5387197680628573
-2.1448335495027893
-2.0955977721827947
-2.083288827852803
-2.077134355687793
-2.1079067165127863
-2.089443300017785
-1.892500190737778
-1.6217034154777374
-2.003280689707787
-2.1263701330077875
-2.120215660842805
-2.114061188677796
-2.1571424938328088
-2.1571424938328088
-2.175605910327811
-2.2063782711528033
-2.194069326822812
-2.175605910327811
-2.187914854657802
-2.212532743317813
-2.175605910327811
-1.972508328882766
-2.175605910327811
-2.224841687647805
-2.2371506319778245
-2.261768520637808
-1.8432644134177558
-0.7293049515526008
-2.2063782711528033
-3.258793011367972
-3.554207675288024
-2.612573434042864
-2.335622186617841
-2.2679229928028177
-2.391012436102846
-3.154166984562973
-2.8033620711578893
-2.4587116299178424
-2.403321380432838
-2.3971669082678284
-2.3663945474428347
-2.360240075277825
-2.391012436102846
-2.3540856031128428
-2.335622186617841
-2.3171587701228398
-2.2802319371328093
-2.329467714452832
-2.2802319371328093
-2.1448335495027893
-2.4279392690928487
-2.4217847969278394
-2.563337656722869
-2.304849825792821
-2.391012436102846
-2.3971669082678284
-2.409475852597848
-2.4587116299178424
-2.4587116299178424
-2.434093741257831
-2.4217847969278394
-2.3848579639378364
-2.4217847969278394
-2.2740774649678275
-2.446402685587851
-2.4156303247628297
-2.3848579639378364
-2.3971669082678284
-2.477175046412844
-2.4894839907428636
-2.4217847969278394
-2.4217847969278394
-2.477175046412844
-2.501792935072855
-2.4648661020828517
-2.4279392690928487
-2.501792935072855
-2.3663945474428347
-2.5141018794028467
-2.526410823732866
-2.4894839907428636
-2.4279392690928487
-2.3971669082678284
-2.409475852597848
-2.434093741257831
-2.434093741257831
-2.409475852597848
-2.3971669082678284
-2.409475852597848
-2.403321380432838
-2.0217441062027888
-2.304849825792821
-2.735662877342893
-2.55102871239285
-2.4894839907428636
-2.4648661020828517
-2.446402685587851
-2.477175046412844
-2.403321380432838
-2.4648661020828517
-2.434093741257831
-2.4156303247628297
-2.4156303247628297
-2.4402482134228407
-2.4648661020828517
-2.4279392690928487
-2.4217847969278394
-2.446402685587851
-2.409475852597848
-2.4402482134228407
-2.391012436102846
-2.372549019607845
-2.335622186617841
-2.378703491772827
-2.304849825792821
-2.3233132422878215
-2.3233132422878215
-2.304849825792821
-2.360240075277825
-2.2740774649678275
-2.347931130947833
-2.4525571577528327
-2.304849825792821
-2.2925408814628288
-2.2371506319778245
-2.2740774649678275
-2.335622186617841
-2.329467714452832
-2.2802319371328093
-2.261768520637808
-2.298695353627811
-2.3233132422878215
-2.224841687647805
-2.255614048472826
-2.150988021667799
-2.372549019607845
-2.3417766587828237
-2.286386409297819
-2.304849825792821
-2.3233132422878215
-2.3233132422878215
-2.391012436102846
-2.329467714452832
-2.298695353627811
-2.347931130947833
-2.3971669082678284
-2.347931130947833
-2.2925408814628288
-1.8740367742427766
-1.3016708628976748
-1.892500190737778
-2.1632969659978185
-2.329467714452832
-2.304849825792821
-2.329467714452832
-2.723353933012873
-3.732687368073057
-2.7910531268278973
-2.391012436102846
-2.3971669082678284
-2.372549019607845
-2.3540856031128428
-2.2433051041428067
-2.3848579639378364
-2.372549019607845
-2.3971669082678284
-2.3848579639378364
-2.3233132422878215
-2.347931130947833
-2.403321380432838
-2.3540856031128428
-2.286386409297819
-2.3540856031128428
-2.3663945474428347
-2.335622186617841
-2.329467714452832
-2.083288827852803
-1.6463213041377216
-2.1448335495027893
-2.249459576307816
-2.347931130947833
-2.3540856031128428
-2.335622186617841
-2.3233132422878215
-2.3233132422878215
-2.335622186617841
-2.329467714452832
-2.2371506319778245
-2.3663945474428347
-2.335622186617841
-2.409475852597848
-2.9633783474479203
-2.6433457948678853
-2.347931130947833
-2.3233132422878215
-2.335622186617841
-2.3848579639378364
-2.360240075277825
-2.298695353627811
-2.261768520637808
-2.335622186617841
-2.329467714452832
-2.3233132422878215
-2.3540856031128428
-2.3663945474428347
-2.298695353627811
-2.329467714452832
-2.3233132422878215
-2.3233132422878215
-2.3171587701228398
-2.347931130947833
-2.347931130947833
-1.9601993845527748
-2.2802319371328093
-2.624882378372884
-2.4279392690928487
-2.378703491772827
-2.4217847969278394
-2.372549019607845
-2.261768520637808
-2.4894839907428636
-2.409475852597848
-2.446402685587851
-2.4648661020828517
-2.378703491772827
-2.403321380432838
-2.434093741257831
-2.4217847969278394
-2.4402482134228407
-2.4402482134228407
-2.4525571577528327
-2.446402685587851
-2.4217847969278394
-2.304849825792821
-2.6064189618778553
-2.4894839907428636
-2.4156303247628297
-2.4525571577528327
-2.403321380432838
-2.4525571577528327
-2.4525571577528327
-2.471020574247862
-2.4648661020828517
-2.4648661020828517
-2.495638462907845
-2.4894839907428636
-2.4279392690928487
-2.4279392690928487
-2.520256351567857
-2.526410823732866
-2.526410823732866
-2.520256351567857
-2.526410823732866
-2.4894839907428636
-2.520256351567857
-2.477175046412844
-2.477175046412844
-2.575646601052861
-2.526410823732866
-2.526410823732866
-2.471020574247862
-2.4156303247628297
-2.581801073217871
-2.612573434042864
-2.526410823732866
-2.4587116299178424
-2.4525571577528327
-2.4587116299178424
-2.4217847969278394
-2.4402482134228407
-2.083288827852803
-0.7662317845426038
-2.2679229928028177
-2.4217847969278394
-3.4311182319879947
-3.394191398997992
-2.501792935072855
-2.403321380432838
-2.3417766587828237
-2.347931130947833
-2.3971669082678284
-2.409475852597848
-2.372549019607845
-2.3848579639378364
-2.378703491772827
-2.4156303247628297
-2.3848579639378364
-2.3663945474428347
-2.4217847969278394
-2.2925408814628288
-2.1263701330077875
-2.360240075277825
-2.360240075277825
-2.360240075277825
-2.4217847969278394
-2.391012436102846
-2.378703491772827
-2.3663945474428347
-2.304849825792821
-2.3110042979578305
-2.3971669082678284
-2.378703491772827
-2.360240075277825
-2.3540856031128428
-2.372549019607845
-2.3233132422878215
-1.1355001144426613
-1.2401261412476885
-2.409475852597848
-2.495638462907845
-2.3971669082678284
-2.2371506319778245
-2.2802319371328093
-2.6987360443528896
-3.701915007248036
-2.772589710332896
-2.4156303247628297
-2.304849825792821
-2.150988021667799
-2.391012436102846
-2.391012436102846
-2.3663945474428347
-2.378703491772827
-2.286386409297819
-2.255614048472826
-2.286386409297819
-2.286386409297819
-2.2740774649678275
-2.3110042979578305
-2.2925408814628288
-2.2925408814628288
-2.286386409297819
-2.3417766587828237
-2.446402685587851
-2.3540856031128428
-2.329467714452832
-2.409475852597848
-2.335622186617841
-2.335622186617841
-2.372549019607845
-2.4217847969278394
-2.4156303247628297
-2.360240075277825
-2.3233132422878215
-2.335622186617841
-2.2433051041428067
-2.2925408814628288
-2.2371506319778245
-2.3171587701228398
-2.2925408814628288
-2.3233132422878215
-2.2925408814628288
-2.261768520637808
-2.261768520637808
-2.335622186617841
-2.3663945474428347
-2.347931130947833
-2.347931130947833
-2.391012436102846
-2.3663945474428347
-2.347931130947833
-2.304849825792821
-2.4648661020828517
-2.4587116299178424
-2.4525571577528327
-2.4156303247628297
-2.409475852597848
-2.4525571577528327
-2.403321380432838
-2.009435161872797
-2.4156303247628297
-2.871061264972913
-2.649500267032867
-2.526410823732866
-2.434093741257831
-2.335622186617841
-2.581801073217871
-2.5387197680628573
-2.4894839907428636
-2.477175046412844
-2.4525571577528327
-2.403321380432838
-2.4525571577528327
-2.4402482134228407
-2.4402482134228407
-2.4525571577528327
-2.4525571577528327
-2.403321380432838
-2.3417766587828237
-2.261768520637808
-2.520256351567857
-2.434093741257831
-2.3971669082678284
-1.3078253350626845
-1.5601586938277234
-2.2433051041428067
-2.347931130947833
-2.286386409297819
-2.3417766587828237
-2.2925408814628288
-2.8279799598179
-3.781923145393051
-2.735662877342893
-2.3171587701228398
-2.409475852597848
-2.4156303247628297
-2.372549019607845
-2.298695353627811
-2.3540856031128428
-2.3417766587828237
-2.304849825792821
-2.3110042979578305
-2.2925408814628288
-2.298695353627811
-2.3233132422878215
-2.3417766587828237
-2.2740774649678275
-2.3171587701228398
-2.434093741257831
-2.3848579639378364
-2.372549019607845
-2.3171587701228398
-2.329467714452832
-2.360240075277825
-2.2679229928028177
-2.3540856031128428
-2.372549019607845
-2.3663945474428347
-2.3171587701228398
-2.360240075277825
-2.3663945474428347
-2.249459576307816
-2.2063782711528033
-2.4279392690928487
-2.3663945474428347
-2.3663945474428347
-2.3233132422878215
-2.3417766587828237
-2.3971669082678284
-2.3233132422878215
-2.335622186617841
-2.372549019607845
-2.335622186617841
-2.360240075277825
-2.3848579639378364
-2.335622186617841
-2.3417766587828237
-2.4894839907428636
-2.446402685587851
-2.4217847969278394
-2.3417766587828237
-2.3540856031128428
-2.335622186617841
-2.329467714452832
-2.360240075277825
-2.3171587701228398
-2.009435161872797
-2.3233132422878215
-2.680272627857888
-2.3971669082678284
-2.2802319371328093
-2.495638462907845
-2.3663945474428347
-2.3417766587828237
-2.335622186617841
-2.304849825792821
-2.298695353627811
-2.298695353627811
-2.329467714452832
-2.335622186617841
-2.298695353627811
-2.3417766587828237
-2.3971669082678284
-2.2740774649678275
-2.2186872154828228
-2.409475852597848
-2.3663945474428347
-2.3233132422878215
-2.3233132422878215
-2.2679229928028177
-2.255614048472826
-2.2186872154828228
-2.2925408814628288
-2.3540856031128428
-2.360240075277825
-2.335622186617841
-2.2925408814628288
-2.2740774649678275
-2.212532743317813
-2.3417766587828237
-2.329467714452832
-2.2925408814628288
-2.3110042979578305
-2.2679229928028177
-2.2679229928028177
-2.286386409297819
-2.3110042979578305
-2.2740774649678275
-2.286386409297819
-2.2925408814628288
-2.3417766587828237
-2.304849825792821
-2.2433051041428067
-2.3663945474428347
-2.4648661020828517
-2.3417766587828237
-2.391012436102846
-2.403321380432838
-2.298695353627811
-2.3233132422878215
-2.329467714452832
-2.335622186617841
-2.3417766587828237
-2.347931130947833
-1.9971262175427773
-0.7846952010376053
-2.1263701330077875
-2.2433051041428067
-2.507947407237865
-3.597288980443037
-3.3203377330179857
-2.5325652958978484
-2.446402685587851
-2.360240075277825
-2.347931130947833
-2.372549019607845
-2.3971669082678284
-2.3663945474428347
-2.3171587701228398
-2.347931130947833
-2.2925408814628288
-2.2309961598128147
-2.4402482134228407
-2.3663945474428347
-2.3233132422878215
-2.3663945474428347
-2.3663945474428347
-2.3540856031128428
-2.3663945474428347
-2.5941100175478624
-2.5141018794028467
-2.3971669082678284
-2.372549019607845
-2.3417766587828237
-2.249459576307816
-2.2186872154828228
-2.4525571577528327
-2.3540856031128428
-2.329467714452832
-2.298695353627811
-2.4279392690928487
-2.3848579639378364
-2.2802319371328093
-2.329467714452832
-2.3417766587828237
-2.3540856031128428
-2.3233132422878215
-2.304849825792821
-2.249459576307816
-2.224841687647805
-2.335622186617841
-2.261768520637808
-2.255614048472826
-2.2679229928028177
-2.2186872154828228
-2.1448335495027893
-2.2371506319778245
-2.2679229928028177
-2.003280689707787
-2.0463619948628
-2.089443300017785
-2.0955977721827947
-2.1079067165127863
-2.009435161872797
-2.0463619948628
-2.150988021667799
-2.0955977721827947
-2.070979883522784
-1.6463213041377216
-2.0340530505327803
-2.483329518577854
-2.150988021667799
-2.0586709391927913
-2.077134355687793
-2.0340530505327803
-2.1017522443478045
-2.1263701330077875
-2.1079067165127863
-2.1632969659978185
-2.120215660842805
-2.083288827852803
-2.114061188677796
-2.064825411357801
-2.070979883522784
-2.0463619948628
-2.015589634037779
-2.0217441062027888
-2.052516467027782
-2.04020752269779
-2.052516467027782
-2.015589634037779
-1.9171180793977614
-1.8432644134177558
-2.0278985783677985
-2.003280689707787
-2.0217441062027888
-2.077134355687793
-2.052516467027782
-2.1017522443478045
-2.175605910327811
-2.175605910327811
-2.138679077337807
-2.175605910327811
-2.249459576307816
-2.2740774649678275
-2.255614048472826
-2.212532743317813
-2.3663945474428347
-2.298695353627811
-2.391012436102846
-2.360240075277825
-2.1263701330077875
-0.8216220340276081
-2.015589634037779
-2.335622186617841
-2.3848579639378364
-2.4217847969278394
-2.391012436102846
-2.403321380432838
-2.821825487652891
-3.8434678670430653
-3.043386485592936
-2.581801073217871
-2.5141018794028467
-2.477175046412844
-2.507947407237865
-2.249459576307816
-1.9048091350677696
-3.4434271763180146
-2.815671015487909
-2.6064189618778553
-2.587955545382853
-2.55102871239285
-2.4525571577528327
-2.255614048472826
-2.298695353627811
-2.391012436102846
-2.360240075277825
-2.3971669082678284
-2.347931130947833
-2.372549019607845
-2.372549019607845
-2.360240075277825
-2.3971669082678284
-2.4648661020828517
-2.446402685587851
-2.507947407237865
-2.575646601052861
-2.575646601052861
-2.649500267032867
-2.680272627857888
-2.600264489712873
-2.735662877342893
-2.704890516517872
-2.6925815721878803
-2.680272627857888
-2.6064189618778553
-2.4894839907428636
-2.378703491772827
-2.3971669082678284
-2.434093741257831
-2.378703491772827
-2.3417766587828237
-2.4279392690928487
-2.471020574247862
-2.3663945474428347
-2.409475852597848
-2.3540856031128428
-2.3171587701228398
-2.3540856031128428
-2.335622186617841
-2.347931130947833
-2.3540856031128428
-2.3663945474428347
-2.372549019607845
-2.3417766587828237
-2.2186872154828228
-2.070979883522784
-2.298695353627811
-2.200223798987821
-2.1263701330077875
-2.2063782711528033
-2.194069326822812
-2.150988021667799
-2.2063782711528033
-2.261768520637808
-2.194069326822812
-2.150988021667799
-2.1632969659978185
-2.1817603824928202
-1.757101803107758
-1.9971262175427773
-2.667963683527869
-2.286386409297819
-2.224841687647805
-2.212532743317813
-2.194069326822812
-2.2371506319778245
-2.2679229928028177
-2.1263701330077875
-2.0955977721827947
-2.1632969659978185
-2.2371506319778245
-2.200223798987821
-2.1079067165127863
-2.1079067165127863
-2.2740774649678275
-2.2309961598128147
-2.1817603824928202
-2.1632969659978185
-2.2433051041428067
-2.2679229928028177
-2.2371506319778245
-2.175605910327811
-2.1632969659978185
-2.194069326822812
-2.175605910327811
-2.1448335495027893
-2.175605910327811
-2.070979883522784
-2.2186872154828228
-2.187914854657802
-2.1632969659978185
-2.212532743317813
-2.200223798987821
-2.175605910327811
-2.1448335495027893
-2.120215660842805
-2.1263701330077875
-2.1448335495027893
-2.150988021667799
-2.1817603824928202
-2.138679077337807
-2.1079067165127863
-2.2063782711528033
-2.2925408814628288
-2.194069326822812
-2.1817603824928202
-2.212532743317813
-2.261768520637808
-2.2802319371328093
-2.249459576307816
-2.2371506319778245
-2.2433051041428067
-2.2186872154828228
-2.2186872154828228
-2.2063782711528033
-2.1694514381628007
-1.855573357747775
-1.1293456422776516
-1.8124920525927626
-2.1448335495027893
-2.261768520637808
-2.4217847969278394
-3.6034434526080172
-3.1110856794079322
-2.477175046412844
-2.409475852597848
-2.391012436102846
-2.378703491772827
-2.3848579639378364
-2.3171587701228398
-2.261768520637808
-2.4894839907428636
-2.4279392690928487
-2.3848579639378364
-2.372549019607845
-2.3971669082678284
-2.409475852597848
-2.483329518577854
-2.3971669082678284
-2.3848579639378364
-2.4279392690928487
-2.4217847969278394
-2.4156303247628297
-2.378703491772827
-2.2371506319778245
-2.507947407237865
-2.471020574247862
-2.3171587701228398
-2.360240075277825
-2.4217847969278394
-2.4402482134228407
-2.3540856031128428
-2.3417766587828237
-2.391012436102846
-2.391012436102846
-2.3417766587828237
-2.3540856031128428
-2.335622186617841
-2.224841687647805
-2.4217847969278394
-2.3663945474428347
-2.3233132422878215
-2.360240075277825
-2.3417766587828237
-2.335622186617841
-2.335622186617841
-2.286386409297819
-2.3233132422878215
-2.3540856031128428
-2.286386409297819
-2.347931130947833
-2.360240075277825
-2.2740774649678275
-2.3663945474428347
-2.372549019607845
-2.3540856031128428
-2.372549019607845
-2.3540856031128428
-2.3663945474428347
-2.304849825792821
-1.990971745377768
-2.4402482134228407
-2.8279799598179
-2.3663945474428347
-2.3663945474428347
-2.304849825792821
-2.403321380432838
-2.3848579639378364
-2.4525571577528327
-2.403321380432838
-2.4279392690928487
-2.446402685587851
-2.4525571577528327
-2.3848579639378364
-2.434093741257831
-2.483329518577854
-3.8865491721980785
-35.45283690648762
-27.93822639302154
-3.504971897968029
-1.4924595000126994
-1.6093944711477182
-2.015589634037779
-2.1448335495027893
-2.2371506319778245
-2.2186872154828228
-2.2802319371328093
-2.3171587701228398
-2.3233132422878215
-2.347931130947833
-2.372549019607845
-2.329467714452832
-2.3417766587828237
-2.329467714452832
-2.304849825792821
-2.4648661020828517
-2.520256351567857
-2.3663945474428347
-2.3417766587828237
-2.335622186617841
-2.4217847969278394
-2.360240075277825
-2.3417766587828237
-2.372549019607845
-2.446402685587851
-2.360240075277825
-2.3110042979578305
-2.378703491772827
-2.3233132422878215
-1.7324839144477464
-1.6340123598077294
-2.2063782711528033
-2.329467714452832
-2.3971669082678284
-2.3848579639378364
-2.372549019607845
-2.3417766587828237
-2.347931130947833
-2.0340530505327803
-1.184735891762656
-2.501792935072855
-3.652679229928041
-2.6618092113628857
-2.7848986546628876
-3.2034027618829675
-2.600264489712873
-2.4402482134228407
-2.3540856031128428
-2.304849825792821
-2.3848579639378364
-2.3663945474428347
-2.3110042979578305
-2.298695353627811
-2.3663945474428347
-2.335622186617841
-2.2925408814628288
-2.255614048472826
-2.3540856031128428
-2.391012436102846
-2.329467714452832
-2.298695353627811
-2.304849825792821
-2.2740774649678275
-2.286386409297819
-2.329467714452832
-2.335622186617841
-2.304849825792821
-2.304849825792821
-2.2371506319778245
-2.2433051041428067
-2.261768520637808
-2.2186872154828228
-2.434093741257831
-2.372549019607845
-2.2433051041428067
-2.212532743317813
-2.194069326822812
-2.2186872154828228
-2.255614048472826
-2.2679229928028177
-2.2371506319778245
-2.212532743317813
-2.2186872154828228
-2.2371506319778245
-2.224841687647805
-2.120215660842805
-1.7324839144477464
-2.052516467027782
-2.224841687647805
-2.261768520637808
-2.200223798987821
-2.212532743317813
-2.1694514381628007
-2.200223798987821
-2.249459576307816
-1.954044912387765
