4.1942727804480935
4.1942727804480935
4.181963836118102
4.145037003128072
4.2065817247780855
4.212736196943095
4.212736196943095
4.212736196943095
4.1942727804480935
4.1758093639530935
4.188118308283084
4.1942727804480935
4.181963836118102
4.1942727804480935
4.200427252613103
4.200427252613103
4.157345947458091
4.169654891788083
4.212736196943095
4.212736196943095
4.212736196943095
4.212736196943095
4.218890669108104
4.212736196943095
4.181963836118102
4.188118308283084
4.200427252613103
4.200427252613103
4.200427252613103
4.200427252613103
4.2065817247780855
4.200427252613103
4.2065817247780855
4.212736196943095
4.2065817247780855
4.2065817247780855
4.212736196943095
4.2065817247780855
4.200427252613103
4.2065817247780855
4.200427252613103
4.2065817247780855
4.218890669108104
4.2065817247780855
4.212736196943095
4.225045141273086
4.243508557768089
4.255817502098108
4.249663029933098
4.249663029933098
4.243508557768089
4.243508557768089
4.237354085603107
4.237354085603107
4.225045141273086
4.218890669108104
4.212736196943095
4.212736196943095
4.218890669108104
4.212736196943095
4.2065817247780855
4.212736196943095
4.200427252613103
4.1942727804480935
4.2065817247780855
4.200427252613103
4.212736196943095
4.2065817247780855
4.2065817247780855
4.200427252613103
4.200427252613103
4.200427252613103
4.2065817247780855
4.212736196943095
4.2065817247780855
4.212736196943095
4.212736196943095
4.212736196943095
4.212736196943095
4.1942727804480935
4.181963836118102
4.188118308283084
4.249663029933098
4.428142722718132
4.5943134711731455
4.760484219628157
4.889728135093197
4.809719996948181
4.52661427735815
4.12657358663307
3.855776811373057
3.8803947000330408
3.9665573103430645
4.021947559828071
4.0465654484880815
4.1327280587980795
4.1942727804480935
4.231199613438097
4.231199613438097
4.231199613438097
4.237354085603107
4.243508557768089
4.243508557768089
4.243508557768089
4.249663029933098
4.249663029933098
4.261971974263091
4.255817502098108
4.261971974263091
4.2681264464281
4.261971974263091
4.27428091859311
4.280435390758093
4.280435390758093
4.280435390758093
4.292744335088111
4.292744335088111
4.298898807253093
4.292744335088111
4.298898807253093
4.305053279418103
4.3173622237481215
4.3173622237481215
4.323516695913104
4.3173622237481215
4.2681264464281
4.298898807253093
4.323516695913104
4.341980112408105
4.341980112408105
4.348134584573115
4.348134584573115
4.360443528903107
4.354289056738125
4.366598001068117
4.3727524732331275
4.37890694539811
4.385061417563119
4.397370361893111
4.40967930622313
4.40967930622313
4.415833778388112
4.428142722718132
4.434297194883113
4.434297194883113
4.446606139213133
4.452760611378115
4.452760611378115
4.446606139213133
4.446606139213133
4.446606139213133
4.440451667048122
4.434297194883113
4.428142722718132
4.434297194883113
4.415833778388112
4.37890694539811
4.341980112408105
4.323516695913104
4.305053279418103
4.27428091859311
4.261971974263091
4.237354085603107
4.218890669108104
4.2065817247780855
4.1942727804480935
4.188118308283084
4.181963836118102
4.1758093639530935
4.181963836118102
4.181963836118102
4.181963836118102
4.188118308283084
4.1758093639530935
4.1758093639530935
4.1942727804480935
4.188118308283084
4.181963836118102
4.188118308283084
4.181963836118102
4.181963836118102
4.188118308283084
4.188118308283084
4.181963836118102
4.1942727804480935
4.1942727804480935
4.181963836118102
4.188118308283084
4.188118308283084
4.2065817247780855
4.200427252613103
4.200427252613103
4.1942727804480935
4.1942727804480935
4.2065817247780855
4.280435390758093
4.354289056738125
4.335825640243124
4.3112077515831135
4.3112077515831135
4.292744335088111
4.218890669108104
4.181963836118102
4.181963836118102
4.1758093639530935
4.181963836118102
4.1758093639530935
4.169654891788083
4.1758093639530935
4.1758093639530935
4.1758093639530935
4.1758093639530935
4.181963836118102
4.1758093639530935
4.188118308283084
4.188118308283084
4.1758093639530935
4.1758093639530935
4.188118308283084
4.181963836118102
4.1942727804480935
4.188118308283084
4.188118308283084
4.188118308283084
4.181963836118102
4.188118308283084
4.188118308283084
4.1758093639530935
4.188118308283084
4.181963836118102
4.181963836118102
4.188118308283084
4.188118308283084
4.200427252613103
4.1942727804480935
4.1942727804480935
4.200427252613103
4.1942727804480935
4.200427252613103
4.200427252613103
4.200427252613103
4.2065817247780855
4.200427252613103
4.200427252613103
4.2065817247780855
4.200427252613103
4.188118308283084
4.138882530963089
4.200427252613103
4.212736196943095
4.212736196943095
4.1942727804480935
4.1942727804480935
4.200427252613103
4.225045141273086
4.243508557768089
4.255817502098108
4.2681264464281
4.249663029933098
4.249663029933098
4.243508557768089
4.249663029933098
4.249663029933098
4.237354085603107
4.231199613438097
4.218890669108104
4.218890669108104
4.212736196943095
4.212736196943095
4.212736196943095
4.218890669108104
4.218890669108104
4.218890669108104
4.212736196943095
4.212736196943095
4.2065817247780855
4.212736196943095
4.212736196943095
4.218890669108104
4.212736196943095
4.2065817247780855
4.212736196943095
4.200427252613103
4.218890669108104
4.2065817247780855
4.212736196943095
4.218890669108104
4.212736196943095
4.2065817247780855
4.1942727804480935
4.1942727804480935
4.305053279418103
4.465069555708134
4.625085831998166
4.778947636123188
4.840492357773174
4.668167137153151
4.354289056738125
4.015793087663061
3.8619312835380395
3.9173215330230438
4.003484143333068
4.052719920653064
4.077337809313075
4.138882530963089
4.200427252613103
4.231199613438097
4.237354085603107
4.237354085603107
4.243508557768089
4.249663029933098
4.249663029933098
4.237354085603107
4.243508557768089
4.249663029933098
4.255817502098108
4.261971974263091
4.2681264464281
4.27428091859311
4.2681264464281
4.27428091859311
4.2681264464281
4.27428091859311
4.2865898629231
4.292744335088111
4.2865898629231
4.292744335088111
4.292744335088111
4.2865898629231
4.243508557768089
4.2865898629231
4.3173622237481215
4.3173622237481215
4.323516695913104
4.329671168078114
4.335825640243124
4.329671168078114
4.3112077515831135
4.323516695913104
4.341980112408105
4.341980112408105
4.354289056738125
4.366598001068117
4.366598001068117
4.3727524732331275
4.37890694539811
4.397370361893111
4.40352483405812
4.40352483405812
4.40967930622313
4.421988250553122
4.428142722718132
4.415833778388112
4.428142722718132
4.434297194883113
4.434297194883113
4.446606139213133
4.465069555708134
4.465069555708134
4.458915083543125
4.452760611378115
4.440451667048122
4.428142722718132
4.40967930622313
4.391215889728128
4.37890694539811
4.360443528903107
4.341980112408105
4.298898807253093
4.2065817247780855
4.27428091859311
4.27428091859311
4.243508557768089
4.231199613438097
4.225045141273086
4.2065817247780855
4.163500419623101
4.163500419623101
4.1758093639530935
4.169654891788083
4.163500419623101
4.169654891788083
4.181963836118102
4.1758093639530935
4.1758093639530935
4.1758093639530935
4.1758093639530935
4.188118308283084
4.188118308283084
4.1942727804480935
4.1942727804480935
4.1942727804480935
4.188118308283084
4.1942727804480935
4.200427252613103
4.200427252613103
4.1942727804480935
4.200427252613103
4.200427252613103
4.1942727804480935
4.188118308283084
4.1942727804480935
4.188118308283084
4.188118308283084
4.188118308283084
4.181963836118102
4.188118308283084
4.1758093639530935
4.169654891788083
4.181963836118102
4.181963836118102
4.181963836118102
4.1758093639530935
4.1758093639530935
4.1758093639530935
4.169654891788083
4.169654891788083
4.181963836118102
4.188118308283084
4.1942727804480935
4.1942727804480935
4.1942727804480935
4.188118308283084
4.1942727804480935
4.200427252613103
4.1942727804480935
4.200427252613103
4.200427252613103
4.1942727804480935
4.200427252613103
4.200427252613103
4.188118308283084
4.181963836118102
4.225045141273086
4.218890669108104
4.212736196943095
4.218890669108104
4.249663029933098
4.261971974263091
4.255817502098108
4.255817502098108
4.249663029933098
4.249663029933098
4.243508557768089
4.243508557768089
4.249663029933098
4.225045141273086
4.212736196943095
4.212736196943095
4.212736196943095
4.200427252613103
4.200427252613103
4.1942727804480935
4.200427252613103
4.188118308283084
4.1942727804480935
4.200427252613103
4.1942727804480935
4.2065817247780855
4.2065817247780855
4.218890669108104
4.237354085603107
4.231199613438097
4.231199613438097
4.237354085603107
4.231199613438097
4.225045141273086
4.225045141273086
4.218890669108104
4.218890669108104
4.2065817247780855
4.2065817247780855
4.200427252613103
4.212736196943095
4.261971974263091
4.40967930622313
4.5943134711731455
4.785102108288171
4.902037079423188
4.809719996948181
4.483532972203136
4.138882530963089
3.8496223392080475
3.825004450548036
3.9234760051880535
3.9727117825080467
4.021947559828071
4.0711833371480655
4.145037003128072
4.188118308283084
4.1942727804480935
4.145037003128072
4.212736196943095
4.200427252613103
4.1942727804480935
4.2065817247780855
4.218890669108104
4.218890669108104
4.218890669108104
4.231199613438097
4.231199613438097
4.231199613438097
4.237354085603107
4.249663029933098
4.249663029933098
4.249663029933098
4.255817502098108
4.255817502098108
4.261971974263091
4.261971974263091
4.261971974263091
4.2681264464281
4.280435390758093
4.280435390758093
4.2865898629231
4.2865898629231
4.298898807253093
4.305053279418103
4.305053279418103
4.3112077515831135
4.323516695913104
4.3173622237481215
4.323516695913104
4.329671168078114
4.335825640243124
4.341980112408105
4.354289056738125
4.354289056738125
4.366598001068117
4.37890694539811
4.385061417563119
4.385061417563119
4.391215889728128
4.391215889728128
4.40352483405812
4.40967930622313
4.40967930622313
4.415833778388112
4.415833778388112
4.415833778388112
4.40352483405812
4.397370361893111
4.391215889728128
4.385061417563119
4.3727524732331275
4.360443528903107
4.335825640243124
4.3173622237481215
4.2865898629231
4.280435390758093
4.255817502098108
4.237354085603107
4.225045141273086
4.200427252613103
4.1942727804480935
4.1758093639530935
4.169654891788083
4.169654891788083
4.157345947458091
4.151191475293081
4.145037003128072
4.151191475293081
4.151191475293081
4.138882530963089
4.1327280587980795
4.145037003128072
4.145037003128072
4.157345947458091
4.151191475293081
4.157345947458091
4.163500419623101
4.157345947458091
4.163500419623101
4.169654891788083
4.1758093639530935
4.181963836118102
4.188118308283084
4.181963836118102
4.188118308283084
4.1758093639530935
4.188118308283084
4.188118308283084
4.181963836118102
4.1942727804480935
4.188118308283084
4.1942727804480935
4.188118308283084
4.1942727804480935
4.188118308283084
4.1942727804480935
4.200427252613103
4.1942727804480935
4.188118308283084
4.181963836118102
4.181963836118102
4.181963836118102
4.181963836118102
4.188118308283084
4.188118308283084
4.188118308283084
4.188118308283084
4.1758093639530935
4.1758093639530935
4.1758093639530935
4.188118308283084
4.1942727804480935
4.188118308283084
4.188118308283084
4.188118308283084
4.188118308283084
4.1942727804480935
4.188118308283084
4.169654891788083
4.138882530963089
4.1942727804480935
4.200427252613103
4.1942727804480935
4.1942727804480935
4.1758093639530935
4.157345947458091
4.169654891788083
4.1758093639530935
4.169654891788083
4.163500419623101
4.169654891788083
4.163500419623101
4.157345947458091
4.218890669108104
4.261971974263091
4.2681264464281
4.261971974263091
4.249663029933098
4.243508557768089
4.237354085603107
4.237354085603107
4.237354085603107
4.237354085603107
4.225045141273086
4.212736196943095
4.212736196943095
4.212736196943095
4.2065817247780855
4.163500419623101
4.212736196943095
4.231199613438097
4.225045141273086
4.218890669108104
4.225045141273086
4.212736196943095
4.212736196943095
4.181963836118102
4.188118308283084
4.200427252613103
4.200427252613103
4.212736196943095
4.2065817247780855
4.2065817247780855
4.2065817247780855
4.200427252613103
4.2065817247780855
4.2065817247780855
4.2065817247780855
4.1942727804480935
4.1758093639530935
4.243508557768089
4.40967930622313
4.5820045268431535
4.754329747463175
4.877419190763177
4.81587446911319
4.52661427735815
4.145037003128072
3.886549172198051
3.9111670608580615
3.9850207268380675
4.040410976323072
4.058874392818074
4.120419114468088
4.188118308283084
4.225045141273086
4.225045141273086
4.218890669108104
4.218890669108104
4.231199613438097
4.231199613438097
4.243508557768089
4.237354085603107
4.243508557768089
4.237354085603107
4.225045141273086
4.225045141273086
4.212736196943095
4.1942727804480935
4.200427252613103
4.1942727804480935
4.188118308283084
4.1942727804480935
4.188118308283084
4.200427252613103
4.2065817247780855
4.225045141273086
4.237354085603107
4.249663029933098
4.255817502098108
4.261971974263091
4.27428091859311
4.280435390758093
4.280435390758093
4.292744335088111
4.292744335088111
4.305053279418103
4.298898807253093
4.305053279418103
4.3173622237481215
4.323516695913104
4.341980112408105
4.354289056738125
4.354289056738125
4.37890694539811
4.37890694539811
4.385061417563119
4.397370361893111
4.40352483405812
4.40967930622313
4.415833778388112
4.428142722718132
4.434297194883113
4.434297194883113
4.440451667048122
4.440451667048122
4.446606139213133
4.440451667048122
4.440451667048122
4.446606139213133
4.415833778388112
4.354289056738125
4.366598001068117
4.360443528903107
4.354289056738125
4.329671168078114
4.323516695913104
4.305053279418103
4.2865898629231
4.261971974263091
4.243508557768089
4.243508557768089
4.225045141273086
4.218890669108104
4.2065817247780855
4.2065817247780855
4.2065817247780855
4.2065817247780855
4.2065817247780855
4.200427252613103
4.200427252613103
4.200427252613103
4.2065817247780855
4.212736196943095
4.212736196943095
4.212736196943095
4.218890669108104
4.225045141273086
4.218890669108104
4.218890669108104
4.225045141273086
4.237354085603107
4.243508557768089
4.243508557768089
4.237354085603107
4.243508557768089
4.249663029933098
4.249663029933098
4.249663029933098
4.249663029933098
4.255817502098108
4.243508557768089
4.249663029933098
4.249663029933098
4.255817502098108
4.249663029933098
4.255817502098108
4.255817502098108
4.243508557768089
4.249663029933098
4.261971974263091
4.249663029933098
4.261971974263091
4.261971974263091
4.261971974263091
4.255817502098108
4.255817502098108
4.261971974263091
4.255817502098108
4.261971974263091
4.255817502098108
4.261971974263091
4.255817502098108
4.255817502098108
4.249663029933098
4.27428091859311
4.27428091859311
4.2681264464281
4.261971974263091
4.261971974263091
4.255817502098108
4.261971974263091
4.243508557768089
4.231199613438097
4.237354085603107
4.249663029933098
4.261971974263091
4.2681264464281
4.2681264464281
4.2681264464281
4.255817502098108
4.261971974263091
4.2681264464281
4.2681264464281
4.2681264464281
4.2681264464281
4.261971974263091
4.2681264464281
4.27428091859311
4.2865898629231
4.2865898629231
4.27428091859311
4.292744335088111
4.323516695913104
4.329671168078114
4.323516695913104
4.3112077515831135
4.305053279418103
4.305053279418103
4.298898807253093
4.305053279418103
4.298898807253093
4.280435390758093
4.225045141273086
4.12657358663307
4.083492281478085
4.077337809313075
4.0711833371480655
4.083492281478085
4.083492281478085
4.108110170138069
4.1327280587980795
4.169654891788083
4.188118308283084
4.2065817247780855
4.218890669108104
4.218890669108104
4.225045141273086
4.225045141273086
4.225045141273086
4.237354085603107
4.231199613438097
4.225045141273086
4.188118308283084
4.249663029933098
4.249663029933098
4.237354085603107
4.1942727804480935
4.188118308283084
4.255817502098108
4.428142722718132
4.6004679433381535
4.760484219628157
4.871264718598195
4.797411052618189
4.477378500038126
4.0711833371480655
3.800386561888025
3.837313394878028
3.9419394216830552
4.015793087663061
4.040410976323072
4.095801225808079
4.1758093639530935
4.212736196943095
4.225045141273086
4.225045141273086
4.237354085603107
4.231199613438097
4.231199613438097
4.237354085603107
4.249663029933098
4.255817502098108
4.261971974263091
4.27428091859311
4.27428091859311
4.27428091859311
4.2865898629231
4.2865898629231
4.292744335088111
4.298898807253093
4.298898807253093
4.305053279418103
4.3112077515831135
4.305053279418103
4.305053279418103
4.305053279418103
4.323516695913104
4.323516695913104
4.329671168078114
4.323516695913104
4.280435390758093
4.212736196943095
4.188118308283084
4.1942727804480935
4.200427252613103
4.218890669108104
4.231199613438097
4.231199613438097
4.231199613438097
4.243508557768089
4.255817502098108
4.261971974263091
4.261971974263091
4.27428091859311
4.2865898629231
4.292744335088111
4.3112077515831135
4.3173622237481215
4.3173622237481215
4.323516695913104
4.341980112408105
4.348134584573115
4.348134584573115
4.348134584573115
4.348134584573115
4.354289056738125
4.341980112408105
4.341980112408105
4.348134584573115
4.329671168078114
4.3173622237481215
4.298898807253093
4.27428091859311
4.255817502098108
4.237354085603107
4.225045141273086
4.2065817247780855
4.181963836118102
4.1758093639530935
4.151191475293081
4.145037003128072
4.1327280587980795
4.120419114468088
4.12657358663307
4.114264642303079
4.114264642303079
4.114264642303079
4.108110170138069
4.108110170138069
4.095801225808079
4.052719920653064
4.114264642303079
4.12657358663307
4.1327280587980795
4.1327280587980795
4.12657358663307
4.12657358663307
4.12657358663307
4.101955697973087
4.120419114468088
4.120419114468088
4.12657358663307
4.12657358663307
4.1327280587980795
4.138882530963089
4.1327280587980795
4.12657358663307
4.1327280587980795
4.145037003128072
4.1327280587980795
4.138882530963089
4.145037003128072
4.138882530963089
4.120419114468088
4.077337809313075
4.145037003128072
4.151191475293081
4.145037003128072
4.145037003128072
4.145037003128072
4.1327280587980795
4.114264642303079
4.114264642303079
4.12657358663307
4.1327280587980795
4.138882530963089
4.145037003128072
4.145037003128072
4.151191475293081
4.138882530963089
4.145037003128072
4.157345947458091
4.151191475293081
4.151191475293081
4.151191475293081
4.157345947458091
4.151191475293081
4.157345947458091
4.151191475293081
4.151191475293081
4.151191475293081
4.163500419623101
4.163500419623101
4.163500419623101
4.163500419623101
4.157345947458091
4.163500419623101
4.169654891788083
4.169654891788083
4.169654891788083
4.169654891788083
4.1758093639530935
4.169654891788083
4.1758093639530935
4.1758093639530935
4.1758093639530935
4.169654891788083
4.1758093639530935
4.1758093639530935
4.1758093639530935
4.1758093639530935
4.181963836118102
4.188118308283084
4.1758093639530935
4.188118308283084
4.212736196943095
4.231199613438097
4.243508557768089
4.237354085603107
4.231199613438097
4.225045141273086
4.218890669108104
4.218890669108104
4.218890669108104
4.2065817247780855
4.188118308283084
4.181963836118102
4.188118308283084
4.200427252613103
4.188118308283084
4.188118308283084
4.200427252613103
4.1942727804480935
4.188118308283084
4.1942727804480935
4.188118308283084
4.200427252613103
4.200427252613103
4.200427252613103
4.1942727804480935
4.1942727804480935
4.200427252613103
4.1942727804480935
4.200427252613103
4.2065817247780855
4.200427252613103
4.200427252613103
4.2065817247780855
4.1942727804480935
4.1758093639530935
4.163500419623101
4.1942727804480935
4.354289056738125
4.52661427735815
4.692785025813162
4.858955774268176
4.8651102464331855
4.5943134711731455
4.2065817247780855
3.8803947000330408
3.843467867043037
3.9419394216830552
3.9973296711680604
4.015793087663061
4.052719920653064
4.120419114468088
4.163500419623101
4.169654891788083
4.1758093639530935
4.169654891788083
4.181963836118102
4.1758093639530935
4.188118308283084
4.188118308283084
4.1942727804480935
4.1942727804480935
4.200427252613103
4.2065817247780855
4.218890669108104
4.225045141273086
4.225045141273086
4.218890669108104
4.225045141273086
4.231199613438097
4.243508557768089
4.231199613438097
4.1942727804480935
4.249663029933098
4.237354085603107
4.237354085603107
4.249663029933098
4.261971974263091
4.261971974263091
4.2681264464281
4.280435390758093
4.2865898629231
4.2865898629231
4.292744335088111
4.3112077515831135
4.3112077515831135
4.3173622237481215
4.329671168078114
4.329671168078114
4.341980112408105
4.348134584573115
4.360443528903107
4.366598001068117
4.3727524732331275
4.385061417563119
4.397370361893111
4.397370361893111
4.40352483405812
4.40352483405812
4.415833778388112
4.428142722718132
4.428142722718132
4.428142722718132
4.434297194883113
4.428142722718132
4.434297194883113
4.415833778388112
4.40967930622313
4.397370361893111
4.391215889728128
4.3727524732331275
4.354289056738125
4.329671168078114
4.305053279418103
4.280435390758093
4.2681264464281
4.249663029933098
4.231199613438097
4.212736196943095
4.200427252613103
4.181963836118102
4.181963836118102
4.1758093639530935
4.163500419623101
4.169654891788083
4.169654891788083
4.1758093639530935
4.169654891788083
4.163500419623101
4.163500419623101
4.169654891788083
4.169654891788083
4.169654891788083
4.163500419623101
4.169654891788083
4.169654891788083
4.1758093639530935
4.163500419623101
4.169654891788083
4.169654891788083
4.163500419623101
4.163500419623101
4.1758093639530935
4.1758093639530935
4.1758093639530935
4.163500419623101
4.169654891788083
4.169654891788083
4.1758093639530935
4.169654891788083
4.181963836118102
4.181963836118102
4.169654891788083
4.1758093639530935
4.1758093639530935
4.181963836118102
4.181963836118102
4.1758093639530935
4.188118308283084
4.1758093639530935
4.1758093639530935
4.1758093639530935
4.1758093639530935
4.181963836118102
4.1758093639530935
4.1758093639530935
4.181963836118102
4.12657358663307
3.738841840238039
3.055695429922928
2.815671015487909
2.8095165433228986
2.8033620711578893
2.797207598992907
2.8033620711578893
2.821825487652891
2.815671015487909
2.8341344319829105
2.8402889041478923
2.8525978484779113
2.8525978484779113
2.8649067928079033
2.877215737137895
2.877215737137895
2.895679153632896
2.9141425701278982
2.932605986622927
2.9387604587879093
2.9633783474479203
2.994150708272913
3.018768596932925
3.043386485592936
3.043386485592936
3.049540957757918
3.049540957757918
3.2280206505429514
3.424963759822985
3.572671091782997
3.677297118588024
3.720378423743037
3.75730525673304
3.825004450548036
3.874240227868059
3.9111670608580615
3.9296304773530633
3.9665573103430645
3.9911751990030497
4.009638615498079
4.028102031993082
4.052719920653064
4.0711833371480655
4.083492281478085
4.108110170138069
4.114264642303079
4.1327280587980795
4.138882530963089
4.157345947458091
4.181963836118102
4.188118308283084
4.1942727804480935
4.200427252613103
4.218890669108104
4.212736196943095
4.212736196943095
4.2065817247780855
4.237354085603107
4.366598001068117
4.538923221688139
4.717402914473172
4.877419190763177
4.91434602375318
4.692785025813162
4.354289056738125
4.015793087663061
3.9234760051880535
4.015793087663061
4.089646753643067
4.138882530963089
4.145037003128072
4.1758093639530935
4.305053279418103
4.348134584573115
4.354289056738125
4.354289056738125
4.354289056738125
4.354289056738125
4.348134584573115
4.341980112408105
4.366598001068117
4.366598001068117
4.3727524732331275
4.37890694539811
4.385061417563119
4.397370361893111
4.397370361893111
4.397370361893111
4.40967930622313
4.415833778388112
4.421988250553122
4.421988250553122
4.434297194883113
4.434297194883113
4.440451667048122
4.446606139213133
4.452760611378115
4.458915083543125
4.458915083543125
4.458915083543125
4.471224027873144
4.471224027873144
4.477378500038126
4.489687444368147
4.489687444368147
4.495841916533129
4.501996388698137
4.508150860863147
4.514305333028129
4.52661427735815
4.5327687495231315
4.54507769385315
4.551232166018132
4.557386638183142
4.563541110348153
4.569695582513134
4.575850054678144
4.5820045268431535
4.5820045268431535
4.5943134711731455
4.6004679433381535
4.5943134711731455
4.5943134711731455
4.5943134711731455
4.5943134711731455
4.5820045268431535
4.5820045268431535
4.575850054678144
4.563541110348153
4.551232166018132
4.5327687495231315
4.514305333028129
4.495841916533129
4.458915083543125
4.440451667048122
4.440451667048122
4.421988250553122
4.40352483405812
4.397370361893111
4.3727524732331275
4.360443528903107
4.354289056738125
4.348134584573115
4.341980112408105
4.335825640243124
4.335825640243124
4.329671168078114
4.3173622237481215
4.27428091859311
4.3112077515831135
4.323516695913104
4.329671168078114
4.335825640243124
4.335825640243124
4.341980112408105
4.335825640243124
4.360443528903107
4.354289056738125
4.341980112408105
4.348134584573115
4.354289056738125
4.348134584573115
4.354289056738125
4.360443528903107
4.348134584573115
4.360443528903107
4.354289056738125
4.354289056738125
4.360443528903107
4.360443528903107
4.348134584573115
4.348134584573115
4.348134584573115
4.341980112408105
4.354289056738125
4.348134584573115
4.348134584573115
4.348134584573115
4.341980112408105
4.341980112408105
4.341980112408105
4.335825640243124
4.335825640243124
4.335825640243124
4.335825640243124
4.335825640243124
4.341980112408105
4.329671168078114
4.335825640243124
4.335825640243124
4.335825640243124
4.341980112408105
4.348134584573115
4.354289056738125
4.354289056738125
4.348134584573115
4.366598001068117
4.391215889728128
4.385061417563119
4.37890694539811
4.385061417563119
4.37890694539811
4.37890694539811
4.366598001068117
4.354289056738125
4.348134584573115
4.335825640243124
4.335825640243124
4.341980112408105
4.329671168078114
4.335825640243124
4.323516695913104
4.329671168078114
4.329671168078114
4.323516695913104
4.323516695913104
4.323516695913104
4.329671168078114
4.323516695913104
4.323516695913104
4.323516695913104
4.329671168078114
4.329671168078114
4.323516695913104
4.335825640243124
4.335825640243124
4.335825640243124
4.335825640243124
4.329671168078114
4.335825640243124
4.323516695913104
4.305053279418103
4.298898807253093
4.391215889728128
4.557386638183142
4.723557386638154
4.889728135093197
5.000508634063205
4.877419190763177
4.563541110348153
4.169654891788083
3.948093893848065
3.9788662546730578
4.052719920653064
4.108110170138069
4.151191475293081
4.218890669108104
4.280435390758093
4.3173622237481215
4.3173622237481215
4.3112077515831135
4.323516695913104
4.329671168078114
4.329671168078114
4.335825640243124
4.329671168078114
4.329671168078114
4.341980112408105
4.329671168078114
4.341980112408105
4.354289056738125
4.348134584573115
4.360443528903107
4.360443528903107
4.3727524732331275
4.366598001068117
4.366598001068117
4.3727524732331275
4.37890694539811
4.3727524732331275
4.335825640243124
4.40352483405812
4.40967930622313
4.397370361893111
4.37890694539811
4.391215889728128
4.40352483405812
4.40967930622313
4.415833778388112
4.415833778388112
4.428142722718132
4.421988250553122
4.434297194883113
4.440451667048122
4.440451667048122
4.446606139213133
4.452760611378115
4.471224027873144
4.477378500038126
4.483532972203136
4.483532972203136
4.495841916533129
4.501996388698137
4.508150860863147
4.514305333028129
4.514305333028129
4.514305333028129
4.514305333028129
4.508150860863147
4.520459805193139
4.508150860863147
4.508150860863147
4.495841916533129
4.477378500038126
4.458915083543125
4.434297194883113
4.415833778388112
4.397370361893111
4.37890694539811
4.360443528903107
4.335825640243124
4.3173622237481215
4.298898807253093
4.2865898629231
4.280435390758093
4.2681264464281
4.261971974263091
4.249663029933098
4.249663029933098
4.237354085603107
4.231199613438097
4.231199613438097
4.237354085603107
4.237354085603107
4.231199613438097
4.231199613438097
4.243508557768089
4.237354085603107
4.237354085603107
4.237354085603107
4.243508557768089
4.243508557768089
4.243508557768089
4.243508557768089
4.255817502098108
4.249663029933098
4.255817502098108
4.255817502098108
4.249663029933098
4.261971974263091
4.255817502098108
4.261971974263091
4.249663029933098
4.249663029933098
4.255817502098108
4.255817502098108
4.261971974263091
4.249663029933098
4.249663029933098
4.255817502098108
4.249663029933098
4.243508557768089
4.237354085603107
4.249663029933098
4.249663029933098
4.243508557768089
4.243508557768089
4.243508557768089
4.243508557768089
4.249663029933098
4.237354085603107
4.243508557768089
4.255817502098108
4.249663029933098
4.249663029933098
4.249663029933098
4.255817502098108
4.255817502098108
4.255817502098108
4.261971974263091
4.261971974263091
4.255817502098108
4.255817502098108
4.261971974263091
4.27428091859311
4.261971974263091
4.2681264464281
4.2865898629231
4.3112077515831135
4.3112077515831135
4.305053279418103
4.298898807253093
4.292744335088111
4.2681264464281
4.243508557768089
4.3112077515831135
4.298898807253093
4.2865898629231
4.2681264464281
4.2681264464281
4.280435390758093
4.237354085603107
4.188118308283084
4.255817502098108
4.27428091859311
4.27428091859311
4.27428091859311
4.2681264464281
4.2681264464281
4.237354085603107
4.243508557768089
4.255817502098108
4.255817502098108
4.261971974263091
4.255817502098108
4.2681264464281
4.261971974263091
4.2681264464281
4.2681264464281
4.2681264464281
4.27428091859311
4.255817502098108
4.231199613438097
4.243508557768089
4.323516695913104
4.508150860863147
4.68047608148317
4.858955774268176
4.963581801073202
4.8528013021031935
4.5327687495231315
4.1327280587980795
3.905012588693053
3.9419394216830552
4.028102031993082
4.083492281478085
4.114264642303079
4.181963836118102
4.249663029933098
4.280435390758093
4.2681264464281
4.280435390758093
4.292744335088111
4.292744335088111
4.292744335088111
4.305053279418103
4.298898807253093
4.305053279418103
4.305053279418103
4.305053279418103
4.323516695913104
4.3173622237481215
4.3173622237481215
4.323516695913104
4.323516695913104
4.335825640243124
4.335825640243124
4.335825640243124
4.341980112408105
4.354289056738125
4.348134584573115
4.360443528903107
4.354289056738125
4.366598001068117
4.360443528903107
4.366598001068117
4.37890694539811
4.3727524732331275
4.385061417563119
4.385061417563119
4.397370361893111
4.397370361893111
4.385061417563119
4.40352483405812
4.40352483405812
4.415833778388112
4.421988250553122
4.428142722718132
4.434297194883113
4.434297194883113
4.446606139213133
4.458915083543125
4.465069555708134
4.477378500038126
4.477378500038126
4.489687444368147
4.501996388698137
4.495841916533129
4.495841916533129
4.489687444368147
4.489687444368147
4.495841916533129
4.483532972203136
4.471224027873144
4.458915083543125
4.434297194883113
4.415833778388112
4.40352483405812
4.385061417563119
4.354289056738125
4.329671168078114
4.3112077515831135
4.2865898629231
4.2681264464281
4.255817502098108
4.243508557768089
4.237354085603107
4.231199613438097
4.225045141273086
4.212736196943095
4.212736196943095
4.212736196943095
4.2065817247780855
4.2065817247780855
4.212736196943095
4.212736196943095
4.218890669108104
4.212736196943095
4.212736196943095
4.218890669108104
4.218890669108104
4.218890669108104
4.218890669108104
4.212736196943095
4.163500419623101
4.237354085603107
4.231199613438097
4.2065817247780855
4.225045141273086
4.231199613438097
4.237354085603107
4.231199613438097
4.231199613438097
4.237354085603107
4.237354085603107
4.243508557768089
4.243508557768089
4.237354085603107
4.243508557768089
4.237354085603107
4.231199613438097
4.237354085603107
4.231199613438097
4.237354085603107
4.237354085603107
4.231199613438097
4.237354085603107
4.237354085603107
4.231199613438097
4.231199613438097
4.225045141273086
4.237354085603107
4.231199613438097
4.231199613438097
4.243508557768089
4.237354085603107
4.243508557768089
4.243508557768089
4.237354085603107
4.237354085603107
4.237354085603107
4.243508557768089
4.237354085603107
4.237354085603107
4.237354085603107
4.237354085603107
4.237354085603107
4.249663029933098
4.249663029933098
4.249663029933098
4.249663029933098
4.243508557768089
4.243508557768089
4.249663029933098
4.249663029933098
4.255817502098108
4.243508557768089
4.243508557768089
4.249663029933098
4.243508557768089
4.243508557768089
4.243508557768089
4.255817502098108
4.261971974263091
4.2681264464281
4.261971974263091
4.261971974263091
4.292744335088111
4.3173622237481215
4.305053279418103
4.305053279418103
4.298898807253093
4.292744335088111
4.292744335088111
4.2865898629231
4.280435390758093
4.2681264464281
4.255817502098108
4.249663029933098
4.261971974263091
4.261971974263091
4.261971974263091
4.255817502098108
4.255817502098108
4.255817502098108
4.243508557768089
4.255817502098108
4.255817502098108
4.255817502098108
4.249663029933098
4.255817502098108
4.255817502098108
4.249663029933098
4.249663029933098
4.255817502098108
4.261971974263091
4.261971974263091
4.261971974263091
4.261971974263091
4.255817502098108
4.243508557768089
4.231199613438097
4.218890669108104
4.249663029933098
4.397370361893111
4.5820045268431535
4.748175275298167
4.92050049591819
4.9266549680832
4.686630553648152
4.3173622237481215
3.9604028381780574
3.8988581165280416
3.9727117825080467
4.040410976323072
4.058874392818074
4.108110170138069
4.1942727804480935
4.237354085603107
4.255817502098108
4.255817502098108
4.261971974263091
4.255817502098108
4.261971974263091
4.2681264464281
4.255817502098108
4.218890669108104
4.292744335088111
4.305053279418103
4.305053279418103
4.298898807253093
4.292744335088111
4.27428091859311
4.2865898629231
4.298898807253093
4.305053279418103
4.3112077515831135
4.305053279418103
4.305053279418103
4.305053279418103
4.3112077515831135
4.3173622237481215
4.323516695913104
4.335825640243124
4.335825640243124
4.341980112408105
4.335825640243124
4.335825640243124
4.348134584573115
4.348134584573115
4.354289056738125
4.360443528903107
4.366598001068117
4.3727524732331275
4.3727524732331275
4.3727524732331275
4.37890694539811
4.37890694539811
4.391215889728128
4.40352483405812
4.40352483405812
4.421988250553122
4.428142722718132
4.421988250553122
4.434297194883113
4.434297194883113
4.440451667048122
4.446606139213133
4.440451667048122
4.446606139213133
4.440451667048122
4.434297194883113
4.434297194883113
4.428142722718132
4.421988250553122
4.40352483405812
4.37890694539811
4.366598001068117
4.341980112408105
4.3173622237481215
4.305053279418103
4.2865898629231
4.261971974263091
4.243508557768089
4.218890669108104
4.2065817247780855
4.151191475293081
4.138882530963089
4.2065817247780855
4.1942727804480935
4.181963836118102
4.188118308283084
4.181963836118102
4.181963836118102
4.157345947458091
4.163500419623101
4.169654891788083
4.181963836118102
4.1758093639530935
4.1758093639530935
4.181963836118102
4.181963836118102
4.1758093639530935
4.181963836118102
4.1942727804480935
4.188118308283084
4.1942727804480935
4.188118308283084
4.200427252613103
4.200427252613103
4.200427252613103
4.1942727804480935
4.200427252613103
4.1942727804480935
4.2065817247780855
4.200427252613103
4.200427252613103
4.200427252613103
4.1942727804480935
4.2065817247780855
4.1942727804480935
4.1942727804480935
4.200427252613103
4.200427252613103
4.200427252613103
4.188118308283084
4.1942727804480935
4.200427252613103
4.200427252613103
4.1942727804480935
4.1942727804480935
4.1942727804480935
4.1942727804480935
4.1942727804480935
4.1942727804480935
4.200427252613103
4.200427252613103
4.200427252613103
4.200427252613103
4.200427252613103
4.200427252613103
4.200427252613103
4.2065817247780855
4.212736196943095
4.2065817247780855
4.212736196943095
4.2065817247780855
4.1942727804480935
4.145037003128072
4.188118308283084
4.2065817247780855
4.218890669108104
4.225045141273086
4.225045141273086
4.218890669108104
4.225045141273086
4.218890669108104
4.218890669108104
4.212736196943095
4.225045141273086
4.225045141273086
4.225045141273086
4.218890669108104
4.218890669108104
4.212736196943095
4.212736196943095
4.2065817247780855
4.212736196943095
4.212736196943095
4.212736196943095
4.218890669108104
4.212736196943095
4.212736196943095
4.225045141273086
4.225045141273086
4.225045141273086
4.231199613438097
4.261971974263091
4.27428091859311
4.27428091859311
4.261971974263091
4.261971974263091
4.249663029933098
4.243508557768089
4.243508557768089
4.243508557768089
4.231199613438097
4.218890669108104
4.212736196943095
4.225045141273086
4.218890669108104
4.218890669108104
4.212736196943095
4.212736196943095
4.218890669108104
4.218890669108104
4.2065817247780855
4.2065817247780855
4.218890669108104
4.212736196943095
4.212736196943095
4.212736196943095
4.218890669108104
4.212736196943095
4.2065817247780855
4.212736196943095
4.212736196943095
4.225045141273086
4.218890669108104
4.218890669108104
4.212736196943095
4.1758093639530935
4.1758093639530935
4.249663029933098
4.434297194883113
4.618931359833156
4.81587446911319
4.951272856743211
4.8651102464331855
4.54507769385315
4.145037003128072
3.886549172198051
3.9111670608580615
3.9850207268380675
4.028102031993082
4.052719920653064
4.12657358663307
4.188118308283084
4.218890669108104
4.231199613438097
4.225045141273086
4.231199613438097
4.231199613438097
4.243508557768089
4.237354085603107
4.237354085603107
4.243508557768089
4.255817502098108
4.249663029933098
4.255817502098108
4.261971974263091
4.261971974263091
4.261971974263091
4.2681264464281
4.27428091859311
4.27428091859311
4.27428091859311
4.27428091859311
4.280435390758093
4.280435390758093
4.2865898629231
4.292744335088111
4.298898807253093
4.305053279418103
4.3112077515831135
4.3173622237481215
4.3173622237481215
4.323516695913104
4.323516695913104
4.323516695913104
4.329671168078114
4.341980112408105
4.341980112408105
4.348134584573115
4.360443528903107
4.366598001068117
4.366598001068117
4.3727524732331275
4.385061417563119
4.3727524732331275
4.341980112408105
4.415833778388112
4.428142722718132
4.428142722718132
4.40352483405812
4.40352483405812
4.421988250553122
4.421988250553122
4.421988250553122
4.434297194883113
4.428142722718132
4.421988250553122
4.415833778388112
4.40967930622313
4.40967930622313
4.391215889728128
4.3727524732331275
4.366598001068117
4.341980112408105
4.3173622237481215
4.298898807253093
4.2865898629231
4.2681264464281
4.249663029933098
4.231199613438097
4.212736196943095
4.200427252613103
4.1942727804480935
4.188118308283084
4.188118308283084
4.1758093639530935
4.163500419623101
4.157345947458091
4.163500419623101
4.169654891788083
4.169654891788083
4.1758093639530935
4.1758093639530935
4.1758093639530935
4.181963836118102
4.188118308283084
4.188118308283084
4.188118308283084
4.1758093639530935
4.188118308283084
4.181963836118102
4.188118308283084
4.188118308283084
4.188118308283084
4.188118308283084
4.188118308283084
4.188118308283084
4.188118308283084
4.188118308283084
4.1942727804480935
4.1942727804480935
4.1942727804480935
4.200427252613103
4.212736196943095
4.200427252613103
4.200427252613103
4.200427252613103
4.188118308283084
4.1942727804480935
4.1942727804480935
4.188118308283084
4.188118308283084
4.188118308283084
4.1942727804480935
4.200427252613103
4.200427252613103
4.1942727804480935
4.200427252613103
4.200427252613103
4.1942727804480935
4.200427252613103
4.1942727804480935
4.200427252613103
4.200427252613103
4.1942727804480935
4.1942727804480935
4.1942727804480935
4.188118308283084
4.1942727804480935
4.200427252613103
4.188118308283084
4.188118308283084
4.1942727804480935
4.188118308283084
4.1758093639530935
4.181963836118102
4.188118308283084
4.1758093639530935
4.181963836118102
4.1758093639530935
4.169654891788083
4.169654891788083
4.1758093639530935
4.169654891788083
4.1758093639530935
4.181963836118102
4.1758093639530935
4.188118308283084
4.1942727804480935
4.2065817247780855
4.2065817247780855
4.2065817247780855
4.2065817247780855
4.2065817247780855
4.212736196943095
4.218890669108104
4.212736196943095
4.1942727804480935
4.1942727804480935
4.188118308283084
4.1942727804480935
4.188118308283084
4.1942727804480935
4.188118308283084
4.1942727804480935
4.200427252613103
4.181963836118102
4.1327280587980795
4.200427252613103
4.212736196943095
4.2065817247780855
4.200427252613103
4.2065817247780855
4.2065817247780855
4.138882530963089
4.151191475293081
4.212736196943095
4.2065817247780855
4.200427252613103
4.2065817247780855
4.212736196943095
4.1942727804480935
4.163500419623101
4.157345947458091
4.243508557768089
4.40967930622313
4.569695582513134
4.7420208031331565
4.8651102464331855
4.754329747463175
4.440451667048122
4.0711833371480655
3.8496223392080475
3.8803947000330408
3.9665573103430645
4.028102031993082
4.052719920653064
4.114264642303079
4.1758093639530935
4.2065817247780855
4.218890669108104
4.218890669108104
4.231199613438097
4.231199613438097
4.231199613438097
4.237354085603107
4.243508557768089
4.249663029933098
4.243508557768089
4.249663029933098
4.255817502098108
4.255817502098108
4.2681264464281
4.255817502098108
4.261971974263091
4.261971974263091
4.27428091859311
4.27428091859311
4.27428091859311
4.280435390758093
4.280435390758093
4.280435390758093
4.2865898629231
4.2865898629231
4.298898807253093
4.298898807253093
4.298898807253093
4.3112077515831135
4.3112077515831135
4.305053279418103
4.3112077515831135
4.323516695913104
4.329671168078114
4.329671168078114
4.335825640243124
4.348134584573115
4.348134584573115
4.354289056738125
4.366598001068117
4.3727524732331275
4.3727524732331275
4.37890694539811
4.391215889728128
4.391215889728128
4.391215889728128
4.397370361893111
4.40352483405812
4.415833778388112
4.40967930622313
4.415833778388112
4.415833778388112
4.415833778388112
4.40352483405812
4.40352483405812
4.391215889728128
4.391215889728128
4.366598001068117
4.348134584573115
4.3173622237481215
4.298898807253093
4.27428091859311
4.255817502098108
4.243508557768089
4.231199613438097
4.212736196943095
4.200427252613103
4.188118308283084
4.181963836118102
4.163500419623101
4.169654891788083
4.157345947458091
4.163500419623101
4.151191475293081
4.157345947458091
4.163500419623101
4.163500419623101
4.157345947458091
4.157345947458091
4.163500419623101
4.163500419623101
4.163500419623101
4.169654891788083
4.169654891788083
4.169654891788083
4.169654891788083
4.1758093639530935
4.1758093639530935
4.1758093639530935
4.163500419623101
4.12657358663307
4.181963836118102
4.169654891788083
4.145037003128072
4.157345947458091
4.157345947458091
4.138882530963089
4.145037003128072
4.1327280587980795
4.1327280587980795
4.114264642303079
4.089646753643067
4.077337809313075
4.0711833371480655
4.0711833371480655
4.052719920653064
4.040410976323072
4.0465654484880815
4.034256504158063
4.034256504158063
4.034256504158063
4.021947559828071
4.003484143333068
3.9911751990030497
3.9973296711680604
3.9727117825080467
3.9665573103430645
3.9665573103430645
3.9788662546730578
3.9973296711680604
3.9911751990030497
3.9911751990030497
3.9850207268380675
3.9973296711680604
4.003484143333068
4.021947559828071
4.028102031993082
4.040410976323072
4.052719920653064
4.065028864983084
4.083492281478085
4.101955697973087
4.114264642303079
4.138882530963089
4.169654891788083
4.188118308283084
4.188118308283084
4.1942727804480935
4.188118308283084
4.181963836118102
4.188118308283084
4.188118308283084
4.1942727804480935
4.1942727804480935
4.181963836118102
4.169654891788083
4.181963836118102
4.1758093639530935
4.181963836118102
4.1758093639530935
4.1758093639530935
4.169654891788083
4.1758093639530935
4.1758093639530935
4.188118308283084
4.188118308283084
4.1942727804480935
4.188118308283084
4.200427252613103
4.200427252613103
4.2065817247780855
4.2065817247780855
4.2065817247780855
4.218890669108104
4.225045141273086
4.225045141273086
4.218890669108104
4.212736196943095
4.200427252613103
4.181963836118102
4.2065817247780855
4.323516695913104
4.520459805193139
4.686630553648152
4.858955774268176
4.908191551588198
4.717402914473172
4.360443528903107
3.9850207268380675
3.8680857557030492
3.9357849495180455
4.009638615498079
4.040410976323072
4.095801225808079
4.169654891788083
4.218890669108104
4.243508557768089
4.237354085603107
4.237354085603107
4.243508557768089
4.249663029933098
4.255817502098108
4.255817502098108
4.261971974263091
4.255817502098108
4.27428091859311
4.27428091859311
4.27428091859311
4.280435390758093
4.2865898629231
4.292744335088111
4.2865898629231
4.280435390758093
4.292744335088111
4.305053279418103
4.3112077515831135
4.3112077515831135
4.305053279418103
4.3112077515831135
4.3112077515831135
4.3173622237481215
4.3112077515831135
4.27428091859311
4.323516695913104
4.341980112408105
4.335825640243124
4.341980112408105
4.335825640243124
4.3173622237481215
4.335825640243124
4.341980112408105
4.354289056738125
4.366598001068117
4.3727524732331275
4.3727524732331275
4.37890694539811
4.385061417563119
4.397370361893111
4.40352483405812
4.415833778388112
4.40967930622313
4.421988250553122
4.434297194883113
4.428142722718132
4.428142722718132
4.434297194883113
4.428142722718132
4.421988250553122
4.421988250553122
4.421988250553122
4.40352483405812
4.391215889728128
4.3727524732331275
4.360443528903107
4.329671168078114
4.3112077515831135
4.2865898629231
4.2681264464281
4.243508557768089
4.225045141273086
4.2065817247780855
4.1942727804480935
4.181963836118102
4.169654891788083
4.157345947458091
4.157345947458091
4.151191475293081
4.145037003128072
4.151191475293081
4.157345947458091
4.157345947458091
4.157345947458091
4.151191475293081
4.151191475293081
4.151191475293081
4.151191475293081
4.163500419623101
4.163500419623101
4.169654891788083
4.163500419623101
4.169654891788083
4.1758093639530935
4.169654891788083
4.163500419623101
4.169654891788083
4.1758093639530935
4.1758093639530935
4.1758093639530935
4.181963836118102
4.188118308283084
4.1758093639530935
4.181963836118102
4.181963836118102
4.181963836118102
4.188118308283084
4.188118308283084
4.188118308283084
4.188118308283084
4.12657358663307
4.169654891788083
4.1942727804480935
4.1942727804480935
4.1942727804480935
4.1942727804480935
4.188118308283084
4.181963836118102
4.157345947458091
4.169654891788083
4.181963836118102
4.181963836118102
4.1758093639530935
4.188118308283084
4.181963836118102
4.1942727804480935
4.188118308283084
4.1758093639530935
4.188118308283084
4.188118308283084
4.181963836118102
4.188118308283084
4.188118308283084
4.1758093639530935
4.181963836118102
4.1942727804480935
4.1942727804480935
4.1942727804480935
4.188118308283084
4.188118308283084
4.188118308283084
4.181963836118102
4.1942727804480935
4.188118308283084
4.188118308283084
4.1942727804480935
4.188118308283084
4.1942727804480935
4.1942727804480935
4.200427252613103
4.1942727804480935
4.1942727804480935
4.200427252613103
4.231199613438097
4.243508557768089
4.225045141273086
4.188118308283084
4.212736196943095
4.218890669108104
4.225045141273086
4.218890669108104
4.225045141273086
4.218890669108104
4.212736196943095
4.1942727804480935
4.1942727804480935
4.1942727804480935
4.200427252613103
4.200427252613103
4.200427252613103
4.200427252613103
4.200427252613103
4.1942727804480935
4.200427252613103
4.1942727804480935
4.188118308283084
4.181963836118102
4.181963836118102
4.188118308283084
4.1942727804480935
4.1942727804480935
4.1942727804480935
4.1942727804480935
4.1942727804480935
4.1942727804480935
4.188118308283084
4.188118308283084
4.163500419623101
4.157345947458091
4.212736196943095
4.391215889728128
4.563541110348153
4.735866330968175
4.877419190763177
4.8466468299381855
4.557386638183142
4.163500419623101
3.8619312835380395
3.8680857557030492
3.9419394216830552
3.9973296711680604
4.021947559828071
4.089646753643067
4.157345947458091
4.188118308283084
4.200427252613103
4.200427252613103
4.200427252613103
4.2065817247780855
4.2065817247780855
4.2065817247780855
4.2065817247780855
4.212736196943095
4.225045141273086
4.237354085603107
4.231199613438097
4.237354085603107
4.237354085603107
4.237354085603107
4.237354085603107
4.243508557768089
4.249663029933098
4.255817502098108
4.255817502098108
4.261971974263091
4.255817502098108
4.261971974263091
4.2681264464281
4.27428091859311
4.280435390758093
4.292744335088111
4.2865898629231
4.2865898629231
4.298898807253093
4.305053279418103
4.298898807253093
4.305053279418103
4.3173622237481215
4.3112077515831135
4.323516695913104
4.329671168078114
4.329671168078114
4.341980112408105
4.341980112408105
4.354289056738125
4.366598001068117
4.360443528903107
4.3727524732331275
4.385061417563119
4.385061417563119
4.391215889728128
4.391215889728128
4.391215889728128
4.40352483405812
4.40352483405812
4.40352483405812
4.397370361893111
4.397370361893111
4.385061417563119
4.385061417563119
4.3727524732331275
4.360443528903107
4.335825640243124
4.3112077515831135
4.2865898629231
4.27428091859311
4.249663029933098
4.231199613438097
4.218890669108104
4.1942727804480935
4.1758093639530935
4.169654891788083
4.157345947458091
4.145037003128072
4.138882530963089
4.138882530963089
4.12657358663307
4.120419114468088
4.0711833371480655
4.1327280587980795
4.138882530963089
4.138882530963089
4.114264642303079
4.114264642303079
4.12657358663307
4.1327280587980795
4.138882530963089
4.138882530963089
4.145037003128072
4.151191475293081
4.151191475293081
4.145037003128072
4.145037003128072
4.151191475293081
4.151191475293081
4.157345947458091
4.163500419623101
4.163500419623101
4.163500419623101
4.163500419623101
4.169654891788083
4.169654891788083
4.163500419623101
4.169654891788083
4.169654891788083
4.163500419623101
4.163500419623101
4.169654891788083
4.1758093639530935
4.169654891788083
4.163500419623101
4.169654891788083
4.169654891788083
4.163500419623101
4.169654891788083
4.1758093639530935
4.169654891788083
4.169654891788083
4.1758093639530935
4.1758093639530935
4.1758093639530935
4.169654891788083
4.169654891788083
4.1758093639530935
4.169654891788083
4.1758093639530935
4.169654891788083
4.169654891788083
4.169654891788083
4.1758093639530935
4.181963836118102
4.181963836118102
4.181963836118102
4.1758093639530935
4.181963836118102
4.181963836118102
4.181963836118102
4.181963836118102
4.188118308283084
4.181963836118102
4.188118308283084
4.188118308283084
4.1942727804480935
4.181963836118102
4.1942727804480935
4.188118308283084
4.181963836118102
4.188118308283084
4.1942727804480935
4.188118308283084
4.188118308283084
4.188118308283084
4.188118308283084
4.2065817247780855
4.218890669108104
4.2065817247780855
4.2065817247780855
4.225045141273086
4.249663029933098
4.255817502098108
4.243508557768089
4.243508557768089
4.237354085603107
4.243508557768089
4.237354085603107
4.225045141273086
4.2065817247780855
4.188118308283084
4.181963836118102
4.1942727804480935
4.200427252613103
4.1942727804480935
4.188118308283084
4.188118308283084
4.1942727804480935
4.1942727804480935
4.188118308283084
4.1942727804480935
4.1942727804480935
4.188118308283084
4.1942727804480935
4.188118308283084
4.1942727804480935
4.188118308283084
4.188118308283084
4.200427252613103
4.1942727804480935
4.200427252613103
4.1942727804480935
4.1942727804480935
4.188118308283084
4.169654891788083
4.157345947458091
4.188118308283084
4.341980112408105
4.5327687495231315
4.711248442308165
4.871264718598195
4.883573662928187
4.6004679433381535
4.163500419623101
3.886549172198051
3.8619312835380395
3.9357849495180455
3.9911751990030497
4.009638615498079
4.077337809313075
4.12657358663307
4.163500419623101
4.181963836118102
4.188118308283084
4.1942727804480935
4.200427252613103
4.200427252613103
4.212736196943095
4.200427252613103
4.218890669108104
4.218890669108104
4.225045141273086
4.231199613438097
4.237354085603107
4.237354085603107
4.231199613438097
4.169654891788083
4.243508557768089
4.2681264464281
4.261971974263091
4.2681264464281
4.2681264464281
4.280435390758093
4.261971974263091
4.243508557768089
4.261971974263091
4.2681264464281
4.280435390758093
4.280435390758093
4.2865898629231
4.298898807253093
4.298898807253093
4.292744335088111
4.305053279418103
4.305053279418103
4.3173622237481215
4.3173622237481215
4.329671168078114
4.335825640243124
4.329671168078114
4.341980112408105
4.354289056738125
4.354289056738125
4.360443528903107
4.366598001068117
4.3727524732331275
4.37890694539811
4.391215889728128
4.397370361893111
4.397370361893111
4.40352483405812
4.397370361893111
4.397370361893111
4.40352483405812
4.397370361893111
4.391215889728128
4.385061417563119
4.385061417563119
4.366598001068117
4.341980112408105
4.323516695913104
4.298898807253093
4.2865898629231
4.261971974263091
4.243508557768089
4.218890669108104
4.200427252613103
4.188118308283084
4.181963836118102
4.169654891788083
4.163500419623101
4.157345947458091
4.145037003128072
4.145037003128072
4.145037003128072
4.145037003128072
4.138882530963089
4.138882530963089
4.138882530963089
4.1327280587980795
4.145037003128072
4.151191475293081
4.138882530963089
4.138882530963089
4.145037003128072
4.151191475293081
4.151191475293081
4.157345947458091
4.157345947458091
4.157345947458091
4.157345947458091
4.169654891788083
4.157345947458091
4.163500419623101
4.157345947458091
4.163500419623101
4.157345947458091
4.157345947458091
4.163500419623101
4.163500419623101
4.163500419623101
4.157345947458091
4.157345947458091
4.157345947458091
4.157345947458091
4.163500419623101
4.157345947458091
4.151191475293081
4.157345947458091
4.157345947458091
4.157345947458091
4.157345947458091
4.157345947458091
4.151191475293081
4.138882530963089
4.089646753643067
4.163500419623101
4.157345947458091
4.12657358663307
4.138882530963089
4.151191475293081
4.157345947458091
4.151191475293081
4.145037003128072
4.151191475293081
4.145037003128072
4.145037003128072
4.157345947458091
4.163500419623101
4.163500419623101
4.157345947458091
4.157345947458091
4.157345947458091
4.151191475293081
4.157345947458091
4.163500419623101
4.169654891788083
4.1758093639530935
4.169654891788083
4.169654891788083
4.1758093639530935
4.169654891788083
4.169654891788083
4.169654891788083
4.169654891788083
4.1758093639530935
4.169654891788083
4.1758093639530935
4.169654891788083
4.1758093639530935
4.181963836118102
4.1758093639530935
4.188118308283084
4.2065817247780855
4.231199613438097
4.237354085603107
4.237354085603107
4.218890669108104
4.218890669108104
4.225045141273086
4.218890669108104
4.218890669108104
4.200427252613103
4.188118308283084
4.188118308283084
4.188118308283084
4.1942727804480935
4.181963836118102
4.181963836118102
4.181963836118102
4.181963836118102
4.188118308283084
4.1758093639530935
4.181963836118102
4.1758093639530935
4.181963836118102
4.188118308283084
4.1758093639530935
4.1758093639530935
4.188118308283084
4.181963836118102
4.181963836118102
4.188118308283084
4.181963836118102
4.188118308283084
4.188118308283084
4.1758093639530935
4.151191475293081
4.151191475293081
4.225045141273086
4.40967930622313
4.5820045268431535
4.754329747463175
4.877419190763177
4.772793163958178
4.452760611378115
4.0465654484880815
3.8065410340530352
3.855776811373057
3.9357849495180455
3.9911751990030497
4.015793087663061
4.077337809313075
4.145037003128072
4.1758093639530935
4.188118308283084
4.181963836118102
4.188118308283084
4.200427252613103
4.200427252613103
4.200427252613103
4.2065817247780855
4.2065817247780855
4.212736196943095
4.212736196943095
4.218890669108104
4.225045141273086
4.231199613438097
4.237354085603107
4.243508557768089
4.237354085603107
4.243508557768089
4.243508557768089
4.249663029933098
4.249663029933098
4.249663029933098
4.255817502098108
4.255817502098108
4.261971974263091
4.27428091859311
4.27428091859311
4.27428091859311
4.261971974263091
4.27428091859311
4.27428091859311
4.2865898629231
4.2865898629231
4.243508557768089
4.305053279418103
4.329671168078114
4.329671168078114
4.341980112408105
4.323516695913104
4.3112077515831135
4.335825640243124
4.348134584573115
4.360443528903107
4.366598001068117
4.37890694539811
4.37890694539811
4.385061417563119
4.37890694539811
4.385061417563119
4.397370361893111
4.391215889728128
4.391215889728128
4.40352483405812
4.391215889728128
4.37890694539811
4.37890694539811
4.360443528903107
4.348134584573115
4.329671168078114
4.305053279418103
4.280435390758093
4.2681264464281
4.243508557768089
4.231199613438097
4.2065817247780855
4.188118308283084
4.181963836118102
4.169654891788083
4.145037003128072
4.138882530963089
4.138882530963089
4.138882530963089
4.1327280587980795
4.1327280587980795
4.12657358663307
4.12657358663307
4.1327280587980795
4.1327280587980795
4.1327280587980795
4.145037003128072
4.145037003128072
4.138882530963089
4.145037003128072
4.145037003128072
4.151191475293081
4.157345947458091
4.151191475293081
4.151191475293081
4.157345947458091
4.163500419623101
4.157345947458091
4.157345947458091
4.163500419623101
4.163500419623101
4.157345947458091
4.1758093639530935
4.1758093639530935
4.1758093639530935
4.169654891788083
4.1758093639530935
4.163500419623101
4.157345947458091
4.163500419623101
4.163500419623101
4.163500419623101
4.157345947458091
4.163500419623101
4.157345947458091
4.157345947458091
4.157345947458091
4.169654891788083
4.163500419623101
4.163500419623101
4.163500419623101
4.169654891788083
4.169654891788083
4.163500419623101
4.157345947458091
4.157345947458091
4.163500419623101
4.163500419623101
4.163500419623101
4.163500419623101
4.1758093639530935
4.163500419623101
4.108110170138069
4.169654891788083
4.181963836118102
4.1758093639530935
4.1758093639530935
4.169654891788083
4.181963836118102
4.163500419623101
4.151191475293081
4.163500419623101
4.1758093639530935
4.1758093639530935
4.1942727804480935
4.218890669108104
4.225045141273086
4.218890669108104
4.212736196943095
4.212736196943095
4.218890669108104
4.212736196943095
4.2065817247780855
4.200427252613103
4.188118308283084
4.169654891788083
4.181963836118102
4.181963836118102
4.181963836118102
4.1758093639530935
4.188118308283084
4.163500419623101
4.12657358663307
4.157345947458091
4.163500419623101
4.1758093639530935
4.1758093639530935
4.181963836118102
4.181963836118102
4.188118308283084
4.181963836118102
4.181963836118102
4.1942727804480935
4.188118308283084
4.188118308283084
4.188118308283084
4.188118308283084
4.1942727804480935
4.1758093639530935
4.163500419623101
4.169654891788083
4.255817502098108
4.415833778388112
4.5820045268431535
4.7420208031331565
4.834337885608192
4.692785025813162
4.391215889728128
4.034256504158063
3.831158922713046
3.8680857557030492
3.948093893848065
4.009638615498079
4.040410976323072
4.089646753643067
4.151191475293081
4.188118308283084
4.2065817247780855
4.2065817247780855
4.212736196943095
4.218890669108104
4.218890669108104
4.212736196943095
4.218890669108104
4.225045141273086
4.225045141273086
4.225045141273086
4.231199613438097
4.237354085603107
4.231199613438097
4.231199613438097
4.237354085603107
4.237354085603107
4.243508557768089
4.243508557768089
4.255817502098108
4.255817502098108
4.249663029933098
4.255817502098108
4.255817502098108
4.261971974263091
4.2681264464281
4.27428091859311
4.27428091859311
4.27428091859311
4.280435390758093
4.292744335088111
4.292744335088111
4.298898807253093
4.305053279418103
4.305053279418103
4.3112077515831135
4.3112077515831135
4.3173622237481215
4.323516695913104
4.329671168078114
4.348134584573115
4.348134584573115
4.366598001068117
4.366598001068117
4.366598001068117
4.3727524732331275
4.3727524732331275
4.37890694539811
4.385061417563119
4.37890694539811
4.37890694539811
4.37890694539811
4.385061417563119
4.3727524732331275
4.37890694539811
4.366598001068117
4.354289056738125
4.323516695913104
4.305053279418103
4.292744335088111
4.27428091859311
4.249663029933098
4.237354085603107
4.218890669108104
4.1942727804480935
4.188118308283084
4.181963836118102
4.169654891788083
4.163500419623101
4.145037003128072
4.138882530963089
4.145037003128072
4.138882530963089
4.138882530963089
4.138882530963089
4.138882530963089
4.1327280587980795
4.145037003128072
4.138882530963089
4.151191475293081
4.145037003128072
4.151191475293081
4.151191475293081
4.157345947458091
4.157345947458091
4.157345947458091
4.169654891788083
4.157345947458091
4.108110170138069
4.169654891788083
4.181963836118102
4.169654891788083
4.145037003128072
4.145037003128072
4.157345947458091
4.163500419623101
4.169654891788083
4.169654891788083
4.163500419623101
4.163500419623101
4.163500419623101
4.163500419623101
4.163500419623101
4.157345947458091
4.157345947458091
4.157345947458091
4.163500419623101
4.157345947458091
4.157345947458091
4.151191475293081
4.157345947458091
4.157345947458091
4.151191475293081
4.151191475293081
4.151191475293081
4.169654891788083
4.157345947458091
4.145037003128072
4.151191475293081
4.157345947458091
4.157345947458091
4.157345947458091
4.157345947458091
4.157345947458091
4.157345947458091
4.169654891788083
4.157345947458091
4.169654891788083
4.169654891788083
4.181963836118102
4.1758093639530935
4.169654891788083
4.188118308283084
4.212736196943095
4.218890669108104
4.2065817247780855
4.212736196943095
4.200427252613103
4.1942727804480935
4.1758093639530935
4.188118308283084
4.181963836118102
4.169654891788083
4.157345947458091
4.157345947458091
4.163500419623101
4.157345947458091
4.157345947458091
4.163500419623101
4.163500419623101
4.151191475293081
4.151191475293081
4.163500419623101
4.163500419623101
4.151191475293081
4.151191475293081
4.151191475293081
4.151191475293081
4.157345947458091
4.157345947458091
4.163500419623101
4.169654891788083
4.169654891788083
4.169654891788083
4.163500419623101
4.163500419623101
4.169654891788083
4.151191475293081
4.1327280587980795
4.169654891788083
4.3173622237481215
4.495841916533129
4.662012664988168
4.809719996948181
4.809719996948181
4.551232166018132
4.1942727804480935
3.8619312835380395
3.8065410340530352
3.905012588693053
3.9665573103430645
3.9973296711680604
4.0465654484880815
4.114264642303079
4.169654891788083
4.1758093639530935
4.1758093639530935
4.181963836118102
4.188118308283084
4.1942727804480935
4.200427252613103
4.200427252613103
4.2065817247780855
4.2065817247780855
4.2065817247780855
4.2065817247780855
4.212736196943095
4.218890669108104
4.218890669108104
4.225045141273086
4.225045141273086
4.218890669108104
4.225045141273086
4.237354085603107
4.243508557768089
4.243508557768089
4.249663029933098
4.261971974263091
4.261971974263091
4.249663029933098
4.2065817247780855
4.2681264464281
4.27428091859311
4.27428091859311
4.280435390758093
4.292744335088111
4.2865898629231
4.27428091859311
4.2681264464281
4.2865898629231
4.292744335088111
4.298898807253093
4.3173622237481215
4.323516695913104
4.329671168078114
4.335825640243124
4.348134584573115
4.354289056738125
4.360443528903107
4.366598001068117
4.37890694539811
4.37890694539811
4.37890694539811
4.37890694539811
4.385061417563119
4.385061417563119
4.385061417563119
4.37890694539811
4.3727524732331275
4.354289056738125
4.335825640243124
4.323516695913104
4.298898807253093
4.2865898629231
4.261971974263091
4.237354085603107
4.225045141273086
4.1942727804480935
4.157345947458091
4.095801225808079
4.157345947458091
4.157345947458091
4.138882530963089
4.12657358663307
4.12657358663307
4.114264642303079
4.101955697973087
4.077337809313075
4.095801225808079
4.101955697973087
4.101955697973087
4.108110170138069
4.114264642303079
4.108110170138069
4.108110170138069
4.120419114468088
4.120419114468088
4.12657358663307
4.12657358663307
4.12657358663307
4.1327280587980795
4.12657358663307
4.12657358663307
4.12657358663307
4.1327280587980795
4.138882530963089
4.138882530963089
4.1327280587980795
4.138882530963089
4.138882530963089
4.12657358663307
4.1327280587980795
4.1327280587980795
4.1327280587980795
4.1327280587980795
4.12657358663307
4.12657358663307
4.12657358663307
4.12657358663307
4.1327280587980795
4.1327280587980795
4.1327280587980795
4.138882530963089
4.1327280587980795
4.138882530963089
4.12657358663307
4.1327280587980795
4.138882530963089
4.138882530963089
4.1327280587980795
4.1327280587980795
4.12657358663307
4.12657358663307
4.12657358663307
4.1327280587980795
4.1327280587980795
4.138882530963089
4.138882530963089
4.145037003128072
4.145037003128072
4.138882530963089
4.138882530963089
4.138882530963089
4.145037003128072
4.145037003128072
4.145037003128072
4.145037003128072
4.145037003128072
4.145037003128072
4.138882530963089
4.151191475293081
4.163500419623101
4.163500419623101
4.151191475293081
4.157345947458091
4.188118308283084
4.2065817247780855
4.1942727804480935
4.200427252613103
4.188118308283084
4.188118308283084
4.181963836118102
4.120419114468088
4.1942727804480935
4.169654891788083
4.138882530963089
4.138882530963089
4.145037003128072
4.157345947458091
4.157345947458091
4.145037003128072
4.145037003128072
4.163500419623101
4.163500419623101
4.163500419623101
4.163500419623101
4.151191475293081
4.157345947458091
4.151191475293081
4.157345947458091
4.151191475293081
4.151191475293081
4.157345947458091
4.163500419623101
4.163500419623101
4.163500419623101
4.145037003128072
4.145037003128072
4.151191475293081
4.145037003128072
4.12657358663307
4.138882530963089
4.231199613438097
4.40967930622313
4.563541110348153
4.723557386638154
4.81587446911319
4.686630553648152
4.360443528903107
3.9788662546730578
3.7757686732280415
3.837313394878028
3.9111670608580615
3.9665573103430645
3.9973296711680604
4.065028864983084
4.138882530963089
4.157345947458091
4.163500419623101
4.169654891788083
4.169654891788083
4.169654891788083
4.181963836118102
4.188118308283084
4.1942727804480935
4.2065817247780855
4.1942727804480935
4.2065817247780855
4.2065817247780855
4.212736196943095
4.212736196943095
4.225045141273086
4.231199613438097
4.225045141273086
4.231199613438097
4.237354085603107
4.237354085603107
4.243508557768089
4.243508557768089
4.249663029933098
4.261971974263091
4.261971974263091
4.27428091859311
4.27428091859311
4.27428091859311
4.27428091859311
4.2865898629231
4.292744335088111
4.298898807253093
4.305053279418103
4.298898807253093
4.305053279418103
4.3112077515831135
4.3112077515831135
4.323516695913104
4.329671168078114
4.335825640243124
4.354289056738125
4.354289056738125
4.366598001068117
4.3727524732331275
4.37890694539811
4.391215889728128
4.397370361893111
4.397370361893111
4.40352483405812
4.40352483405812
4.40352483405812
4.397370361893111
4.391215889728128
4.391215889728128
4.391215889728128
4.3727524732331275
4.354289056738125
4.348134584573115
4.3173622237481215
4.292744335088111
4.280435390758093
4.255817502098108
4.231199613438097
4.212736196943095
4.200427252613103
4.188118308283084
4.169654891788083
4.145037003128072
4.145037003128072
4.138882530963089
4.12657358663307
4.1327280587980795
4.12657358663307
4.120419114468088
4.12657358663307
4.120419114468088
4.108110170138069
4.065028864983084
4.138882530963089
4.138882530963089
4.145037003128072
4.145037003128072
4.1327280587980795
4.120419114468088
4.120419114468088
4.138882530963089
4.138882530963089
4.145037003128072
4.145037003128072
4.151191475293081
4.151191475293081
4.151191475293081
4.157345947458091
4.151191475293081
4.145037003128072
4.151191475293081
4.151191475293081
4.145037003128072
4.151191475293081
4.157345947458091
4.157345947458091
4.157345947458091
4.169654891788083
4.169654891788083
4.157345947458091
4.151191475293081
4.151191475293081
4.157345947458091
4.163500419623101
4.157345947458091
4.157345947458091
4.151191475293081
4.151191475293081
4.157345947458091
4.157345947458091
4.138882530963089
4.145037003128072
4.151191475293081
4.151191475293081
4.151191475293081
4.151191475293081
4.157345947458091
4.151191475293081
4.157345947458091
4.163500419623101
4.157345947458091
4.163500419623101
4.157345947458091
4.163500419623101
4.163500419623101
4.163500419623101
4.163500419623101
4.169654891788083
4.163500419623101
4.169654891788083
4.169654891788083
4.1758093639530935
4.169654891788083
4.163500419623101
4.163500419623101
4.169654891788083
4.188118308283084
4.188118308283084
4.188118308283084
4.188118308283084
4.200427252613103
4.225045141273086
4.231199613438097
4.231199613438097
4.225045141273086
4.212736196943095
4.212736196943095
4.200427252613103
4.2065817247780855
4.200427252613103
4.181963836118102
4.181963836118102
4.1758093639530935
4.1758093639530935
4.1758093639530935
4.1758093639530935
4.157345947458091
4.163500419623101
4.163500419623101
4.169654891788083
4.169654891788083
4.163500419623101
4.169654891788083
4.169654891788083
4.157345947458091
4.151191475293081
4.157345947458091
4.157345947458091
4.163500419623101
4.169654891788083
4.169654891788083
4.163500419623101
4.163500419623101
4.163500419623101
4.157345947458091
4.145037003128072
4.1327280587980795
4.1942727804480935
4.348134584573115
4.489687444368147
4.618931359833156
4.828183413443182
4.778947636123188
4.495841916533129
4.114264642303079
3.8126955062180454
3.800386561888025
3.8680857557030492
3.9296304773530633
3.9665573103430645
4.0465654484880815
4.12657358663307
4.169654891788083
4.157345947458091
4.114264642303079
4.151191475293081
4.169654891788083
4.181963836118102
4.188118308283084
4.1942727804480935
4.1942727804480935
4.1942727804480935
4.200427252613103
4.200427252613103
4.200427252613103
4.218890669108104
4.212736196943095
4.218890669108104
4.218890669108104
4.231199613438097
4.225045141273086
4.231199613438097
4.231199613438097
4.243508557768089
4.255817502098108
4.261971974263091
4.261971974263091
4.2681264464281
4.2681264464281
4.2865898629231
4.2865898629231
4.292744335088111
4.292744335088111
4.292744335088111
4.292744335088111
4.3112077515831135
4.305053279418103
4.3173622237481215
4.323516695913104
4.329671168078114
4.329671168078114
4.348134584573115
4.354289056738125
4.354289056738125
4.354289056738125
4.3727524732331275
4.37890694539811
4.385061417563119
4.391215889728128
4.391215889728128
4.40352483405812
4.40352483405812
4.397370361893111
4.40352483405812
4.40352483405812
4.397370361893111
4.391215889728128
4.3727524732331275
4.366598001068117
4.341980112408105
4.329671168078114
4.3112077515831135
4.2865898629231
4.2681264464281
4.243508557768089
4.231199613438097
4.2065817247780855
4.181963836118102
4.169654891788083
4.169654891788083
4.157345947458091
4.151191475293081
4.138882530963089
4.138882530963089
4.145037003128072
4.1327280587980795
4.12657358663307
4.12657358663307
4.12657358663307
4.1327280587980795
4.1327280587980795
4.1327280587980795
4.1327280587980795
4.1327280587980795
4.145037003128072
4.138882530963089
4.138882530963089
4.151191475293081
4.151191475293081
4.145037003128072
4.151191475293081
4.145037003128072
4.151191475293081
4.151191475293081
4.151191475293081
4.157345947458091
4.151191475293081
4.163500419623101
4.157345947458091
4.151191475293081
4.157345947458091
4.157345947458091
4.151191475293081
4.157345947458091
4.151191475293081
4.151191475293081
4.151191475293081
4.151191475293081
4.145037003128072
4.151191475293081
4.151191475293081
4.157345947458091
4.157345947458091
4.151191475293081
4.157345947458091
4.145037003128072
4.157345947458091
4.151191475293081
4.157345947458091
4.151191475293081
4.163500419623101
4.163500419623101
4.151191475293081
4.151191475293081
4.145037003128072
4.12657358663307
4.095801225808079
4.157345947458091
4.163500419623101
4.169654891788083
4.138882530963089
4.145037003128072
4.151191475293081
4.157345947458091
4.169654891788083
4.169654891788083
4.169654891788083
4.163500419623101
4.163500419623101
4.169654891788083
4.163500419623101
4.1758093639530935
4.1758093639530935
4.1942727804480935
4.188118308283084
4.181963836118102
4.1758093639530935
4.2065817247780855
4.231199613438097
4.225045141273086
4.231199613438097
4.225045141273086
4.218890669108104
4.212736196943095
4.2065817247780855
4.200427252613103
4.188118308283084
4.181963836118102
4.1758093639530935
4.181963836118102
4.181963836118102
4.1758093639530935
4.1758093639530935
4.169654891788083
4.1758093639530935
4.169654891788083
4.1758093639530935
4.169654891788083
4.1758093639530935
4.169654891788083
4.169654891788083
4.169654891788083
4.169654891788083
4.169654891788083
4.169654891788083
4.1758093639530935
4.169654891788083
4.163500419623101
4.163500419623101
4.163500419623101
4.157345947458091
4.145037003128072
4.1327280587980795
4.138882530963089
4.249663029933098
4.40967930622313
4.563541110348153
4.723557386638154
4.7912565804531795
4.625085831998166
4.305053279418103
3.9111670608580615
3.7142239515780275
3.781923145393024
3.8680857557030492
3.948093893848065
3.9911751990030497
4.083492281478085
4.151191475293081
4.181963836118102
4.181963836118102
4.188118308283084
4.188118308283084
4.188118308283084
4.1942727804480935
4.200427252613103
4.225045141273086
4.225045141273086
4.212736196943095
4.212736196943095
4.218890669108104
4.218890669108104
4.225045141273086
4.225045141273086
4.231199613438097
4.237354085603107
4.237354085603107
4.249663029933098
4.249663029933098
4.243508557768089
4.243508557768089
4.255817502098108
4.261971974263091
4.2681264464281
4.27428091859311
4.280435390758093
4.292744335088111
4.298898807253093
4.305053279418103
4.3112077515831135
4.3112077515831135
4.323516695913104
4.3112077515831135
4.329671168078114
4.341980112408105
4.348134584573115
4.348134584573115
4.360443528903107
4.360443528903107
4.3727524732331275
4.366598001068117
4.391215889728128
4.397370361893111
4.415833778388112
4.40967930622313
4.421988250553122
4.434297194883113
4.428142722718132
4.391215889728128
4.569695582513134
4.649703720658149
4.5943134711731455
4.54507769385315
4.514305333028129
4.489687444368147
4.434297194883113
4.37890694539811
4.37890694539811
4.360443528903107
4.335825640243124
4.3112077515831135
4.27428091859311
4.255817502098108
4.243508557768089
4.218890669108104
4.2065817247780855
4.200427252613103
4.188118308283084
4.181963836118102
4.1758093639530935
4.169654891788083
4.157345947458091
4.151191475293081
4.157345947458091
4.157345947458091
4.157345947458091
4.163500419623101
4.157345947458091
4.163500419623101
4.151191475293081
4.151191475293081
4.157345947458091
4.157345947458091
4.163500419623101
4.169654891788083
4.169654891788083
4.218890669108104
4.1758093639530935
4.145037003128072
4.169654891788083
4.1758093639530935
4.1758093639530935
4.1758093639530935
4.181963836118102
4.181963836118102
4.169654891788083
4.181963836118102
4.181963836118102
4.181963836118102
4.1758093639530935
4.181963836118102
4.169654891788083
4.108110170138069
4.0711833371480655
4.188118308283084
4.1942727804480935
4.181963836118102
4.181963836118102
4.181963836118102
4.1758093639530935
4.138882530963089
4.138882530963089
4.157345947458091
4.157345947458091
4.157345947458091
4.169654891788083
4.169654891788083
4.169654891788083
4.163500419623101
4.1758093639530935
4.169654891788083
4.1758093639530935
4.181963836118102
4.181963836118102
4.181963836118102
4.169654891788083
4.1758093639530935
4.200427252613103
4.231199613438097
4.225045141273086
4.225045141273086
4.225045141273086
4.212736196943095
4.218890669108104
4.212736196943095
4.2065817247780855
4.200427252613103
4.1758093639530935
4.169654891788083
4.169654891788083
4.169654891788083
4.169654891788083
4.188118308283084
4.181963836118102
4.1758093639530935
4.169654891788083
4.157345947458091
4.157345947458091
4.157345947458091
4.151191475293081
4.138882530963089
4.151191475293081
4.151191475293081
4.138882530963089
4.145037003128072
4.1327280587980795
4.108110170138069
4.120419114468088
4.120419114468088
4.138882530963089
4.1327280587980795
4.1327280587980795
4.1327280587980795
4.120419114468088
4.151191475293081
4.261971974263091
4.458915083543125
4.655858192823159
4.834337885608192
4.871264718598195
4.588158999008135
4.2865898629231
3.8988581165280416
3.720378423743037
3.8188499783830263
3.9111670608580615
3.9665573103430645
4.015793087663061
4.083492281478085
4.151191475293081
4.188118308283084
4.188118308283084
4.188118308283084
4.1758093639530935
4.181963836118102
4.188118308283084
4.1942727804480935
4.200427252613103
4.2065817247780855
4.200427252613103
4.2065817247780855
4.218890669108104
4.237354085603107
4.255817502098108
4.261971974263091
4.261971974263091
4.255817502098108
4.2681264464281
4.27428091859311
4.2681264464281
4.27428091859311
4.27428091859311
4.27428091859311
4.280435390758093
4.280435390758093
4.2865898629231
4.298898807253093
4.305053279418103
4.3112077515831135
4.323516695913104
4.3173622237481215
4.323516695913104
4.323516695913104
4.329671168078114
4.335825640243124
4.348134584573115
4.354289056738125
4.360443528903107
4.366598001068117
4.366598001068117
4.3727524732331275
4.385061417563119
4.385061417563119
4.397370361893111
4.415833778388112
4.415833778388112
4.415833778388112
4.415833778388112
4.415833778388112
4.415833778388112
4.421988250553122
4.421988250553122
4.40967930622313
4.40967930622313
4.397370361893111
4.37890694539811
4.354289056738125
4.335825640243124
4.3112077515831135
4.298898807253093
4.280435390758093
4.261971974263091
4.237354085603107
4.218890669108104
4.218890669108104
4.2065817247780855
4.188118308283084
4.181963836118102
4.169654891788083
4.163500419623101
4.169654891788083
4.163500419623101
4.157345947458091
4.157345947458091
4.157345947458091
4.157345947458091
4.169654891788083
4.169654891788083
4.157345947458091
4.157345947458091
4.169654891788083
4.169654891788083
4.169654891788083
4.1758093639530935
4.181963836118102
4.181963836118102
4.1758093639530935
4.181963836118102
4.1758093639530935
4.188118308283084
4.188118308283084
4.188118308283084
4.188118308283084
4.181963836118102
4.188118308283084
4.188118308283084
4.188118308283084
4.188118308283084
4.181963836118102
4.188118308283084
4.181963836118102
4.1758093639530935
4.169654891788083
4.169654891788083
4.163500419623101
4.157345947458091
4.163500419623101
4.157345947458091
4.163500419623101
4.157345947458091
4.151191475293081
4.145037003128072
4.095801225808079
4.138882530963089
4.151191475293081
4.145037003128072
4.151191475293081
4.145037003128072
4.114264642303079
4.12657358663307
4.138882530963089
4.145037003128072
4.163500419623101
4.169654891788083
4.1758093639530935
4.181963836118102
4.188118308283084
4.2065817247780855
4.225045141273086
4.231199613438097
4.231199613438097
4.231199613438097
4.231199613438097
4.225045141273086
4.218890669108104
4.225045141273086
4.218890669108104
4.2065817247780855
4.1942727804480935
4.1942727804480935
4.1942727804480935
4.181963836118102
4.181963836118102
4.1758093639530935
4.181963836118102
4.181963836118102
4.188118308283084
4.1942727804480935
4.188118308283084
4.188118308283084
4.1942727804480935
4.1942727804480935
4.188118308283084
4.1942727804480935
4.1942727804480935
4.200427252613103
4.200427252613103
4.200427252613103
4.2065817247780855
4.212736196943095
4.2065817247780855
4.2065817247780855
4.188118308283084
4.181963836118102
4.218890669108104
4.354289056738125
4.52661427735815
4.68047608148317
4.834337885608192
4.834337885608192
4.606622415503137
4.243508557768089
3.8988581165280416
3.831158922713046
3.9173215330230438
3.9788662546730578
4.034256504158063
4.101955697973087
4.163500419623101
4.212736196943095
4.218890669108104
4.225045141273086
4.225045141273086
4.231199613438097
4.231199613438097
4.218890669108104
4.218890669108104
4.2065817247780855
4.188118308283084
4.1942727804480935
4.181963836118102
4.1758093639530935
4.181963836118102
4.188118308283084
4.1942727804480935
4.200427252613103
4.1942727804480935
4.200427252613103
4.212736196943095
4.218890669108104
4.212736196943095
4.225045141273086
4.231199613438097
4.237354085603107
4.237354085603107
4.249663029933098
4.249663029933098
4.243508557768089
4.249663029933098
4.243508557768089
4.261971974263091
4.261971974263091
4.2681264464281
4.27428091859311
4.292744335088111
4.298898807253093
4.305053279418103
4.3173622237481215
4.3173622237481215
4.335825640243124
4.348134584573115
4.360443528903107
4.366598001068117
4.37890694539811
4.385061417563119
4.391215889728128
4.397370361893111
4.391215889728128
4.40352483405812
4.40352483405812
4.40967930622313
4.397370361893111
4.391215889728128
4.37890694539811
4.3173622237481215
4.2865898629231
4.292744335088111
4.323516695913104
4.298898807253093
4.280435390758093
4.249663029933098
4.231199613438097
4.218890669108104
4.169654891788083
4.157345947458091
4.151191475293081
4.145037003128072
4.145037003128072
4.138882530963089
4.1327280587980795
4.12657358663307
4.114264642303079
4.114264642303079
4.108110170138069
4.108110170138069
4.108110170138069
4.108110170138069
4.120419114468088
4.120419114468088
4.12657358663307
4.12657358663307
4.12657358663307
4.1327280587980795
4.1327280587980795
4.12657358663307
4.12657358663307
4.120419114468088
4.120419114468088
4.120419114468088
4.12657358663307
4.12657358663307
4.1327280587980795
4.120419114468088
4.120419114468088
4.120419114468088
4.108110170138069
4.108110170138069
4.108110170138069
4.101955697973087
4.095801225808079
4.095801225808079
4.089646753643067
4.077337809313075
4.083492281478085
4.083492281478085
4.089646753643067
4.095801225808079
4.095801225808079
4.101955697973087
4.108110170138069
4.114264642303079
4.114264642303079
4.120419114468088
4.12657358663307
4.1327280587980795
4.1327280587980795
4.145037003128072
4.138882530963089
4.138882530963089
4.145037003128072
4.157345947458091
4.157345947458091
4.157345947458091
4.151191475293081
4.163500419623101
4.157345947458091
4.157345947458091
4.157345947458091
4.157345947458091
4.163500419623101
4.169654891788083
4.163500419623101
4.163500419623101
4.163500419623101
4.169654891788083
4.1758093639530935
4.169654891788083
4.163500419623101
4.163500419623101
4.163500419623101
4.163500419623101
4.163500419623101
4.157345947458091
4.163500419623101
4.1758093639530935
4.181963836118102
4.1758093639530935
4.169654891788083
4.181963836118102
4.200427252613103
4.237354085603107
4.231199613438097
4.225045141273086
4.218890669108104
4.212736196943095
4.2065817247780855
4.212736196943095
4.200427252613103
4.1942727804480935
4.169654891788083
4.169654891788083
4.1758093639530935
4.169654891788083
4.169654891788083
4.163500419623101
4.157345947458091
4.163500419623101
4.1758093639530935
4.163500419623101
4.169654891788083
4.169654891788083
4.169654891788083
4.163500419623101
4.163500419623101
4.1758093639530935
4.163500419623101
4.120419114468088
4.188118308283084
4.188118308283084
4.181963836118102
4.157345947458091
4.151191475293081
4.169654891788083
4.151191475293081
4.138882530963089
4.145037003128072
4.237354085603107
4.421988250553122
4.5943134711731455
4.766638691793168
4.858955774268176
4.717402914473172
4.391215889728128
4.003484143333068
3.8126955062180454
3.8619312835380395
3.9296304773530633
3.9788662546730578
4.021947559828071
4.089646753643067
4.145037003128072
4.169654891788083
4.163500419623101
4.163500419623101
4.169654891788083
4.1758093639530935
4.181963836118102
4.188118308283084
4.188118308283084
4.200427252613103
4.200427252613103
4.1942727804480935
4.200427252613103
4.212736196943095
4.212736196943095
4.218890669108104
4.218890669108104
4.225045141273086
4.225045141273086
4.218890669108104
4.225045141273086
4.231199613438097
4.237354085603107
4.243508557768089
4.243508557768089
4.249663029933098
4.249663029933098
4.243508557768089
4.255817502098108
4.261971974263091
4.261971974263091
4.2681264464281
4.27428091859311
4.27428091859311
4.280435390758093
4.280435390758093
4.298898807253093
4.305053279418103
4.3112077515831135
4.3173622237481215
4.329671168078114
4.335825640243124
4.335825640243124
4.348134584573115
4.354289056738125
4.360443528903107
4.360443528903107
4.366598001068117
4.37890694539811
4.37890694539811
4.3727524732331275
4.37890694539811
4.385061417563119
4.37890694539811
4.3727524732331275
4.366598001068117
4.360443528903107
4.348134584573115
4.323516695913104
4.3112077515831135
4.292744335088111
4.2681264464281
4.249663029933098
4.231199613438097
4.200427252613103
4.1942727804480935
4.1758093639530935
4.163500419623101
4.151191475293081
4.145037003128072
4.138882530963089
4.12657358663307
4.120419114468088
4.114264642303079
4.114264642303079
4.114264642303079
4.114264642303079
4.12657358663307
4.120419114468088
4.1327280587980795
4.12657358663307
4.12657358663307
4.12657358663307
4.1327280587980795
4.1327280587980795
4.145037003128072
4.145037003128072
4.138882530963089
4.151191475293081
4.138882530963089
4.145037003128072
4.151191475293081
4.145037003128072
4.145037003128072
4.151191475293081
4.145037003128072
4.151191475293081
4.1327280587980795
4.095801225808079
4.169654891788083
4.169654891788083
4.163500419623101
4.163500419623101
4.157345947458091
4.163500419623101
4.138882530963089
4.120419114468088
4.138882530963089
4.145037003128072
4.145037003128072
4.145037003128072
4.151191475293081
4.145037003128072
4.1327280587980795
4.145037003128072
4.145037003128072
4.151191475293081
4.151191475293081
4.157345947458091
4.151191475293081
4.145037003128072
4.145037003128072
4.151191475293081
4.145037003128072
4.151191475293081
4.157345947458091
4.163500419623101
4.163500419623101
4.163500419623101
4.157345947458091
4.157345947458091
4.157345947458091
4.157345947458091
4.163500419623101
4.157345947458091
4.157345947458091
4.163500419623101
4.157345947458091
4.163500419623101
4.163500419623101
4.163500419623101
4.169654891788083
4.163500419623101
4.169654891788083
4.163500419623101
4.163500419623101
4.163500419623101
4.163500419623101
4.163500419623101
4.169654891788083
4.163500419623101
4.169654891788083
4.169654891788083
4.157345947458091
4.163500419623101
4.163500419623101
4.169654891788083
4.1758093639530935
4.181963836118102
4.169654891788083
4.181963836118102
4.212736196943095
4.231199613438097
4.225045141273086
4.212736196943095
4.2065817247780855
4.212736196943095
4.2065817247780855
4.145037003128072
4.1758093639530935
4.1942727804480935
4.181963836118102
4.181963836118102
4.181963836118102
4.1758093639530935
4.163500419623101
4.145037003128072
4.145037003128072
4.163500419623101
4.163500419623101
4.169654891788083
4.163500419623101
4.163500419623101
4.163500419623101
4.169654891788083
4.169654891788083
4.169654891788083
4.1758093639530935
4.169654891788083
4.169654891788083
4.1758093639530935
4.163500419623101
4.1758093639530935
4.1758093639530935
4.169654891788083
4.157345947458091
4.1327280587980795
4.145037003128072
4.261971974263091
4.458915083543125
4.655858192823159
4.8528013021031935
4.9266549680832
4.7420208031331565
4.3727524732331275
3.9665573103430645
3.837313394878028
3.886549172198051
3.948093893848065
3.9850207268380675
4.028102031993082
4.114264642303079
4.169654891788083
4.181963836118102
4.188118308283084
4.1758093639530935
4.1942727804480935
4.1942727804480935
4.200427252613103
4.1942727804480935
4.12657358663307
4.151191475293081
4.1942727804480935
4.200427252613103
4.212736196943095
4.212736196943095
4.231199613438097
4.249663029933098
4.243508557768089
4.237354085603107
4.231199613438097
4.231199613438097
4.237354085603107
4.237354085603107
4.237354085603107
4.243508557768089
4.243508557768089
4.255817502098108
4.249663029933098
4.243508557768089
4.249663029933098
4.261971974263091
4.261971974263091
4.2681264464281
4.2681264464281
4.27428091859311
4.27428091859311
4.2865898629231
4.292744335088111
4.298898807253093
4.292744335088111
4.305053279418103
4.3173622237481215
4.3173622237481215
4.323516695913104
4.323516695913104
4.341980112408105
4.341980112408105
4.354289056738125
4.366598001068117
4.366598001068117
4.360443528903107
4.366598001068117
4.3727524732331275
4.3727524732331275
4.3727524732331275
4.366598001068117
4.354289056738125
4.348134584573115
4.323516695913104
4.3112077515831135
4.292744335088111
4.2681264464281
4.249663029933098
4.237354085603107
4.237354085603107
4.237354085603107
4.188118308283084
4.145037003128072
4.145037003128072
4.138882530963089
4.1327280587980795
4.120419114468088
4.108110170138069
4.108110170138069
4.108110170138069
4.101955697973087
4.101955697973087
4.108110170138069
4.114264642303079
4.108110170138069
4.108110170138069
4.114264642303079
4.101955697973087
4.101955697973087
4.108110170138069
4.114264642303079
4.120419114468088
4.114264642303079
4.114264642303079
4.12657358663307
4.12657358663307
4.120419114468088
4.12657358663307
4.12657358663307
4.1327280587980795
4.1327280587980795
4.1327280587980795
4.120419114468088
4.120419114468088
4.12657358663307
4.12657358663307
4.12657358663307
4.12657358663307
4.12657358663307
4.120419114468088
4.12657358663307
4.1327280587980795
4.138882530963089
4.12657358663307
4.12657358663307
4.12657358663307
4.12657358663307
4.1327280587980795
4.1327280587980795
4.12657358663307
4.1327280587980795
4.1327280587980795
4.1327280587980795
4.1327280587980795
4.12657358663307
4.114264642303079
4.114264642303079
4.12657358663307
4.12657358663307
4.1327280587980795
4.12657358663307
4.138882530963089
4.1327280587980795
4.145037003128072
4.145037003128072
4.12657358663307
4.058874392818074
4.12657358663307
4.169654891788083
4.163500419623101
4.157345947458091
4.151191475293081
4.120419114468088
4.1327280587980795
4.138882530963089
4.151191475293081
4.151191475293081
4.145037003128072
4.145037003128072
4.151191475293081
4.157345947458091
4.169654891788083
4.181963836118102
4.169654891788083
4.188118308283084
4.200427252613103
4.212736196943095
4.200427252613103
4.1942727804480935
4.200427252613103
4.200427252613103
4.200427252613103
4.200427252613103
4.188118308283084
4.169654891788083
4.157345947458091
4.145037003128072
4.157345947458091
4.157345947458091
4.151191475293081
4.151191475293081
4.163500419623101
4.163500419623101
4.151191475293081
4.163500419623101
4.163500419623101
4.163500419623101
4.163500419623101
4.163500419623101
4.163500419623101
4.157345947458091
4.157345947458091
4.163500419623101
4.163500419623101
4.157345947458091
4.169654891788083
4.169654891788083
4.163500419623101
4.163500419623101
4.138882530963089
4.120419114468088
4.138882530963089
4.261971974263091
4.446606139213133
4.625085831998166
4.803565524783171
4.8651102464331855
4.6435492484931675
4.280435390758093
3.9173215330230438
3.8126955062180454
3.8803947000330408
3.9419394216830552
3.9850207268380675
4.009638615498079
4.089646753643067
4.138882530963089
4.169654891788083
4.1758093639530935
4.169654891788083
4.169654891788083
4.181963836118102
4.181963836118102
4.188118308283084
4.188118308283084
4.188118308283084
4.188118308283084
4.1942727804480935
4.1942727804480935
4.200427252613103
4.2065817247780855
4.212736196943095
4.212736196943095
4.218890669108104
4.218890669108104
4.225045141273086
4.231199613438097
4.231199613438097
4.231199613438097
4.231199613438097
4.237354085603107
4.237354085603107
4.243508557768089
4.243508557768089
4.255817502098108
4.255817502098108
4.255817502098108
4.261971974263091
4.2681264464281
4.280435390758093
4.2865898629231
4.280435390758093
4.292744335088111
4.292744335088111
4.298898807253093
4.305053279418103
4.3173622237481215
4.329671168078114
4.323516695913104
4.329671168078114
4.348134584573115
4.341980112408105
4.354289056738125
4.360443528903107
4.366598001068117
4.360443528903107
4.366598001068117
4.360443528903107
4.305053279418103
4.348134584573115
4.341980112408105
4.348134584573115
4.341980112408105
4.329671168078114
4.3112077515831135
4.292744335088111
4.27428091859311
4.249663029933098
4.225045141273086
4.212736196943095
4.1942727804480935
4.188118308283084
4.1758093639530935
4.157345947458091
4.138882530963089
4.077337809313075
4.120419114468088
4.1327280587980795
4.12657358663307
4.1327280587980795
4.12657358663307
4.12657358663307
4.120419114468088
4.095801225808079
4.101955697973087
4.114264642303079
4.120419114468088
4.114264642303079
4.1327280587980795
4.12657358663307
4.1327280587980795
4.1327280587980795
4.138882530963089
4.138882530963089
4.138882530963089
4.145037003128072
4.138882530963089
4.138882530963089
4.138882530963089
4.138882530963089
4.151191475293081
4.145037003128072
4.145037003128072
4.151191475293081
4.145037003128072
4.151191475293081
4.145037003128072
4.151191475293081
4.145037003128072
4.151191475293081
4.151191475293081
4.151191475293081
4.145037003128072
4.145037003128072
4.145037003128072
4.145037003128072
4.151191475293081
4.151191475293081
4.151191475293081
4.151191475293081
4.145037003128072
4.145037003128072
4.151191475293081
4.145037003128072
4.151191475293081
4.145037003128072
4.145037003128072
4.151191475293081
4.151191475293081
4.163500419623101
4.163500419623101
4.163500419623101
4.157345947458091
4.169654891788083
4.188118308283084
4.2065817247780855
4.200427252613103
4.1942727804480935
4.188118308283084
4.188118308283084
4.188118308283084
4.181963836118102
4.1758093639530935
4.145037003128072
4.145037003128072
4.145037003128072
4.151191475293081
4.151191475293081
4.151191475293081
4.157345947458091
4.151191475293081
4.151191475293081
4.151191475293081
4.138882530963089
4.151191475293081
4.145037003128072
4.157345947458091
4.157345947458091
4.163500419623101
4.163500419623101
4.151191475293081
4.151191475293081
4.163500419623101
4.157345947458091
4.163500419623101
4.163500419623101
4.163500419623101
4.169654891788083
4.163500419623101
4.145037003128072
4.145037003128072
4.1758093639530935
4.323516695913104
4.495841916533129
4.649703720658149
4.797411052618189
4.760484219628157
4.495841916533129
4.145037003128072
3.837313394878028
3.75115078456803
3.8988581165280416
3.9727117825080467
4.009638615498079
4.021947559828071
4.077337809313075
4.145037003128072
4.1758093639530935
4.1758093639530935
4.181963836118102
4.188118308283084
4.1942727804480935
4.1942727804480935
4.200427252613103
4.212736196943095
4.218890669108104
4.218890669108104
4.225045141273086
4.225045141273086
4.225045141273086
4.225045141273086
4.225045141273086
4.237354085603107
4.237354085603107
4.237354085603107
4.243508557768089
4.243508557768089
4.243508557768089
4.243508557768089
4.255817502098108
4.255817502098108
4.249663029933098
4.255817502098108
4.2681264464281
4.2681264464281
4.2865898629231
4.280435390758093
4.280435390758093
4.2865898629231
4.292744335088111
4.305053279418103
4.3173622237481215
4.3112077515831135
4.3173622237481215
4.335825640243124
4.335825640243124
4.348134584573115
4.354289056738125
4.360443528903107
4.366598001068117
4.3727524732331275
4.3727524732331275
4.3727524732331275
4.3727524732331275
4.37890694539811
4.385061417563119
4.385061417563119
4.385061417563119
4.3727524732331275
4.366598001068117
4.360443528903107
4.348134584573115
4.329671168078114
4.3112077515831135
4.298898807253093
4.280435390758093
4.261971974263091
4.237354085603107
4.212736196943095
4.1942727804480935
4.188118308283084
4.163500419623101
4.157345947458091
4.138882530963089
4.1327280587980795
4.1327280587980795
4.12657358663307
4.12657358663307
4.120419114468088
4.12657358663307
4.120419114468088
4.114264642303079
4.120419114468088
4.114264642303079
4.120419114468088
4.12657358663307
4.12657358663307
4.120419114468088
4.12657358663307
4.12657358663307
4.12657358663307
4.1327280587980795
4.1327280587980795
4.138882530963089
4.1327280587980795
4.138882530963089
4.138882530963089
4.145037003128072
4.138882530963089
4.1327280587980795
4.1327280587980795
4.138882530963089
4.145037003128072
4.1327280587980795
4.1327280587980795
4.138882530963089
4.138882530963089
4.145037003128072
4.138882530963089
4.138882530963089
4.145037003128072
4.145037003128072
4.138882530963089
4.145037003128072
4.1327280587980795
4.138882530963089
4.1327280587980795
4.1327280587980795
4.1327280587980795
4.138882530963089
4.1327280587980795
4.114264642303079
4.0711833371480655
4.145037003128072
4.151191475293081
4.145037003128072
4.151191475293081
4.145037003128072
4.151191475293081
4.1327280587980795
4.1327280587980795
4.138882530963089
4.145037003128072
4.163500419623101
4.188118308283084
4.1942727804480935
4.188118308283084
4.181963836118102
4.181963836118102
4.181963836118102
4.181963836118102
4.169654891788083
4.1758093639530935
4.163500419623101
4.151191475293081
4.145037003128072
4.138882530963089
4.145037003128072
4.151191475293081
4.145037003128072
4.145037003128072
4.145037003128072
4.145037003128072
4.138882530963089
4.145037003128072
4.145037003128072
4.145037003128072
4.151191475293081
4.145037003128072
4.145037003128072
4.145037003128072
4.145037003128072
4.151191475293081
4.163500419623101
4.157345947458091
4.163500419623101
4.163500419623101
4.163500419623101
4.151191475293081
4.138882530963089
4.145037003128072
4.237354085603107
4.421988250553122
4.5820045268431535
4.748175275298167
4.828183413443182
4.686630553648152
4.366598001068117
3.9788662546730578
3.781923145393024
3.837313394878028
3.9111670608580615
3.9665573103430645
4.015793087663061
4.083492281478085
4.151191475293081
4.1758093639530935
4.181963836118102
4.188118308283084
4.1942727804480935
4.1942727804480935
4.1942727804480935
4.1942727804480935
4.200427252613103
4.2065817247780855
4.2065817247780855
4.212736196943095
4.212736196943095
4.225045141273086
4.225045141273086
4.218890669108104
4.231199613438097
4.237354085603107
4.231199613438097
4.237354085603107
4.243508557768089
4.243508557768089
4.237354085603107
4.181963836118102
4.255817502098108
4.27428091859311
4.2681264464281
4.27428091859311
4.280435390758093
4.280435390758093
4.2681264464281
4.255817502098108
4.27428091859311
4.280435390758093
4.292744335088111
4.298898807253093
4.3112077515831135
4.329671168078114
4.329671168078114
4.329671168078114
4.341980112408105
4.348134584573115
4.354289056738125
4.360443528903107
4.366598001068117
4.37890694539811
4.385061417563119
4.37890694539811
4.391215889728128
4.385061417563119
4.385061417563119
4.37890694539811
4.385061417563119
4.37890694539811
4.3727524732331275
4.366598001068117
4.348134584573115
4.329671168078114
4.298898807253093
4.231199613438097
4.27428091859311
4.249663029933098
4.2065817247780855
4.1942727804480935
4.181963836118102
4.169654891788083
4.151191475293081
4.145037003128072
4.12657358663307
4.1327280587980795
4.12657358663307
4.108110170138069
4.114264642303079
4.108110170138069
4.108110170138069
4.114264642303079
4.114264642303079
4.120419114468088
4.12657358663307
4.120419114468088
4.120419114468088
4.12657358663307
4.1327280587980795
4.1327280587980795
4.1327280587980795
4.12657358663307
4.1327280587980795
4.1327280587980795
4.145037003128072
4.138882530963089
4.145037003128072
4.12657358663307
4.138882530963089
4.1327280587980795
4.138882530963089
4.138882530963089
4.151191475293081
4.151191475293081
4.151191475293081
4.151191475293081
4.157345947458091
4.145037003128072
4.151191475293081
4.157345947458091
4.157345947458091
4.157345947458091
4.151191475293081
4.151191475293081
4.151191475293081
4.145037003128072
4.157345947458091
4.145037003128072
4.145037003128072
4.151191475293081
4.151191475293081
4.151191475293081
4.157345947458091
4.157345947458091
4.157345947458091
4.157345947458091
4.151191475293081
4.151191475293081
4.157345947458091
4.157345947458091
4.157345947458091
4.157345947458091
4.163500419623101
4.163500419623101
4.163500419623101
4.1758093639530935
4.181963836118102
4.1758093639530935
4.1758093639530935
4.200427252613103
4.218890669108104
4.225045141273086
4.231199613438097
4.225045141273086
4.218890669108104
4.212736196943095
4.2065817247780855
4.212736196943095
4.2065817247780855
4.188118308283084
4.181963836118102
4.1758093639530935
4.1942727804480935
4.188118308283084
4.181963836118102
4.181963836118102
4.188118308283084
4.181963836118102
4.181963836118102
4.181963836118102
4.181963836118102
4.1758093639530935
4.1758093639530935
4.1758093639530935
4.188118308283084
4.181963836118102
4.188118308283084
4.181963836118102
4.188118308283084
4.1758093639530935
4.181963836118102
4.188118308283084
4.181963836118102
4.181963836118102
4.169654891788083
4.157345947458091
4.181963836118102
4.305053279418103
4.495841916533129
4.655858192823159
4.822028941278172
4.8528013021031935
4.637394776328158
4.27428091859311
3.8988581165280416
3.8065410340530352
3.874240227868059
3.905012588693053
3.9973296711680604
4.058874392818074
4.12657358663307
4.181963836118102
4.1942727804480935
4.163500419623101
4.1758093639530935
4.188118308283084
4.1942727804480935
4.2065817247780855
4.2065817247780855
4.2065817247780855
4.212736196943095
4.212736196943095
4.212736196943095
4.212736196943095
4.218890669108104
4.218890669108104
4.231199613438097
4.231199613438097
4.231199613438097
4.237354085603107
4.243508557768089
4.243508557768089
4.243508557768089
4.249663029933098
4.249663029933098
4.255817502098108
4.255817502098108
4.255817502098108
4.2681264464281
4.27428091859311
4.27428091859311
4.27428091859311
4.2865898629231
4.2865898629231
4.2865898629231
4.292744335088111
4.305053279418103
4.305053279418103
4.3112077515831135
4.3173622237481215
4.323516695913104
4.335825640243124
4.335825640243124
4.341980112408105
4.354289056738125
4.360443528903107
4.366598001068117
4.3727524732331275
4.37890694539811
4.37890694539811
4.37890694539811
4.37890694539811
4.37890694539811
4.385061417563119
4.385061417563119
4.37890694539811
4.360443528903107
4.341980112408105
4.329671168078114
4.305053279418103
4.280435390758093
4.2681264464281
4.249663029933098
4.218890669108104
4.2065817247780855
4.181963836118102
4.163500419623101
4.151191475293081
4.138882530963089
4.12657358663307
4.12657358663307
4.120419114468088
4.120419114468088
4.108110170138069
4.114264642303079
4.114264642303079
4.108110170138069
4.114264642303079
4.108110170138069
4.114264642303079
4.120419114468088
4.114264642303079
4.120419114468088
4.120419114468088
4.120419114468088
4.120419114468088
4.120419114468088
4.1327280587980795
4.12657358663307
4.120419114468088
4.1327280587980795
4.138882530963089
4.138882530963089
4.138882530963089
4.138882530963089
4.145037003128072
4.145037003128072
4.145037003128072
4.138882530963089
4.138882530963089
4.138882530963089
4.1327280587980795
4.1327280587980795
4.12657358663307
4.138882530963089
4.12657358663307
4.12657358663307
4.12657358663307
4.12657358663307
4.12657358663307
4.1327280587980795
4.1327280587980795
4.1327280587980795
4.1327280587980795
4.1327280587980795
4.1327280587980795
4.1327280587980795
4.138882530963089
4.120419114468088
4.077337809313075
4.114264642303079
4.120419114468088
4.1327280587980795
4.12657358663307
4.138882530963089
4.1327280587980795
4.1327280587980795
4.145037003128072
4.138882530963089
4.145037003128072
4.138882530963089
4.145037003128072
4.145037003128072
4.145037003128072
4.145037003128072
4.138882530963089
4.1327280587980795
4.145037003128072
4.151191475293081
4.145037003128072
4.151191475293081
4.145037003128072
4.138882530963089
4.145037003128072
4.138882530963089
4.138882530963089
4.151191475293081
4.151191475293081
4.151191475293081
4.157345947458091
4.157345947458091
4.163500419623101
4.138882530963089
4.2065817247780855
4.2065817247780855
4.200427252613103
4.188118308283084
4.188118308283084
4.188118308283084
4.163500419623101
4.138882530963089
4.1327280587980795
4.138882530963089
4.138882530963089
4.138882530963089
4.138882530963089
4.138882530963089
4.1327280587980795
4.138882530963089
4.138882530963089
4.138882530963089
4.138882530963089
4.138882530963089
4.1327280587980795
4.138882530963089
4.138882530963089
4.138882530963089
4.138882530963089
4.151191475293081
4.151191475293081
4.151191475293081
4.145037003128072
4.151191475293081
4.145037003128072
4.157345947458091
4.138882530963089
4.120419114468088
4.12657358663307
4.200427252613103
4.385061417563119
4.551232166018132
4.723557386638154
4.8466468299381855
4.748175275298167
4.428142722718132
4.021947559828071
3.788077617558033
3.837313394878028
3.905012588693053
3.948093893848065
3.9850207268380675
4.058874392818074
4.12657358663307
4.151191475293081
4.163500419623101
4.157345947458091
4.157345947458091
4.157345947458091
4.163500419623101
4.169654891788083
4.1758093639530935
4.181963836118102
4.181963836118102
4.188118308283084
4.188118308283084
4.1942727804480935
4.200427252613103
4.200427252613103
4.212736196943095
4.218890669108104
4.218890669108104
4.218890669108104
4.225045141273086
4.225045141273086
4.237354085603107
4.237354085603107
4.237354085603107
4.243508557768089
4.243508557768089
4.243508557768089
4.249663029933098
4.261971974263091
4.261971974263091
4.261971974263091
4.2681264464281
4.280435390758093
4.2865898629231
4.292744335088111
4.298898807253093
4.298898807253093
4.298898807253093
4.261971974263091
4.335825640243124
4.348134584573115
4.354289056738125
4.341980112408105
4.329671168078114
4.366598001068117
4.366598001068117
4.3727524732331275
4.3727524732331275
4.3727524732331275
4.385061417563119
4.37890694539811
4.37890694539811
4.37890694539811
4.37890694539811
4.3727524732331275
4.360443528903107
4.341980112408105
4.323516695913104
4.292744335088111
4.27428091859311
4.255817502098108
4.243508557768089
4.225045141273086
4.200427252613103
4.188118308283084
4.1758093639530935
4.151191475293081
4.138882530963089
4.138882530963089
4.120419114468088
4.114264642303079
4.114264642303079
4.114264642303079
4.108110170138069
4.108110170138069
4.101955697973087
4.108110170138069
4.108110170138069
4.114264642303079
4.108110170138069
4.108110170138069
4.108110170138069
4.108110170138069
4.108110170138069
4.120419114468088
4.120419114468088
4.120419114468088
4.120419114468088
4.120419114468088
4.12657358663307
4.12657358663307
4.1327280587980795
4.12657358663307
4.1327280587980795
4.12657358663307
4.12657358663307
4.12657358663307
4.12657358663307
4.1327280587980795
4.138882530963089
4.1327280587980795
4.1327280587980795
4.1327280587980795
4.1327280587980795
4.12657358663307
4.120419114468088
4.1327280587980795
4.1327280587980795
4.12657358663307
4.12657358663307
4.12657358663307
4.12657358663307
4.120419114468088
4.114264642303079
4.12657358663307
4.12657358663307
4.12657358663307
4.1327280587980795
4.12657358663307
4.138882530963089
4.138882530963089
4.138882530963089
4.1327280587980795
4.138882530963089
4.138882530963089
4.138882530963089
4.138882530963089
4.145037003128072
4.1327280587980795
4.1327280587980795
4.145037003128072
4.138882530963089
4.145037003128072
4.138882530963089
4.145037003128072
4.151191475293081
4.1327280587980795
4.138882530963089
4.151191475293081
4.145037003128072
4.157345947458091
4.157345947458091
4.163500419623101
4.163500419623101
4.163500419623101
4.169654891788083
4.169654891788083
4.163500419623101
4.163500419623101
4.169654891788083
4.1758093639530935
4.169654891788083
4.163500419623101
4.169654891788083
4.1942727804480935
4.225045141273086
4.225045141273086
4.225045141273086
4.218890669108104
4.1942727804480935
4.138882530963089
4.212736196943095
4.218890669108104
4.200427252613103
4.188118308283084
4.188118308283084
4.188118308283084
4.163500419623101
4.145037003128072
4.151191475293081
4.151191475293081
4.163500419623101
4.169654891788083
4.169654891788083
4.163500419623101
4.157345947458091
4.163500419623101
4.163500419623101
4.169654891788083
4.1758093639530935
4.169654891788083
4.169654891788083
4.169654891788083
4.169654891788083
4.1758093639530935
4.1758093639530935
4.1758093639530935
4.169654891788083
4.163500419623101
4.145037003128072
4.163500419623101
4.261971974263091
4.452760611378115
4.612776887668146
4.772793163958178
4.840492357773174
4.662012664988168
4.323516695913104
3.9542483660130467
3.8188499783830263
3.905012588693053
3.9727117825080467
4.009638615498079
4.040410976323072
4.114264642303079
4.163500419623101
4.181963836118102
4.181963836118102
4.200427252613103
4.200427252613103
4.1942727804480935
4.200427252613103
4.2065817247780855
4.218890669108104
4.212736196943095
4.218890669108104
4.225045141273086
4.225045141273086
4.231199613438097
4.237354085603107
4.237354085603107
4.237354085603107
4.237354085603107
4.237354085603107
4.243508557768089
4.243508557768089
4.255817502098108
4.249663029933098
4.261971974263091
4.261971974263091
4.2681264464281
4.2681264464281
4.2681264464281
4.27428091859311
4.280435390758093
4.280435390758093
4.292744335088111
4.2865898629231
4.298898807253093
4.305053279418103
4.305053279418103
4.3173622237481215
4.3112077515831135
4.323516695913104
4.335825640243124
4.335825640243124
4.341980112408105
4.354289056738125
4.354289056738125
4.366598001068117
4.37890694539811
4.37890694539811
4.391215889728128
4.37890694539811
4.385061417563119
4.385061417563119
4.397370361893111
4.397370361893111
4.385061417563119
4.37890694539811
4.3727524732331275
4.335825640243124
4.298898807253093
4.348134584573115
4.335825640243124
4.305053279418103
4.280435390758093
4.261971974263091
4.243508557768089
4.200427252613103
4.181963836118102
4.1758093639530935
4.163500419623101
4.157345947458091
4.151191475293081
4.151191475293081
4.1327280587980795
4.12657358663307
4.1327280587980795
4.1327280587980795
4.1327280587980795
4.12657358663307
4.077337809313075
4.138882530963089
4.145037003128072
4.120419114468088
4.12657358663307
4.1327280587980795
4.145037003128072
4.145037003128072
4.151191475293081
4.157345947458091
4.151191475293081
4.157345947458091
4.163500419623101
4.163500419623101
4.157345947458091
4.157345947458091
4.163500419623101
4.163500419623101
4.163500419623101
4.163500419623101
4.163500419623101
4.151191475293081
4.157345947458091
4.157345947458091
4.157345947458091
4.169654891788083
4.163500419623101
4.163500419623101
4.163500419623101
4.163500419623101
4.157345947458091
4.163500419623101
4.163500419623101
4.163500419623101
4.169654891788083
4.169654891788083
4.169654891788083
4.169654891788083
4.169654891788083
4.169654891788083
4.169654891788083
4.1758093639530935
4.169654891788083
4.1758093639530935
4.1758093639530935
4.1758093639530935
4.181963836118102
4.181963836118102
4.1758093639530935
4.181963836118102
4.1758093639530935
4.1758093639530935
4.181963836118102
4.181963836118102
4.1942727804480935
4.1942727804480935
4.188118308283084
4.1942727804480935
4.200427252613103
4.237354085603107
4.231199613438097
4.243508557768089
4.237354085603107
4.237354085603107
4.231199613438097
4.218890669108104
4.218890669108104
4.2065817247780855
4.1942727804480935
4.188118308283084
4.188118308283084
4.1942727804480935
4.1942727804480935
4.188118308283084
4.1942727804480935
4.1942727804480935
4.188118308283084
4.1942727804480935
4.200427252613103
4.188118308283084
4.1942727804480935
4.188118308283084
4.1942727804480935
4.1942727804480935
4.1942727804480935
4.1942727804480935
4.200427252613103
4.200427252613103
4.200427252613103
4.188118308283084
4.200427252613103
4.200427252613103
4.2065817247780855
4.2065817247780855
4.1942727804480935
4.2065817247780855
4.2681264464281
4.421988250553122
4.575850054678144
4.711248442308165
4.809719996948181
4.686630553648152
4.397370361893111
4.065028864983084
3.843467867043037
3.8619312835380395
3.9604028381780574
4.028102031993082
4.058874392818074
4.114264642303079
4.1758093639530935
4.218890669108104
4.225045141273086
4.231199613438097
4.243508557768089
4.255817502098108
4.255817502098108
4.243508557768089
4.255817502098108
4.261971974263091
4.255817502098108
4.249663029933098
4.212736196943095
4.27428091859311
4.280435390758093
4.280435390758093
4.2865898629231
4.2865898629231
4.255817502098108
4.261971974263091
4.2681264464281
4.280435390758093
4.280435390758093
4.292744335088111
4.292744335088111
4.298898807253093
4.292744335088111
4.298898807253093
4.3112077515831135
4.305053279418103
4.3112077515831135
4.3173622237481215
4.3173622237481215
4.329671168078114
4.329671168078114
4.335825640243124
4.348134584573115
4.354289056738125
4.348134584573115
4.354289056738125
4.3727524732331275
4.366598001068117
4.385061417563119
4.385061417563119
4.391215889728128
4.40352483405812
4.40967930622313
4.415833778388112
4.40967930622313
4.415833778388112
4.415833778388112
4.421988250553122
4.415833778388112
4.40967930622313
4.40352483405812
4.391215889728128
4.385061417563119
4.360443528903107
4.348134584573115
4.329671168078114
4.305053279418103
4.280435390758093
4.255817502098108
4.243508557768089
4.231199613438097
4.200427252613103
4.188118308283084
4.181963836118102
4.1758093639530935
4.169654891788083
4.169654891788083
4.157345947458091
4.151191475293081
4.145037003128072
4.151191475293081
4.138882530963089
4.151191475293081
4.151191475293081
4.151191475293081
4.157345947458091
4.151191475293081
4.157345947458091
4.163500419623101
4.157345947458091
4.157345947458091
4.163500419623101
4.163500419623101
4.163500419623101
4.169654891788083
4.169654891788083
4.169654891788083
4.169654891788083
4.169654891788083
4.169654891788083
4.1758093639530935
4.1758093639530935
4.163500419623101
4.1758093639530935
4.181963836118102
4.169654891788083
4.1758093639530935
4.1758093639530935
4.169654891788083
4.163500419623101
4.163500419623101
4.169654891788083
4.163500419623101
4.163500419623101
4.163500419623101
4.169654891788083
4.163500419623101
4.169654891788083
4.163500419623101
4.1758093639530935
4.1758093639530935
4.169654891788083
4.169654891788083
4.169654891788083
4.169654891788083
4.1758093639530935
4.1758093639530935
4.169654891788083
4.169654891788083
4.163500419623101
4.169654891788083
4.181963836118102
4.188118308283084
4.188118308283084
4.181963836118102
4.200427252613103
4.225045141273086
4.231199613438097
4.231199613438097
4.2065817247780855
4.169654891788083
4.200427252613103
4.1942727804480935
4.2065817247780855
4.1942727804480935
4.188118308283084
4.181963836118102
4.181963836118102
4.188118308283084
4.181963836118102
4.181963836118102
4.1758093639530935
4.1758093639530935
4.181963836118102
4.181963836118102
4.181963836118102
4.181963836118102
4.1758093639530935
4.1758093639530935
4.1758093639530935
4.181963836118102
4.181963836118102
4.188118308283084
4.181963836118102
4.181963836118102
4.181963836118102
4.188118308283084
4.188118308283084
4.1942727804480935
4.1942727804480935
4.188118308283084
4.1758093639530935
4.188118308283084
4.243508557768089
4.397370361893111
4.557386638183142
4.698939497978172
4.81587446911319
4.7297118588031655
4.446606139213133
4.077337809313075
3.825004450548036
3.8496223392080475
3.9296304773530633
3.9911751990030497
4.028102031993082
4.095801225808079
4.157345947458091
4.157345947458091
4.169654891788083
4.225045141273086
4.218890669108104
4.225045141273086
4.231199613438097
4.225045141273086
4.231199613438097
4.2065817247780855
4.200427252613103
4.212736196943095
4.225045141273086
4.231199613438097
4.243508557768089
4.243508557768089
4.243508557768089
4.243508557768089
4.255817502098108
4.261971974263091
4.261971974263091
4.261971974263091
4.261971974263091
4.27428091859311
4.27428091859311
4.2681264464281
4.280435390758093
4.2865898629231
4.2865898629231
4.298898807253093
4.305053279418103
4.305053279418103
4.292744335088111
4.292744335088111
4.298898807253093
4.3112077515831135
4.3112077515831135
4.3112077515831135
4.3173622237481215
4.329671168078114
4.335825640243124
4.341980112408105
4.360443528903107
4.354289056738125
4.3727524732331275
4.3727524732331275
4.385061417563119
4.385061417563119
4.397370361893111
4.397370361893111
4.397370361893111
4.391215889728128
4.397370361893111
4.397370361893111
4.385061417563119
4.3727524732331275
4.360443528903107
4.341980112408105
4.329671168078114
4.305053279418103
4.292744335088111
4.261971974263091
4.237354085603107
4.212736196943095
4.1942727804480935
4.188118308283084
4.169654891788083
4.151191475293081
4.151191475293081
4.138882530963089
4.151191475293081
4.1327280587980795
4.1327280587980795
4.1327280587980795
4.114264642303079
4.0711833371480655
4.145037003128072
4.151191475293081
4.145037003128072
4.138882530963089
4.12657358663307
4.138882530963089
4.151191475293081
4.145037003128072
4.145037003128072
4.151191475293081
4.157345947458091
4.151191475293081
4.163500419623101
4.169654891788083
4.169654891788083
4.163500419623101
4.169654891788083
4.163500419623101
4.169654891788083
4.163500419623101
4.169654891788083
4.1758093639530935
4.169654891788083
4.1758093639530935
4.169654891788083
4.1758093639530935
4.169654891788083
4.163500419623101
4.169654891788083
4.169654891788083
4.169654891788083
4.169654891788083
4.1758093639530935
4.163500419623101
4.163500419623101
4.169654891788083
4.1758093639530935
4.169654891788083
4.1758093639530935
4.163500419623101
4.1758093639530935
4.169654891788083
4.169654891788083
4.1758093639530935
4.181963836118102
4.1758093639530935
4.181963836118102
4.1758093639530935
4.181963836118102
4.181963836118102
4.181963836118102
4.1758093639530935
4.1758093639530935
4.181963836118102
4.181963836118102
4.1758093639530935
4.181963836118102
4.188118308283084
4.188118308283084
4.181963836118102
4.1942727804480935
4.2065817247780855
4.231199613438097
4.231199613438097
4.231199613438097
4.231199613438097
4.218890669108104
4.218890669108104
4.212736196943095
4.218890669108104
4.212736196943095
4.200427252613103
4.188118308283084
4.181963836118102
4.169654891788083
4.1758093639530935
4.1758093639530935
4.1758093639530935
4.1758093639530935
4.181963836118102
4.1758093639530935
4.169654891788083
4.1758093639530935
4.181963836118102
4.1758093639530935
4.169654891788083
4.1758093639530935
4.169654891788083
4.1758093639530935
4.1758093639530935
4.1758093639530935
4.1758093639530935
4.1758093639530935
4.1758093639530935
4.181963836118102
4.188118308283084
4.163500419623101
4.157345947458091
4.1758093639530935
4.3173622237481215
4.483532972203136
4.649703720658149
4.797411052618189
4.840492357773174
4.6435492484931675
4.280435390758093
3.9173215330230438
3.8065410340530352
3.886549172198051
3.9542483660130467
4.003484143333068
4.052719920653064
4.1327280587980795
4.181963836118102
4.1942727804480935
4.200427252613103
4.1942727804480935
4.200427252613103
4.2065817247780855
4.218890669108104
4.200427252613103
4.145037003128072
4.237354085603107
4.237354085603107
4.237354085603107
4.237354085603107
4.243508557768089
4.249663029933098
4.237354085603107
4.218890669108104
4.243508557768089
4.249663029933098
4.249663029933098
4.255817502098108
4.261971974263091
4.261971974263091
4.2681264464281
4.2681264464281
4.27428091859311
4.2865898629231
4.292744335088111
4.292744335088111
4.292744335088111
4.298898807253093
4.3173622237481215
4.3112077515831135
4.3173622237481215
4.3173622237481215
4.329671168078114
4.335825640243124
4.341980112408105
4.348134584573115
4.348134584573115
4.360443528903107
4.3727524732331275
4.37890694539811
4.391215889728128
4.391215889728128
4.391215889728128
4.40352483405812
4.40352483405812
4.40967930622313
4.415833778388112
4.40967930622313
4.40967930622313
4.40967930622313
4.40352483405812
4.40352483405812
4.391215889728128
4.3727524732331275
4.354289056738125
4.335825640243124
4.3173622237481215
4.292744335088111
4.27428091859311
4.249663029933098
4.231199613438097
4.225045141273086
4.200427252613103
4.1942727804480935
4.1758093639530935
4.169654891788083
4.157345947458091
4.145037003128072
4.145037003128072
4.151191475293081
4.145037003128072
4.138882530963089
4.138882530963089
4.138882530963089
4.151191475293081
4.145037003128072
4.151191475293081
4.151191475293081
4.145037003128072
4.151191475293081
4.157345947458091
4.151191475293081
4.151191475293081
4.157345947458091
4.163500419623101
4.169654891788083
4.163500419623101
4.169654891788083
4.169654891788083
4.163500419623101
4.169654891788083
4.163500419623101
4.169654891788083
4.169654891788083
4.169654891788083
4.169654891788083
4.1758093639530935
4.163500419623101
4.157345947458091
4.157345947458091
4.169654891788083
4.169654891788083
4.163500419623101
4.163500419623101
4.169654891788083
4.169654891788083
4.157345947458091
4.157345947458091
4.169654891788083
4.163500419623101
4.163500419623101
4.169654891788083
4.169654891788083
4.163500419623101
4.169654891788083
4.169654891788083
4.163500419623101
4.169654891788083
4.169654891788083
4.1758093639530935
4.169654891788083
4.163500419623101
4.108110170138069
4.151191475293081
4.188118308283084
4.188118308283084
4.169654891788083
4.095801225808079
4.169654891788083
4.181963836118102
4.157345947458091
4.163500419623101
4.169654891788083
4.181963836118102
4.1758093639530935
4.181963836118102
4.1758093639530935
4.1758093639530935
4.169654891788083
4.1758093639530935
4.181963836118102
4.1942727804480935
4.200427252613103
4.200427252613103
4.200427252613103
4.225045141273086
4.237354085603107
4.243508557768089
4.231199613438097
4.237354085603107
4.225045141273086
4.225045141273086
4.225045141273086
4.2065817247780855
4.2065817247780855
4.188118308283084
4.188118308283084
4.188118308283084
4.1942727804480935
4.188118308283084
4.181963836118102
4.188118308283084
4.188118308283084
4.188118308283084
4.181963836118102
4.181963836118102
4.181963836118102
4.181963836118102
4.188118308283084
4.188118308283084
4.188118308283084
4.1942727804480935
4.1942727804480935
4.200427252613103
