4.1327280587980795
4.1327280587980795
4.145037003128072
4.157345947458091
4.157345947458091
4.157345947458091
4.151191475293081
4.145037003128072
4.145037003128072
4.151191475293081
4.151191475293081
4.138882530963089
4.120419114468088
4.108110170138069
4.108110170138069
4.095801225808079
4.077337809313075
4.077337809313075
4.065028864983084
4.058874392818074
4.052719920653064
4.058874392818074
4.0465654484880815
4.052719920653064
4.0465654484880815
4.040410976323072
4.040410976323072
4.040410976323072
4.040410976323072
4.0465654484880815
4.040410976323072
4.040410976323072
4.0465654484880815
4.040410976323072
4.052719920653064
4.052719920653064
4.0465654484880815
4.052719920653064
4.052719920653064
4.052719920653064
4.058874392818074
4.065028864983084
4.058874392818074
4.058874392818074
4.052719920653064
4.052719920653064
4.077337809313075
4.0711833371480655
4.065028864983084
4.0711833371480655
4.0711833371480655
4.058874392818074
4.0711833371480655
4.065028864983084
4.065028864983084
4.077337809313075
4.0711833371480655
4.0711833371480655
4.065028864983084
4.0711833371480655
4.0711833371480655
4.077337809313075
4.077337809313075
4.0711833371480655
4.065028864983084
4.077337809313075
4.083492281478085
4.083492281478085
4.083492281478085
4.077337809313075
4.0711833371480655
4.077337809313075
4.077337809313075
4.077337809313075
4.083492281478085
4.065028864983084
4.0711833371480655
4.0711833371480655
4.077337809313075
4.077337809313075
4.0711833371480655
4.077337809313075
4.065028864983084
4.052719920653064
4.021947559828071
4.0711833371480655
4.077337809313075
4.083492281478085
4.077337809313075
4.083492281478085
4.0711833371480655
4.040410976323072
4.0465654484880815
4.058874392818074
4.0711833371480655
4.0711833371480655
4.065028864983084
4.0711833371480655
4.065028864983084
4.065028864983084
4.077337809313075
4.065028864983084
4.077337809313075
4.077337809313075
4.0711833371480655
4.077337809313075
4.083492281478085
4.077337809313075
4.0711833371480655
4.083492281478085
4.0711833371480655
4.077337809313075
4.077337809313075
4.0711833371480655
4.0711833371480655
4.077337809313075
4.089646753643067
4.089646753643067
4.089646753643067
4.083492281478085
4.083492281478085
4.077337809313075
4.089646753643067
4.095801225808079
4.101955697973087
4.101955697973087
4.108110170138069
4.114264642303079
4.108110170138069
4.101955697973087
4.095801225808079
4.101955697973087
4.095801225808079
4.089646753643067
4.095801225808079
4.089646753643067
4.077337809313075
4.083492281478085
4.083492281478085
4.077337809313075
4.077337809313075
4.0711833371480655
4.083492281478085
4.083492281478085
4.083492281478085
4.077337809313075
4.058874392818074
4.0711833371480655
4.089646753643067
4.083492281478085
4.083492281478085
4.083492281478085
4.077337809313075
4.0711833371480655
4.0711833371480655
4.077337809313075
4.089646753643067
4.089646753643067
4.077337809313075
4.083492281478085
4.095801225808079
4.101955697973087
4.138882530963089
4.181963836118102
4.225045141273086
4.280435390758093
4.3173622237481215
4.2865898629231
4.1942727804480935
4.095801225808079
4.040410976323072
3.9973296711680604
3.9911751990030497
4.003484143333068
4.009638615498079
4.028102031993082
4.052719920653064
4.065028864983084
4.077337809313075
4.083492281478085
4.095801225808079
4.108110170138069
4.101955697973087
4.108110170138069
4.101955697973087
4.089646753643067
4.095801225808079
4.108110170138069
4.101955697973087
4.108110170138069
4.101955697973087
4.108110170138069
4.101955697973087
4.114264642303079
4.114264642303079
4.120419114468088
4.114264642303079
4.108110170138069
4.114264642303079
4.114264642303079
4.065028864983084
4.077337809313075
4.12657358663307
4.114264642303079
4.12657358663307
4.12657358663307
4.0465654484880815
4.089646753643067
4.095801225808079
4.108110170138069
4.114264642303079
4.1327280587980795
4.12657358663307
4.1327280587980795
4.12657358663307
4.1327280587980795
4.120419114468088
4.138882530963089
4.151191475293081
4.163500419623101
4.163500419623101
4.157345947458091
4.151191475293081
4.151191475293081
4.163500419623101
4.163500419623101
4.1758093639530935
4.1758093639530935
4.1758093639530935
4.181963836118102
4.181963836118102
4.188118308283084
4.1942727804480935
4.200427252613103
4.200427252613103
4.200427252613103
4.200427252613103
4.200427252613103
4.200427252613103
4.212736196943095
4.1942727804480935
4.188118308283084
4.181963836118102
4.163500419623101
4.157345947458091
4.157345947458091
4.151191475293081
4.1327280587980795
4.120419114468088
4.114264642303079
4.108110170138069
4.101955697973087
4.114264642303079
4.101955697973087
4.089646753643067
4.083492281478085
4.089646753643067
4.083492281478085
4.089646753643067
4.083492281478085
4.077337809313075
4.083492281478085
4.083492281478085
4.089646753643067
4.083492281478085
4.077337809313075
4.089646753643067
4.089646753643067
4.095801225808079
4.083492281478085
4.089646753643067
4.089646753643067
4.095801225808079
4.101955697973087
4.101955697973087
4.095801225808079
4.089646753643067
4.101955697973087
4.095801225808079
4.089646753643067
4.095801225808079
4.108110170138069
4.114264642303079
4.101955697973087
4.101955697973087
4.108110170138069
4.120419114468088
4.108110170138069
4.114264642303079
4.114264642303079
4.108110170138069
4.108110170138069
4.108110170138069
4.108110170138069
4.101955697973087
4.101955697973087
4.108110170138069
4.108110170138069
4.101955697973087
4.101955697973087
4.108110170138069
4.12657358663307
4.120419114468088
4.12657358663307
4.12657358663307
4.12657358663307
4.114264642303079
4.114264642303079
4.114264642303079
4.108110170138069
4.114264642303079
4.120419114468088
4.120419114468088
4.120419114468088
4.108110170138069
4.120419114468088
4.12657358663307
4.120419114468088
4.108110170138069
4.120419114468088
4.114264642303079
4.120419114468088
4.120419114468088
4.12657358663307
4.12657358663307
4.12657358663307
4.114264642303079
4.114264642303079
4.0711833371480655
4.1327280587980795
4.145037003128072
4.1327280587980795
4.12657358663307
4.101955697973087
4.089646753643067
4.101955697973087
4.120419114468088
4.1327280587980795
4.120419114468088
4.1327280587980795
4.12657358663307
4.120419114468088
4.120419114468088
4.120419114468088
4.1327280587980795
4.1327280587980795
4.12657358663307
4.12657358663307
4.12657358663307
4.114264642303079
4.12657358663307
4.1327280587980795
4.1327280587980795
4.12657358663307
4.12657358663307
4.1327280587980795
4.1327280587980795
4.1327280587980795
4.138882530963089
4.138882530963089
4.145037003128072
4.1327280587980795
4.138882530963089
4.145037003128072
4.157345947458091
4.157345947458091
4.151191475293081
4.151191475293081
4.157345947458091
4.163500419623101
4.151191475293081
4.157345947458091
4.157345947458091
4.157345947458091
4.157345947458091
4.145037003128072
4.138882530963089
4.1327280587980795
4.1327280587980795
4.1327280587980795
4.138882530963089
4.145037003128072
4.145037003128072
4.1327280587980795
4.138882530963089
4.12657358663307
4.1327280587980795
4.138882530963089
4.1327280587980795
4.1327280587980795
4.12657358663307
4.12657358663307
4.1327280587980795
4.138882530963089
4.1327280587980795
4.12657358663307
4.114264642303079
4.114264642303079
4.12657358663307
4.1327280587980795
4.151191475293081
4.181963836118102
4.225045141273086
4.2865898629231
4.348134584573115
4.397370361893111
4.37890694539811
4.298898807253093
4.1758093639530935
4.089646753643067
4.034256504158063
4.021947559828071
4.034256504158063
4.034256504158063
4.065028864983084
4.114264642303079
4.138882530963089
4.145037003128072
4.1327280587980795
4.1327280587980795
4.1327280587980795
4.138882530963089
4.1327280587980795
4.1327280587980795
4.138882530963089
4.1327280587980795
4.1327280587980795
4.1327280587980795
4.138882530963089
4.145037003128072
4.145037003128072
4.145037003128072
4.145037003128072
4.151191475293081
4.145037003128072
4.138882530963089
4.157345947458091
4.169654891788083
4.163500419623101
4.163500419623101
4.157345947458091
4.157345947458091
4.157345947458091
4.163500419623101
4.1758093639530935
4.1758093639530935
4.169654891788083
4.169654891788083
4.157345947458091
4.151191475293081
4.120419114468088
4.157345947458091
4.169654891788083
4.181963836118102
4.1758093639530935
4.1758093639530935
4.181963836118102
4.1758093639530935
4.181963836118102
4.181963836118102
4.1942727804480935
4.1942727804480935
4.188118308283084
4.200427252613103
4.2065817247780855
4.2065817247780855
4.2065817247780855
4.212736196943095
4.218890669108104
4.225045141273086
4.231199613438097
4.243508557768089
4.237354085603107
4.237354085603107
4.237354085603107
4.243508557768089
4.243508557768089
4.249663029933098
4.243508557768089
4.231199613438097
4.225045141273086
4.218890669108104
4.2065817247780855
4.200427252613103
4.188118308283084
4.188118308283084
4.169654891788083
4.163500419623101
4.145037003128072
4.138882530963089
4.138882530963089
4.1327280587980795
4.1327280587980795
4.12657358663307
4.114264642303079
4.114264642303079
4.12657358663307
4.114264642303079
4.114264642303079
4.114264642303079
4.114264642303079
4.114264642303079
4.114264642303079
4.120419114468088
4.120419114468088
4.120419114468088
4.114264642303079
4.12657358663307
4.114264642303079
4.114264642303079
4.114264642303079
4.108110170138069
4.120419114468088
4.101955697973087
4.077337809313075
4.1327280587980795
4.1327280587980795
4.1327280587980795
4.1327280587980795
4.138882530963089
4.1327280587980795
4.120419114468088
4.114264642303079
4.114264642303079
4.120419114468088
4.12657358663307
4.1327280587980795
4.12657358663307
4.12657358663307
4.1327280587980795
4.120419114468088
4.120419114468088
4.12657358663307
4.120419114468088
4.12657358663307
4.138882530963089
4.1327280587980795
4.120419114468088
4.12657358663307
4.12657358663307
4.138882530963089
4.145037003128072
4.138882530963089
4.138882530963089
4.1327280587980795
4.12657358663307
4.138882530963089
4.138882530963089
4.145037003128072
4.1327280587980795
4.138882530963089
4.138882530963089
4.138882530963089
4.12657358663307
4.1327280587980795
4.1327280587980795
4.12657358663307
4.120419114468088
4.12657358663307
4.145037003128072
4.12657358663307
4.12657358663307
4.120419114468088
4.1327280587980795
4.145037003128072
4.12657358663307
4.1327280587980795
4.138882530963089
4.138882530963089
4.1327280587980795
4.138882530963089
4.12657358663307
4.083492281478085
4.138882530963089
4.1327280587980795
4.1327280587980795
4.120419114468088
4.114264642303079
4.1327280587980795
4.138882530963089
4.1327280587980795
4.12657358663307
4.12657358663307
4.120419114468088
4.12657358663307
4.12657358663307
4.12657358663307
4.138882530963089
4.12657358663307
4.12657358663307
4.12657358663307
4.1327280587980795
4.12657358663307
4.138882530963089
4.1327280587980795
4.1327280587980795
4.138882530963089
4.138882530963089
4.1327280587980795
4.138882530963089
4.1327280587980795
4.12657358663307
4.1327280587980795
4.138882530963089
4.145037003128072
4.151191475293081
4.151191475293081
4.145037003128072
4.138882530963089
4.145037003128072
4.163500419623101
4.151191475293081
4.157345947458091
4.169654891788083
4.1758093639530935
4.163500419623101
4.163500419623101
4.169654891788083
4.157345947458091
4.163500419623101
4.169654891788083
4.163500419623101
4.163500419623101
4.157345947458091
4.163500419623101
4.151191475293081
4.151191475293081
4.145037003128072
4.151191475293081
4.151191475293081
4.145037003128072
4.145037003128072
4.145037003128072
4.138882530963089
4.138882530963089
4.138882530963089
4.138882530963089
4.1327280587980795
4.1327280587980795
4.151191475293081
4.151191475293081
4.138882530963089
4.138882530963089
4.138882530963089
4.1327280587980795
4.138882530963089
4.120419114468088
4.120419114468088
4.138882530963089
4.163500419623101
4.1942727804480935
4.231199613438097
4.292744335088111
4.354289056738125
4.37890694539811
4.335825640243124
4.237354085603107
4.151191475293081
4.089646753643067
4.040410976323072
4.034256504158063
4.040410976323072
4.040410976323072
4.065028864983084
4.095801225808079
4.120419114468088
4.138882530963089
4.151191475293081
4.151191475293081
4.151191475293081
4.145037003128072
4.145037003128072
4.145037003128072
4.145037003128072
4.145037003128072
4.138882530963089
4.145037003128072
4.145037003128072
4.145037003128072
4.145037003128072
4.151191475293081
4.151191475293081
4.157345947458091
4.157345947458091
4.157345947458091
4.169654891788083
4.169654891788083
4.163500419623101
4.163500419623101
4.169654891788083
4.163500419623101
4.169654891788083
4.163500419623101
4.157345947458091
4.108110170138069
4.163500419623101
4.1758093639530935
4.169654891788083
4.1758093639530935
4.1758093639530935
4.1758093639530935
4.157345947458091
4.1327280587980795
4.151191475293081
4.1758093639530935
4.181963836118102
4.181963836118102
4.188118308283084
4.181963836118102
4.188118308283084
4.188118308283084
4.188118308283084
4.1942727804480935
4.1942727804480935
4.1942727804480935
4.2065817247780855
4.2065817247780855
4.218890669108104
4.218890669108104
4.218890669108104
4.218890669108104
4.225045141273086
4.225045141273086
4.231199613438097
4.231199613438097
4.218890669108104
4.218890669108104
4.225045141273086
4.225045141273086
4.225045141273086
4.2065817247780855
4.1942727804480935
4.169654891788083
4.169654891788083
4.169654891788083
4.145037003128072
4.145037003128072
4.1327280587980795
4.12657358663307
4.120419114468088
4.145037003128072
4.114264642303079
4.089646753643067
4.095801225808079
4.089646753643067
4.101955697973087
4.114264642303079
4.108110170138069
4.095801225808079
4.095801225808079
4.095801225808079
4.089646753643067
4.089646753643067
4.101955697973087
4.114264642303079
4.120419114468088
4.101955697973087
4.101955697973087
4.108110170138069
4.114264642303079
4.108110170138069
4.114264642303079
4.108110170138069
4.114264642303079
4.101955697973087
4.108110170138069
4.108110170138069
4.101955697973087
4.114264642303079
4.120419114468088
4.120419114468088
4.114264642303079
4.114264642303079
4.120419114468088
4.114264642303079
4.120419114468088
4.114264642303079
4.114264642303079
4.108110170138069
4.114264642303079
4.114264642303079
4.108110170138069
4.101955697973087
4.101955697973087
4.114264642303079
4.114264642303079
4.114264642303079
4.108110170138069
4.114264642303079
4.114264642303079
4.101955697973087
4.101955697973087
4.108110170138069
4.095801225808079
4.108110170138069
4.114264642303079
4.108110170138069
4.101955697973087
4.108110170138069
4.108110170138069
4.108110170138069
4.114264642303079
4.108110170138069
4.101955697973087
4.108110170138069
4.101955697973087
4.108110170138069
4.108110170138069
4.095801225808079
4.095801225808079
4.114264642303079
4.114264642303079
4.108110170138069
4.114264642303079
4.114264642303079
4.095801225808079
4.0465654484880815
4.108110170138069
4.120419114468088
4.101955697973087
4.108110170138069
4.114264642303079
4.114264642303079
4.114264642303079
4.114264642303079
4.114264642303079
4.101955697973087
4.058874392818074
4.114264642303079
4.1327280587980795
4.1327280587980795
4.120419114468088
4.120419114468088
4.120419114468088
4.108110170138069
4.083492281478085
4.089646753643067
4.101955697973087
4.095801225808079
4.095801225808079
4.101955697973087
4.114264642303079
4.120419114468088
4.12657358663307
4.120419114468088
4.114264642303079
4.12657358663307
4.12657358663307
4.108110170138069
4.108110170138069
4.114264642303079
4.120419114468088
4.12657358663307
4.12657358663307
4.120419114468088
4.1327280587980795
4.12657358663307
4.120419114468088
4.1327280587980795
4.1327280587980795
4.1327280587980795
4.1327280587980795
4.138882530963089
4.145037003128072
4.145037003128072
4.145037003128072
4.145037003128072
4.145037003128072
4.138882530963089
4.138882530963089
4.151191475293081
4.145037003128072
4.145037003128072
4.1327280587980795
4.1327280587980795
4.1327280587980795
4.114264642303079
4.120419114468088
4.12657358663307
4.1327280587980795
4.12657358663307
4.1327280587980795
4.1327280587980795
4.12657358663307
4.1327280587980795
4.1327280587980795
4.138882530963089
4.1327280587980795
4.12657358663307
4.12657358663307
4.1327280587980795
4.1327280587980795
4.138882530963089
4.138882530963089
4.1327280587980795
4.120419114468088
4.1327280587980795
4.138882530963089
4.157345947458091
4.1942727804480935
4.249663029933098
4.323516695913104
4.37890694539811
4.37890694539811
4.335825640243124
4.225045141273086
4.1327280587980795
4.077337809313075
4.040410976323072
4.040410976323072
4.0465654484880815
4.058874392818074
4.089646753643067
4.114264642303079
4.138882530963089
4.145037003128072
4.145037003128072
4.138882530963089
4.138882530963089
4.145037003128072
4.157345947458091
4.157345947458091
4.163500419623101
4.151191475293081
4.145037003128072
4.138882530963089
4.157345947458091
4.163500419623101
4.157345947458091
4.157345947458091
4.157345947458091
4.151191475293081
4.145037003128072
4.157345947458091
4.157345947458091
4.157345947458091
4.157345947458091
4.145037003128072
4.101955697973087
4.169654891788083
4.181963836118102
4.1758093639530935
4.1758093639530935
4.181963836118102
4.163500419623101
4.157345947458091
4.1758093639530935
4.1758093639530935
4.181963836118102
4.1942727804480935
4.1942727804480935
4.188118308283084
4.181963836118102
4.188118308283084
4.1942727804480935
4.1942727804480935
4.1942727804480935
4.2065817247780855
4.200427252613103
4.1942727804480935
4.1942727804480935
4.200427252613103
4.212736196943095
4.212736196943095
4.225045141273086
4.237354085603107
4.231199613438097
4.243508557768089
4.243508557768089
4.243508557768089
4.243508557768089
4.237354085603107
4.2681264464281
4.2681264464281
4.255817502098108
4.243508557768089
4.237354085603107
4.231199613438097
4.225045141273086
4.225045141273086
4.225045141273086
4.1942727804480935
4.181963836118102
4.1758093639530935
4.1758093639530935
4.169654891788083
4.151191475293081
4.138882530963089
4.12657358663307
4.120419114468088
4.12657358663307
4.108110170138069
4.114264642303079
4.114264642303079
4.108110170138069
4.108110170138069
4.120419114468088
4.114264642303079
4.108110170138069
4.120419114468088
4.114264642303079
4.108110170138069
4.108110170138069
4.120419114468088
4.120419114468088
4.120419114468088
4.114264642303079
4.108110170138069
4.114264642303079
4.120419114468088
4.1327280587980795
4.1327280587980795
4.12657358663307
4.1327280587980795
4.163500419623101
4.237354085603107
4.538923221688139
4.877419190763177
4.963581801073202
4.982045217568204
4.975890745403193
4.982045217568204
4.963581801073202
4.957427328908192
4.975890745403193
4.969736273238212
4.951272856743211
4.951272856743211
4.9266549680832
4.9266549680832
4.9266549680832
4.91434602375318
4.902037079423188
4.895882607258178
4.883573662928187
4.871264718598195
4.858955774268176
4.8528013021031935
4.8466468299381855
4.8466468299381855
4.8466468299381855
4.834337885608192
4.809719996948181
4.803565524783171
4.803565524783171
4.7912565804531795
4.778947636123188
4.766638691793168
4.766638691793168
4.760484219628157
4.754329747463175
4.735866330968175
4.7297118588031655
4.7297118588031655
4.723557386638154
4.711248442308165
4.705093970143154
4.698939497978172
4.686630553648152
4.67432160931816
4.631240304163148
4.662012664988168
4.649703720658149
4.637394776328158
4.6435492484931675
4.6435492484931675
4.631240304163148
4.625085831998166
4.612776887668146
4.6004679433381535
4.5943134711731455
4.6004679433381535
4.588158999008135
4.588158999008135
4.575850054678144
4.563541110348153
4.563541110348153
4.557386638183142
4.569695582513134
4.551232166018132
4.54507769385315
4.538923221688139
4.5327687495231315
4.5327687495231315
4.5327687495231315
4.514305333028129
4.514305333028129
4.520459805193139
4.514305333028129
4.514305333028129
4.508150860863147
4.495841916533129
4.495841916533129
4.477378500038126
4.434297194883113
4.341980112408105
4.280435390758093
4.237354085603107
4.200427252613103
4.1758093639530935
4.145037003128072
4.114264642303079
4.108110170138069
4.101955697973087
4.089646753643067
4.0711833371480655
4.058874392818074
4.040410976323072
4.015793087663061
3.9973296711680604
4.009638615498079
4.003484143333068
4.009638615498079
4.003484143333068
3.9911751990030497
3.9911751990030497
3.9850207268380675
3.9665573103430645
3.9727117825080467
3.9604028381780574
3.9665573103430645
3.9604028381780574
3.9542483660130467
3.9542483660130467
3.948093893848065
3.9542483660130467
3.9419394216830552
3.948093893848065
3.948093893848065
3.948093893848065
3.948093893848065
3.9542483660130467
3.9419394216830552
3.948093893848065
3.9419394216830552
3.9419394216830552
3.9296304773530633
3.9357849495180455
3.9296304773530633
3.9296304773530633
3.8680857557030492
3.8988581165280416
3.9173215330230438
3.9173215330230438
3.9173215330230438
3.905012588693053
3.8988581165280416
3.8988581165280416
3.886549172198051
3.8927036443630603
3.8988581165280416
3.8988581165280416
3.905012588693053
3.905012588693053
3.8988581165280416
3.8988581165280416
3.8988581165280416
3.9111670608580615
3.9111670608580615
3.9111670608580615
3.905012588693053
3.8988581165280416
3.905012588693053
3.8988581165280416
3.8988581165280416
3.9234760051880535
3.9542483660130467
3.9973296711680604
4.0465654484880815
4.120419114468088
4.157345947458091
4.138882530963089
4.065028864983084
3.9604028381780574
3.886549172198051
3.825004450548036
3.8065410340530352
3.825004450548036
3.8496223392080475
3.8680857557030492
3.8927036443630603
3.9111670608580615
3.886549172198051
3.9357849495180455
3.9419394216830552
3.9542483660130467
3.948093893848065
3.9173215330230438
3.9234760051880535
3.9357849495180455
3.948093893848065
3.9542483660130467
3.948093893848065
3.948093893848065
3.948093893848065
3.948093893848065
3.948093893848065
3.9665573103430645
3.9727117825080467
3.9788662546730578
3.9727117825080467
3.9788662546730578
3.9727117825080467
3.9788662546730578
3.9788662546730578
3.9850207268380675
3.9850207268380675
3.9973296711680604
3.9911751990030497
3.9850207268380675
3.9911751990030497
3.9911751990030497
4.003484143333068
4.003484143333068
4.009638615498079
4.003484143333068
4.003484143333068
4.003484143333068
4.003484143333068
4.015793087663061
4.009638615498079
4.015793087663061
4.015793087663061
4.015793087663061
4.021947559828071
4.034256504158063
4.021947559828071
4.034256504158063
4.040410976323072
4.028102031993082
4.028102031993082
4.0465654484880815
4.065028864983084
4.058874392818074
4.058874392818074
4.058874392818074
4.0711833371480655
4.077337809313075
4.077337809313075
4.083492281478085
4.089646753643067
4.083492281478085
4.083492281478085
4.077337809313075
4.0711833371480655
4.0711833371480655
4.077337809313075
4.0711833371480655
4.058874392818074
4.034256504158063
4.028102031993082
4.034256504158063
4.021947559828071
4.009638615498079
4.009638615498079
3.9973296711680604
3.9850207268380675
3.9911751990030497
3.9911751990030497
3.9850207268380675
3.9727117825080467
3.9850207268380675
3.9911751990030497
3.9850207268380675
3.9788662546730578
3.9727117825080467
3.9788662546730578
3.9911751990030497
3.9788662546730578
3.9850207268380675
3.9850207268380675
3.9911751990030497
3.9911751990030497
3.9788662546730578
3.9911751990030497
3.9911751990030497
3.9973296711680604
4.009638615498079
4.009638615498079
4.009638615498079
3.9973296711680604
3.9973296711680604
4.009638615498079
4.003484143333068
3.9973296711680604
4.015793087663061
4.015793087663061
4.021947559828071
4.015793087663061
4.015793087663061
4.015793087663061
4.015793087663061
4.015793087663061
4.015793087663061
4.021947559828071
4.021947559828071
4.028102031993082
4.028102031993082
4.028102031993082
4.028102031993082
4.034256504158063
4.040410976323072
4.040410976323072
4.021947559828071
3.9665573103430645
4.021947559828071
4.034256504158063
4.034256504158063
4.040410976323072
4.0465654484880815
4.034256504158063
4.034256504158063
4.028102031993082
4.040410976323072
4.052719920653064
4.040410976323072
4.0465654484880815
4.040410976323072
4.040410976323072
4.0465654484880815
4.052719920653064
4.052719920653064
4.065028864983084
4.058874392818074
4.065028864983084
4.052719920653064
4.052719920653064
4.058874392818074
4.058874392818074
4.058874392818074
4.065028864983084
4.0711833371480655
4.077337809313075
4.0711833371480655
4.0711833371480655
4.058874392818074
4.065028864983084
4.0711833371480655
4.0711833371480655
4.065028864983084
4.058874392818074
4.0711833371480655
4.077337809313075
4.077337809313075
4.058874392818074
4.0711833371480655
4.089646753643067
4.083492281478085
4.083492281478085
4.083492281478085
4.077337809313075
4.0711833371480655
4.077337809313075
4.083492281478085
4.077337809313075
4.077337809313075
4.089646753643067
4.083492281478085
4.089646753643067
4.077337809313075
4.089646753643067
4.089646753643067
4.077337809313075
4.089646753643067
4.089646753643067
4.083492281478085
4.083492281478085
4.077337809313075
4.089646753643067
4.089646753643067
4.089646753643067
4.083492281478085
4.083492281478085
4.083492281478085
4.089646753643067
4.083492281478085
4.095801225808079
4.101955697973087
4.095801225808079
4.095801225808079
4.095801225808079
4.089646753643067
4.089646753643067
4.101955697973087
4.108110170138069
4.108110170138069
4.095801225808079
4.095801225808079
4.095801225808079
4.095801225808079
4.108110170138069
4.120419114468088
4.12657358663307
4.120419114468088
4.120419114468088
4.114264642303079
4.114264642303079
4.114264642303079
4.101955697973087
4.108110170138069
4.101955697973087
4.101955697973087
4.101955697973087
4.089646753643067
4.083492281478085
4.083492281478085
4.083492281478085
4.083492281478085
4.089646753643067
4.083492281478085
4.083492281478085
4.089646753643067
4.083492281478085
4.083492281478085
4.077337809313075
4.089646753643067
4.089646753643067
4.095801225808079
4.095801225808079
4.095801225808079
4.089646753643067
4.089646753643067
4.089646753643067
4.089646753643067
4.083492281478085
4.065028864983084
4.034256504158063
4.114264642303079
4.145037003128072
4.181963836118102
4.2065817247780855
4.261971974263091
4.298898807253093
4.2865898629231
4.200427252613103
4.114264642303079
4.058874392818074
4.009638615498079
3.9911751990030497
3.9911751990030497
3.9911751990030497
4.015793087663061
4.040410976323072
4.077337809313075
4.101955697973087
4.101955697973087
4.095801225808079
4.095801225808079
4.101955697973087
4.101955697973087
4.108110170138069
4.101955697973087
4.101955697973087
4.065028864983084
4.058874392818074
4.108110170138069
4.114264642303079
4.114264642303079
4.114264642303079
4.120419114468088
4.114264642303079
4.089646753643067
4.083492281478085
4.101955697973087
4.114264642303079
4.120419114468088
4.114264642303079
4.120419114468088
4.120419114468088
4.114264642303079
4.120419114468088
4.1327280587980795
4.1327280587980795
4.12657358663307
4.120419114468088
4.120419114468088
4.12657358663307
4.1327280587980795
4.12657358663307
4.1327280587980795
4.138882530963089
4.1327280587980795
4.138882530963089
4.138882530963089
4.145037003128072
4.145037003128072
4.138882530963089
4.138882530963089
4.145037003128072
4.151191475293081
4.151191475293081
4.157345947458091
4.145037003128072
4.169654891788083
4.181963836118102
4.188118308283084
4.188118308283084
4.181963836118102
4.188118308283084
4.1942727804480935
4.188118308283084
4.188118308283084
4.2065817247780855
4.2065817247780855
4.212736196943095
4.218890669108104
4.212736196943095
4.2065817247780855
4.188118308283084
4.181963836118102
4.1758093639530935
4.163500419623101
4.157345947458091
4.1327280587980795
4.12657358663307
4.120419114468088
4.108110170138069
4.114264642303079
4.089646753643067
4.089646753643067
4.095801225808079
4.089646753643067
4.089646753643067
4.089646753643067
4.083492281478085
4.089646753643067
4.095801225808079
4.089646753643067
4.089646753643067
4.089646753643067
4.083492281478085
4.089646753643067
4.083492281478085
4.089646753643067
4.083492281478085
4.083492281478085
4.083492281478085
4.083492281478085
4.095801225808079
4.089646753643067
4.083492281478085
4.089646753643067
4.101955697973087
4.095801225808079
4.101955697973087
4.095801225808079
4.101955697973087
4.083492281478085
4.058874392818074
4.108110170138069
4.101955697973087
4.101955697973087
4.101955697973087
4.101955697973087
4.095801225808079
4.083492281478085
4.083492281478085
4.101955697973087
4.108110170138069
4.095801225808079
4.108110170138069
4.114264642303079
4.101955697973087
4.095801225808079
4.101955697973087
4.108110170138069
4.108110170138069
4.108110170138069
4.101955697973087
4.101955697973087
4.101955697973087
4.095801225808079
4.101955697973087
4.108110170138069
4.120419114468088
4.108110170138069
4.108110170138069
4.101955697973087
4.101955697973087
4.095801225808079
4.101955697973087
4.108110170138069
4.101955697973087
4.101955697973087
4.108110170138069
4.101955697973087
4.108110170138069
4.101955697973087
4.101955697973087
4.108110170138069
4.108110170138069
4.101955697973087
4.101955697973087
4.108110170138069
4.101955697973087
4.101955697973087
4.108110170138069
4.108110170138069
4.108110170138069
4.108110170138069
4.095801225808079
4.108110170138069
4.108110170138069
4.114264642303079
4.114264642303079
4.114264642303079
4.108110170138069
4.114264642303079
4.114264642303079
4.114264642303079
4.108110170138069
4.108110170138069
4.120419114468088
4.114264642303079
4.108110170138069
4.114264642303079
4.114264642303079
4.114264642303079
4.108110170138069
4.114264642303079
4.12657358663307
4.120419114468088
4.120419114468088
4.12657358663307
4.12657358663307
4.120419114468088
4.114264642303079
4.12657358663307
4.12657358663307
4.12657358663307
4.120419114468088
4.120419114468088
4.114264642303079
4.114264642303079
4.114264642303079
4.12657358663307
4.120419114468088
4.1327280587980795
4.12657358663307
4.1327280587980795
4.145037003128072
4.145037003128072
4.138882530963089
4.145037003128072
4.145037003128072
4.138882530963089
4.151191475293081
4.145037003128072
4.157345947458091
4.163500419623101
4.157345947458091
4.157345947458091
4.157345947458091
4.151191475293081
4.145037003128072
4.145037003128072
4.145037003128072
4.138882530963089
4.145037003128072
4.1327280587980795
4.138882530963089
4.1327280587980795
4.1327280587980795
4.1327280587980795
4.1327280587980795
4.1327280587980795
4.138882530963089
4.138882530963089
4.138882530963089
4.120419114468088
4.101955697973087
4.151191475293081
4.145037003128072
4.120419114468088
4.1327280587980795
4.138882530963089
4.138882530963089
4.138882530963089
4.138882530963089
4.145037003128072
4.1327280587980795
4.1327280587980795
4.151191475293081
4.157345947458091
4.188118308283084
4.225045141273086
4.280435390758093
4.341980112408105
4.3727524732331275
4.354289056738125
4.292744335088111
4.188118308283084
4.108110170138069
4.0711833371480655
4.0465654484880815
4.058874392818074
4.065028864983084
4.089646753643067
4.114264642303079
4.145037003128072
4.145037003128072
4.145037003128072
4.151191475293081
4.157345947458091
4.145037003128072
4.145037003128072
4.151191475293081
4.157345947458091
4.151191475293081
4.151191475293081
4.151191475293081
4.157345947458091
4.157345947458091
4.157345947458091
4.157345947458091
4.157345947458091
4.163500419623101
4.169654891788083
4.163500419623101
4.157345947458091
4.157345947458091
4.1758093639530935
4.1758093639530935
4.1758093639530935
4.1758093639530935
4.1758093639530935
4.1758093639530935
4.1758093639530935
4.1758093639530935
4.181963836118102
4.181963836118102
4.188118308283084
4.181963836118102
4.181963836118102
4.188118308283084
4.1942727804480935
4.188118308283084
4.188118308283084
4.188118308283084
4.1942727804480935
4.200427252613103
4.2065817247780855
4.2065817247780855
4.200427252613103
4.2065817247780855
4.218890669108104
4.218890669108104
4.218890669108104
4.225045141273086
4.237354085603107
4.237354085603107
4.225045141273086
4.237354085603107
4.243508557768089
4.249663029933098
4.249663029933098
4.249663029933098
4.249663029933098
4.249663029933098
4.255817502098108
4.255817502098108
4.249663029933098
4.237354085603107
4.237354085603107
4.243508557768089
4.237354085603107
4.2065817247780855
4.157345947458091
4.212736196943095
4.2065817247780855
4.1942727804480935
4.181963836118102
4.169654891788083
4.169654891788083
4.145037003128072
4.12657358663307
4.1327280587980795
4.1327280587980795
4.12657358663307
4.120419114468088
4.120419114468088
4.12657358663307
4.114264642303079
4.114264642303079
4.114264642303079
4.114264642303079
4.12657358663307
4.12657358663307
4.120419114468088
4.114264642303079
4.114264642303079
4.114264642303079
4.065028864983084
4.1327280587980795
4.1327280587980795
4.1327280587980795
4.120419114468088
4.120419114468088
4.089646753643067
4.095801225808079
4.101955697973087
4.108110170138069
4.114264642303079
4.120419114468088
4.120419114468088
4.12657358663307
4.114264642303079
4.120419114468088
4.12657358663307
4.120419114468088
4.12657358663307
4.12657358663307
4.12657358663307
4.12657358663307
4.12657358663307
4.12657358663307
4.120419114468088
4.1327280587980795
4.1327280587980795
4.12657358663307
4.12657358663307
4.12657358663307
4.120419114468088
4.120419114468088
4.114264642303079
4.12657358663307
4.145037003128072
4.145037003128072
4.138882530963089
4.1327280587980795
4.138882530963089
4.138882530963089
4.145037003128072
4.145037003128072
4.145037003128072
4.138882530963089
4.138882530963089
4.138882530963089
4.151191475293081
4.138882530963089
4.138882530963089
4.138882530963089
4.145037003128072
4.145037003128072
4.145037003128072
4.151191475293081
4.145037003128072
4.138882530963089
4.151191475293081
4.151191475293081
4.151191475293081
4.151191475293081
4.151191475293081
4.151191475293081
4.145037003128072
4.145037003128072
4.157345947458091
4.151191475293081
4.151191475293081
4.157345947458091
4.157345947458091
4.163500419623101
4.163500419623101
4.157345947458091
4.145037003128072
4.151191475293081
4.157345947458091
4.151191475293081
4.151191475293081
4.145037003128072
4.145037003128072
4.151191475293081
4.145037003128072
4.151191475293081
4.151191475293081
4.145037003128072
4.151191475293081
4.145037003128072
4.145037003128072
4.145037003128072
4.138882530963089
4.151191475293081
4.151191475293081
4.145037003128072
4.138882530963089
4.145037003128072
4.151191475293081
4.145037003128072
4.138882530963089
4.151191475293081
4.151191475293081
4.151191475293081
4.151191475293081
4.151191475293081
4.157345947458091
4.157345947458091
4.151191475293081
4.157345947458091
4.163500419623101
4.169654891788083
4.163500419623101
4.163500419623101
4.169654891788083
4.163500419623101
4.163500419623101
4.163500419623101
4.157345947458091
4.151191475293081
4.151191475293081
4.145037003128072
4.138882530963089
4.151191475293081
4.138882530963089
4.12657358663307
4.095801225808079
4.1327280587980795
4.114264642303079
4.12657358663307
4.1327280587980795
4.1327280587980795
4.138882530963089
4.138882530963089
4.145037003128072
4.145037003128072
4.138882530963089
4.145037003128072
4.138882530963089
4.151191475293081
4.151191475293081
4.157345947458091
4.151191475293081
4.138882530963089
4.145037003128072
4.157345947458091
4.188118308283084
4.2065817247780855
4.255817502098108
4.3173622237481215
4.366598001068117
4.37890694539811
4.329671168078114
4.243508557768089
4.145037003128072
4.0711833371480655
4.034256504158063
4.040410976323072
4.0465654484880815
4.065028864983084
4.077337809313075
4.108110170138069
4.145037003128072
4.151191475293081
4.151191475293081
4.157345947458091
4.157345947458091
4.157345947458091
4.157345947458091
4.157345947458091
4.157345947458091
4.163500419623101
4.163500419623101
4.163500419623101
4.163500419623101
4.163500419623101
4.163500419623101
4.169654891788083
4.163500419623101
4.163500419623101
4.163500419623101
4.163500419623101
4.163500419623101
4.163500419623101
4.169654891788083
4.163500419623101
4.169654891788083
4.163500419623101
4.169654891788083
4.1758093639530935
4.1758093639530935
4.188118308283084
4.1758093639530935
4.181963836118102
4.188118308283084
4.181963836118102
4.181963836118102
4.181963836118102
4.188118308283084
4.1942727804480935
4.200427252613103
4.1942727804480935
4.188118308283084
4.1942727804480935
4.1942727804480935
4.200427252613103
4.2065817247780855
4.2065817247780855
4.2065817247780855
4.2065817247780855
4.218890669108104
4.218890669108104
4.225045141273086
4.237354085603107
4.231199613438097
4.237354085603107
4.243508557768089
4.249663029933098
4.255817502098108
4.261971974263091
4.261971974263091
4.261971974263091
4.261971974263091
4.2681264464281
4.261971974263091
4.255817502098108
4.243508557768089
4.243508557768089
4.231199613438097
4.225045141273086
4.212736196943095
4.200427252613103
4.188118308283084
4.181963836118102
4.163500419623101
4.163500419623101
4.157345947458091
4.151191475293081
4.151191475293081
4.145037003128072
4.145037003128072
4.145037003128072
4.138882530963089
4.138882530963089
4.1327280587980795
4.1327280587980795
4.145037003128072
4.1327280587980795
4.089646753643067
4.151191475293081
4.151191475293081
4.151191475293081
4.138882530963089
4.12657358663307
4.138882530963089
4.1327280587980795
4.1327280587980795
4.138882530963089
4.145037003128072
4.151191475293081
4.138882530963089
4.145037003128072
4.151191475293081
4.145037003128072
4.151191475293081
4.157345947458091
4.157345947458091
4.157345947458091
4.145037003128072
4.145037003128072
4.151191475293081
4.157345947458091
4.157345947458091
4.163500419623101
4.157345947458091
4.157345947458091
4.151191475293081
4.157345947458091
4.157345947458091
4.163500419623101
4.163500419623101
4.163500419623101
4.163500419623101
4.157345947458091
4.145037003128072
4.151191475293081
4.163500419623101
4.157345947458091
4.157345947458091
4.157345947458091
4.157345947458091
4.157345947458091
4.089646753643067
4.151191475293081
4.1758093639530935
4.163500419623101
4.169654891788083
4.169654891788083
4.163500419623101
4.157345947458091
4.138882530963089
4.145037003128072
4.157345947458091
4.157345947458091
4.157345947458091
4.157345947458091
4.163500419623101
4.163500419623101
4.157345947458091
4.163500419623101
4.163500419623101
4.163500419623101
4.163500419623101
4.163500419623101
4.163500419623101
4.163500419623101
4.157345947458091
4.169654891788083
4.169654891788083
4.169654891788083
4.163500419623101
4.157345947458091
4.163500419623101
4.169654891788083
4.169654891788083
4.163500419623101
4.169654891788083
4.169654891788083
4.169654891788083
4.169654891788083
4.1758093639530935
4.169654891788083
4.1758093639530935
4.181963836118102
4.169654891788083
4.1758093639530935
4.181963836118102
4.181963836118102
4.1758093639530935
4.169654891788083
4.181963836118102
4.188118308283084
4.200427252613103
4.200427252613103
4.1942727804480935
4.1942727804480935
4.188118308283084
4.181963836118102
4.181963836118102
4.181963836118102
4.181963836118102
4.1758093639530935
4.1758093639530935
4.163500419623101
4.157345947458091
4.169654891788083
4.163500419623101
4.163500419623101
4.163500419623101
4.169654891788083
4.163500419623101
4.169654891788083
4.157345947458091
4.169654891788083
4.163500419623101
4.163500419623101
4.163500419623101
4.169654891788083
4.169654891788083
4.145037003128072
4.101955697973087
4.163500419623101
4.169654891788083
4.169654891788083
4.163500419623101
4.157345947458091
4.1758093639530935
4.1942727804480935
4.188118308283084
4.237354085603107
4.305053279418103
4.348134584573115
4.360443528903107
4.3173622237481215
4.218890669108104
4.138882530963089
4.083492281478085
4.052719920653064
4.052719920653064
4.058874392818074
4.0711833371480655
4.089646753643067
4.12657358663307
4.138882530963089
4.157345947458091
4.169654891788083
4.157345947458091
4.163500419623101
4.151191475293081
4.157345947458091
4.163500419623101
4.169654891788083
4.157345947458091
4.163500419623101
4.169654891788083
4.1758093639530935
4.1758093639530935
4.181963836118102
4.181963836118102
4.181963836118102
4.181963836118102
4.181963836118102
4.181963836118102
4.1758093639530935
4.1758093639530935
4.1758093639530935
4.188118308283084
4.181963836118102
4.181963836118102
4.188118308283084
4.188118308283084
4.188118308283084
4.181963836118102
4.1758093639530935
4.181963836118102
4.2065817247780855
4.212736196943095
4.200427252613103
4.200427252613103
4.200427252613103
4.200427252613103
4.200427252613103
4.2065817247780855
4.200427252613103
4.212736196943095
4.212736196943095
4.212736196943095
4.225045141273086
4.225045141273086
4.225045141273086
4.218890669108104
4.237354085603107
4.237354085603107
4.237354085603107
4.243508557768089
4.243508557768089
4.255817502098108
4.255817502098108
4.249663029933098
4.249663029933098
4.2681264464281
4.27428091859311
4.27428091859311
4.27428091859311
4.2681264464281
4.255817502098108
4.237354085603107
4.225045141273086
4.225045141273086
4.231199613438097
4.225045141273086
4.212736196943095
4.2065817247780855
4.188118308283084
4.169654891788083
4.1758093639530935
4.169654891788083
4.163500419623101
4.163500419623101
4.157345947458091
4.151191475293081
4.138882530963089
4.138882530963089
4.145037003128072
4.151191475293081
4.151191475293081
4.145037003128072
4.138882530963089
4.145037003128072
4.138882530963089
4.145037003128072
4.145037003128072
4.145037003128072
4.145037003128072
4.138882530963089
4.138882530963089
4.138882530963089
4.145037003128072
4.151191475293081
4.151191475293081
4.151191475293081
4.138882530963089
4.108110170138069
4.151191475293081
4.163500419623101
4.163500419623101
4.138882530963089
4.145037003128072
4.145037003128072
4.151191475293081
4.151191475293081
4.157345947458091
4.157345947458091
4.145037003128072
4.151191475293081
4.151191475293081
4.151191475293081
4.157345947458091
4.169654891788083
4.163500419623101
4.163500419623101
4.151191475293081
4.157345947458091
4.157345947458091
4.145037003128072
4.163500419623101
4.163500419623101
4.157345947458091
4.157345947458091
4.157345947458091
4.157345947458091
4.157345947458091
4.157345947458091
4.157345947458091
4.151191475293081
4.157345947458091
4.163500419623101
4.151191475293081
4.157345947458091
4.151191475293081
4.151191475293081
4.151191475293081
4.163500419623101
4.163500419623101
4.163500419623101
4.157345947458091
4.157345947458091
4.163500419623101
4.157345947458091
4.163500419623101
4.163500419623101
4.157345947458091
4.157345947458091
4.157345947458091
4.163500419623101
4.163500419623101
4.163500419623101
4.169654891788083
4.163500419623101
4.163500419623101
4.157345947458091
4.163500419623101
4.169654891788083
4.169654891788083
4.169654891788083
4.169654891788083
4.181963836118102
4.169654891788083
4.163500419623101
4.163500419623101
4.169654891788083
4.169654891788083
4.169654891788083
4.1758093639530935
4.163500419623101
4.157345947458091
4.151191475293081
4.163500419623101
4.163500419623101
4.169654891788083
4.1758093639530935
4.169654891788083
4.169654891788083
4.169654891788083
4.163500419623101
4.169654891788083
4.1758093639530935
4.188118308283084
4.1942727804480935
4.200427252613103
4.188118308283084
4.188118308283084
4.169654891788083
4.157345947458091
4.169654891788083
4.188118308283084
4.1758093639530935
4.1758093639530935
4.169654891788083
4.163500419623101
4.163500419623101
4.157345947458091
4.151191475293081
4.157345947458091
4.151191475293081
4.157345947458091
4.163500419623101
4.151191475293081
4.157345947458091
4.157345947458091
4.145037003128072
4.151191475293081
4.151191475293081
4.145037003128072
4.145037003128072
4.095801225808079
4.138882530963089
4.1758093639530935
4.163500419623101
4.151191475293081
4.145037003128072
4.163500419623101
4.1758093639530935
4.157345947458091
4.163500419623101
4.280435390758093
4.348134584573115
4.3727524732331275
4.354289056738125
4.27428091859311
4.157345947458091
4.065028864983084
4.040410976323072
4.028102031993082
4.034256504158063
4.0711833371480655
4.108110170138069
4.1327280587980795
4.151191475293081
4.151191475293081
4.151191475293081
4.151191475293081
4.163500419623101
4.157345947458091
4.151191475293081
4.157345947458091
4.157345947458091
4.151191475293081
4.157345947458091
4.157345947458091
4.157345947458091
4.163500419623101
4.163500419623101
4.163500419623101
4.157345947458091
4.157345947458091
4.163500419623101
4.157345947458091
4.163500419623101
4.163500419623101
4.163500419623101
4.169654891788083
4.157345947458091
4.163500419623101
4.169654891788083
4.1758093639530935
4.1758093639530935
4.1758093639530935
4.1758093639530935
4.1758093639530935
4.1758093639530935
4.1758093639530935
4.169654891788083
4.169654891788083
4.1758093639530935
4.1758093639530935
4.188118308283084
4.181963836118102
4.1758093639530935
4.1758093639530935
4.181963836118102
4.188118308283084
4.188118308283084
4.1758093639530935
4.1758093639530935
4.1758093639530935
4.1942727804480935
4.200427252613103
4.2065817247780855
4.2065817247780855
4.2065817247780855
4.218890669108104
4.218890669108104
4.2065817247780855
4.212736196943095
4.212736196943095
4.218890669108104
4.218890669108104
4.218890669108104
4.225045141273086
4.225045141273086
4.218890669108104
4.2065817247780855
4.2065817247780855
4.1942727804480935
4.188118308283084
4.169654891788083
4.169654891788083
4.157345947458091
4.145037003128072
4.138882530963089
4.157345947458091
4.145037003128072
4.1327280587980795
4.1327280587980795
4.120419114468088
4.114264642303079
4.108110170138069
4.108110170138069
4.108110170138069
4.114264642303079
4.108110170138069
4.114264642303079
4.108110170138069
4.095801225808079
4.089646753643067
4.095801225808079
4.101955697973087
4.108110170138069
4.114264642303079
4.114264642303079
4.108110170138069
4.101955697973087
4.101955697973087
4.114264642303079
4.108110170138069
4.108110170138069
4.114264642303079
4.120419114468088
4.120419114468088
4.114264642303079
4.120419114468088
4.120419114468088
4.108110170138069
4.120419114468088
4.108110170138069
4.058874392818074
4.120419114468088
4.108110170138069
4.095801225808079
4.108110170138069
4.114264642303079
4.120419114468088
4.12657358663307
4.12657358663307
4.114264642303079
4.114264642303079
4.120419114468088
4.114264642303079
4.120419114468088
4.120419114468088
4.120419114468088
4.120419114468088
4.120419114468088
4.120419114468088
4.120419114468088
4.12657358663307
4.12657358663307
4.12657358663307
4.1327280587980795
4.120419114468088
4.120419114468088
4.114264642303079
4.120419114468088
4.120419114468088
4.114264642303079
4.114264642303079
4.12657358663307
4.120419114468088
4.108110170138069
4.101955697973087
4.120419114468088
4.108110170138069
4.114264642303079
4.108110170138069
4.12657358663307
4.12657358663307
4.114264642303079
4.114264642303079
4.108110170138069
4.114264642303079
4.120419114468088
4.114264642303079
4.114264642303079
4.108110170138069
4.108110170138069
4.120419114468088
4.114264642303079
4.114264642303079
4.108110170138069
4.101955697973087
4.108110170138069
4.120419114468088
4.108110170138069
4.12657358663307
4.12657358663307
4.138882530963089
4.1327280587980795
4.120419114468088
4.114264642303079
4.12657358663307
4.1327280587980795
4.1327280587980795
4.138882530963089
4.145037003128072
4.151191475293081
4.138882530963089
4.138882530963089
4.138882530963089
4.145037003128072
4.145037003128072
4.157345947458091
4.151191475293081
4.157345947458091
4.157345947458091
4.163500419623101
4.157345947458091
4.145037003128072
4.138882530963089
4.151191475293081
4.151191475293081
4.157345947458091
4.145037003128072
4.151191475293081
4.145037003128072
4.138882530963089
4.145037003128072
4.138882530963089
4.138882530963089
4.12657358663307
4.1327280587980795
4.1327280587980795
4.1327280587980795
4.1327280587980795
4.138882530963089
4.1327280587980795
4.1327280587980795
4.12657358663307
4.120419114468088
4.1327280587980795
4.1327280587980795
4.12657358663307
4.12657358663307
4.120419114468088
4.12657358663307
4.138882530963089
4.1758093639530935
4.212736196943095
4.261971974263091
4.329671168078114
4.3727524732331275
4.37890694539811
4.323516695913104
4.212736196943095
4.120419114468088
4.0465654484880815
4.009638615498079
4.009638615498079
4.003484143333068
4.0711833371480655
4.101955697973087
4.12657358663307
4.138882530963089
4.1327280587980795
4.114264642303079
4.12657358663307
4.12657358663307
4.1327280587980795
4.151191475293081
4.151191475293081
4.145037003128072
4.12657358663307
4.145037003128072
4.151191475293081
4.145037003128072
4.145037003128072
4.151191475293081
4.151191475293081
4.151191475293081
4.145037003128072
4.151191475293081
4.145037003128072
4.145037003128072
4.145037003128072
4.145037003128072
4.151191475293081
4.151191475293081
4.151191475293081
4.151191475293081
4.145037003128072
4.151191475293081
4.138882530963089
4.151191475293081
4.1758093639530935
4.163500419623101
4.157345947458091
4.163500419623101
4.157345947458091
4.157345947458091
4.157345947458091
4.163500419623101
4.157345947458091
4.163500419623101
4.169654891788083
4.181963836118102
4.169654891788083
4.1758093639530935
4.188118308283084
4.200427252613103
4.2065817247780855
4.1942727804480935
4.200427252613103
4.2065817247780855
4.2065817247780855
4.2065817247780855
4.212736196943095
4.225045141273086
4.231199613438097
4.200427252613103
4.1758093639530935
4.237354085603107
4.237354085603107
4.237354085603107
4.225045141273086
4.212736196943095
4.231199613438097
4.200427252613103
4.181963836118102
4.181963836118102
4.169654891788083
4.157345947458091
4.157345947458091
4.157345947458091
4.151191475293081
4.12657358663307
4.12657358663307
4.12657358663307
4.114264642303079
4.114264642303079
4.101955697973087
4.108110170138069
4.120419114468088
4.108110170138069
4.108110170138069
4.101955697973087
4.108110170138069
4.101955697973087
4.114264642303079
4.095801225808079
4.108110170138069
4.120419114468088
4.120419114468088
4.114264642303079
4.114264642303079
4.120419114468088
4.120419114468088
4.12657358663307
4.12657358663307
4.114264642303079
4.12657358663307
4.12657358663307
4.1327280587980795
4.12657358663307
4.12657358663307
4.12657358663307
4.1327280587980795
4.1327280587980795
4.1327280587980795
4.1327280587980795
4.138882530963089
4.138882530963089
4.1327280587980795
4.1327280587980795
4.1327280587980795
4.145037003128072
4.151191475293081
4.145037003128072
4.145037003128072
4.1327280587980795
4.120419114468088
4.095801225808079
4.12657358663307
4.12657358663307
4.12657358663307
4.138882530963089
4.138882530963089
4.151191475293081
4.145037003128072
4.138882530963089
4.145037003128072
4.145037003128072
4.145037003128072
4.151191475293081
4.151191475293081
4.151191475293081
4.151191475293081
4.151191475293081
4.138882530963089
4.145037003128072
4.145037003128072
4.138882530963089
4.138882530963089
4.138882530963089
4.145037003128072
4.145037003128072
4.1327280587980795
4.1327280587980795
4.145037003128072
4.145037003128072
4.138882530963089
4.138882530963089
4.138882530963089
4.12657358663307
4.1327280587980795
4.1327280587980795
4.145037003128072
4.138882530963089
4.138882530963089
4.138882530963089
4.1327280587980795
4.12657358663307
4.120419114468088
4.12657358663307
4.138882530963089
4.145037003128072
4.145037003128072
4.163500419623101
4.169654891788083
4.157345947458091
4.163500419623101
4.1758093639530935
4.169654891788083
4.181963836118102
4.1942727804480935
4.181963836118102
