4.120419114468088
4.108110170138069
4.108110170138069
4.114264642303079
4.120419114468088
4.120419114468088
4.114264642303079
4.101955697973087
4.108110170138069
4.108110170138069
4.108110170138069
4.101955697973087
4.101955697973087
4.108110170138069
4.101955697973087
4.108110170138069
4.12657358663307
4.12657358663307
4.1327280587980795
4.12657358663307
4.120419114468088
4.120419114468088
4.12657358663307
4.120419114468088
4.120419114468088
4.120419114468088
4.12657358663307
4.1327280587980795
4.1327280587980795
4.138882530963089
4.138882530963089
4.12657358663307
4.1327280587980795
4.12657358663307
4.12657358663307
4.12657358663307
4.138882530963089
4.138882530963089
4.12657358663307
4.12657358663307
4.1327280587980795
4.1327280587980795
4.12657358663307
4.12657358663307
4.1327280587980795
4.138882530963089
4.1327280587980795
4.1327280587980795
4.1327280587980795
4.12657358663307
4.12657358663307
4.145037003128072
4.1327280587980795
4.12657358663307
4.1327280587980795
4.138882530963089
4.12657358663307
4.1327280587980795
4.12657358663307
4.120419114468088
4.12657358663307
4.1327280587980795
4.1327280587980795
4.1327280587980795
4.1327280587980795
4.138882530963089
4.138882530963089
4.1327280587980795
4.1327280587980795
4.1327280587980795
4.138882530963089
4.1327280587980795
4.138882530963089
4.138882530963089
4.151191475293081
4.151191475293081
4.138882530963089
4.138882530963089
4.138882530963089
4.145037003128072
4.138882530963089
4.138882530963089
4.138882530963089
4.1327280587980795
4.138882530963089
4.151191475293081
4.151191475293081
4.151191475293081
4.151191475293081
4.151191475293081
4.145037003128072
4.151191475293081
4.1327280587980795
4.157345947458091
4.1758093639530935
4.169654891788083
4.163500419623101
4.169654891788083
4.163500419623101
4.157345947458091
4.151191475293081
4.163500419623101
4.1758093639530935
4.1758093639530935
4.1758093639530935
4.163500419623101
4.163500419623101
4.157345947458091
4.157345947458091
4.169654891788083
4.1758093639530935
4.157345947458091
4.157345947458091
4.157345947458091
4.151191475293081
4.145037003128072
4.151191475293081
4.145037003128072
4.145037003128072
4.145037003128072
4.145037003128072
4.151191475293081
4.145037003128072
4.145037003128072
4.151191475293081
4.151191475293081
4.145037003128072
4.138882530963089
4.145037003128072
4.1327280587980795
4.151191475293081
4.157345947458091
4.138882530963089
4.138882530963089
4.1327280587980795
4.145037003128072
4.181963836118102
4.212736196943095
4.2681264464281
4.3173622237481215
4.366598001068117
4.385061417563119
4.329671168078114
4.218890669108104
4.12657358663307
4.0465654484880815
4.021947559828071
4.028102031993082
4.028102031993082
4.034256504158063
4.0465654484880815
4.0711833371480655
4.108110170138069
4.1327280587980795
4.12657358663307
4.12657358663307
4.138882530963089
4.1327280587980795
4.138882530963089
4.1327280587980795
4.12657358663307
4.12657358663307
4.1327280587980795
4.1327280587980795
4.1327280587980795
4.120419114468088
4.12657358663307
4.1327280587980795
4.12657358663307
4.1327280587980795
4.12657358663307
4.12657358663307
4.120419114468088
4.12657358663307
4.138882530963089
4.1327280587980795
4.138882530963089
4.138882530963089
4.1327280587980795
4.1327280587980795
4.1327280587980795
4.138882530963089
4.12657358663307
4.12657358663307
4.12657358663307
4.138882530963089
4.1327280587980795
4.1327280587980795
4.120419114468088
4.120419114468088
4.145037003128072
4.145037003128072
4.151191475293081
4.151191475293081
4.138882530963089
4.145037003128072
4.151191475293081
4.157345947458091
4.157345947458091
4.151191475293081
4.163500419623101
4.163500419623101
4.169654891788083
4.169654891788083
4.1758093639530935
4.1758093639530935
4.181963836118102
4.200427252613103
4.200427252613103
4.200427252613103
4.200427252613103
4.2065817247780855
4.200427252613103
4.200427252613103
4.200427252613103
4.200427252613103
4.1942727804480935
4.181963836118102
4.163500419623101
4.157345947458091
4.157345947458091
4.145037003128072
4.1327280587980795
4.120419114468088
4.120419114468088
4.101955697973087
4.083492281478085
4.083492281478085
4.095801225808079
4.083492281478085
4.077337809313075
4.065028864983084
4.065028864983084
4.065028864983084
4.052719920653064
4.058874392818074
4.058874392818074
4.058874392818074
4.0711833371480655
4.065028864983084
4.0711833371480655
4.065028864983084
4.052719920653064
4.052719920653064
4.058874392818074
4.058874392818074
4.065028864983084
4.058874392818074
4.058874392818074
4.0711833371480655
4.0711833371480655
4.065028864983084
4.058874392818074
4.0711833371480655
4.077337809313075
4.077337809313075
4.083492281478085
4.0711833371480655
4.077337809313075
4.0711833371480655
4.077337809313075
4.0711833371480655
4.0711833371480655
4.0711833371480655
4.077337809313075
4.083492281478085
4.077337809313075
4.0711833371480655
4.0711833371480655
4.077337809313075
4.077337809313075
4.083492281478085
4.0711833371480655
4.077337809313075
4.077337809313075
4.083492281478085
4.077337809313075
4.077337809313075
4.0711833371480655
4.083492281478085
4.083492281478085
4.0711833371480655
4.0711833371480655
4.065028864983084
4.065028864983084
4.065028864983084
4.077337809313075
4.083492281478085
4.077337809313075
4.0711833371480655
4.077337809313075
4.0711833371480655
4.0711833371480655
4.077337809313075
4.083492281478085
4.077337809313075
4.077337809313075
4.083492281478085
4.077337809313075
4.077337809313075
4.0711833371480655
4.0711833371480655
4.077337809313075
4.065028864983084
4.0711833371480655
4.077337809313075
4.0711833371480655
4.077337809313075
4.077337809313075
4.083492281478085
4.077337809313075
4.065028864983084
4.083492281478085
4.095801225808079
4.101955697973087
4.095801225808079
4.095801225808079
4.089646753643067
4.083492281478085
4.0711833371480655
4.065028864983084
4.077337809313075
4.083492281478085
4.077337809313075
4.077337809313075
4.077337809313075
4.089646753643067
4.083492281478085
4.0711833371480655
4.089646753643067
4.089646753643067
4.083492281478085
4.089646753643067
4.089646753643067
4.089646753643067
4.089646753643067
4.089646753643067
4.095801225808079
4.089646753643067
4.089646753643067
4.089646753643067
4.083492281478085
4.083492281478085
4.089646753643067
4.083492281478085
4.089646753643067
4.089646753643067
4.101955697973087
4.101955697973087
4.095801225808079
4.083492281478085
4.101955697973087
4.095801225808079
4.095801225808079
4.083492281478085
4.083492281478085
4.095801225808079
4.108110170138069
4.101955697973087
4.095801225808079
4.108110170138069
4.089646753643067
4.089646753643067
4.095801225808079
4.095801225808079
4.089646753643067
4.101955697973087
4.095801225808079
4.089646753643067
4.083492281478085
4.095801225808079
4.120419114468088
4.1327280587980795
4.120419114468088
4.114264642303079
4.12657358663307
4.120419114468088
4.114264642303079
4.120419114468088
4.114264642303079
4.108110170138069
4.108110170138069
4.101955697973087
4.108110170138069
4.095801225808079
4.095801225808079
4.095801225808079
4.095801225808079
4.095801225808079
4.083492281478085
4.083492281478085
4.083492281478085
4.089646753643067
4.083492281478085
4.083492281478085
4.095801225808079
4.101955697973087
4.095801225808079
4.089646753643067
4.095801225808079
4.108110170138069
4.095801225808079
4.089646753643067
4.077337809313075
4.083492281478085
4.065028864983084
4.089646753643067
4.114264642303079
4.1327280587980795
4.169654891788083
4.212736196943095
4.2865898629231
4.348134584573115
4.341980112408105
4.305053279418103
4.188118308283084
4.083492281478085
4.015793087663061
3.9604028381780574
3.9665573103430645
3.9727117825080467
3.9788662546730578
4.015793087663061
4.052719920653064
4.077337809313075
4.083492281478085
4.089646753643067
4.083492281478085
4.095801225808079
4.101955697973087
4.101955697973087
4.101955697973087
4.101955697973087
4.089646753643067
4.108110170138069
4.108110170138069
4.095801225808079
4.089646753643067
4.095801225808079
4.101955697973087
4.095801225808079
4.095801225808079
4.101955697973087
4.108110170138069
4.095801225808079
4.089646753643067
4.114264642303079
4.120419114468088
4.108110170138069
4.120419114468088
4.120419114468088
4.114264642303079
4.101955697973087
4.108110170138069
4.108110170138069
4.114264642303079
4.108110170138069
4.120419114468088
4.12657358663307
4.12657358663307
4.120419114468088
4.120419114468088
4.12657358663307
4.1327280587980795
4.1327280587980795
4.12657358663307
4.138882530963089
4.138882530963089
4.1327280587980795
4.138882530963089
4.138882530963089
4.145037003128072
4.151191475293081
4.157345947458091
4.163500419623101
4.163500419623101
4.1758093639530935
4.1758093639530935
4.163500419623101
4.181963836118102
4.188118308283084
4.1942727804480935
4.188118308283084
4.181963836118102
4.200427252613103
4.1942727804480935
4.200427252613103
4.188118308283084
4.181963836118102
4.169654891788083
4.163500419623101
4.157345947458091
4.157345947458091
4.145037003128072
4.12657358663307
4.114264642303079
4.108110170138069
4.108110170138069
4.089646753643067
4.089646753643067
4.0711833371480655
4.077337809313075
4.0711833371480655
4.0711833371480655
4.058874392818074
4.058874392818074
4.058874392818074
4.052719920653064
4.058874392818074
4.058874392818074
4.058874392818074
4.0711833371480655
4.0711833371480655
4.058874392818074
4.065028864983084
4.065028864983084
4.058874392818074
4.065028864983084
4.0711833371480655
4.0711833371480655
4.077337809313075
4.077337809313075
4.065028864983084
4.065028864983084
4.0711833371480655
4.065028864983084
4.058874392818074
4.058874392818074
4.065028864983084
4.065028864983084
4.083492281478085
4.083492281478085
4.083492281478085
4.083492281478085
4.0711833371480655
4.077337809313075
4.0711833371480655
4.077337809313075
4.083492281478085
4.083492281478085
4.089646753643067
4.089646753643067
4.083492281478085
4.089646753643067
4.077337809313075
4.0711833371480655
4.077337809313075
4.083492281478085
4.077337809313075
4.0711833371480655
4.0711833371480655
4.083492281478085
4.077337809313075
4.077337809313075
4.077337809313075
4.077337809313075
4.095801225808079
4.083492281478085
4.077337809313075
4.089646753643067
4.083492281478085
4.083492281478085
4.065028864983084
4.065028864983084
4.077337809313075
4.077337809313075
4.083492281478085
4.083492281478085
4.083492281478085
4.077337809313075
4.077337809313075
4.089646753643067
4.095801225808079
4.095801225808079
4.083492281478085
4.083492281478085
4.089646753643067
4.083492281478085
4.089646753643067
4.083492281478085
4.083492281478085
4.089646753643067
4.089646753643067
4.089646753643067
4.095801225808079
4.101955697973087
4.095801225808079
4.101955697973087
4.095801225808079
4.095801225808079
4.095801225808079
4.095801225808079
4.095801225808079
4.095801225808079
4.083492281478085
4.083492281478085
4.089646753643067
4.083492281478085
4.077337809313075
4.089646753643067
4.089646753643067
4.095801225808079
4.095801225808079
4.095801225808079
4.089646753643067
4.089646753643067
4.101955697973087
4.101955697973087
4.101955697973087
4.089646753643067
4.095801225808079
4.101955697973087
4.101955697973087
4.089646753643067
4.089646753643067
4.089646753643067
4.089646753643067
4.077337809313075
4.0711833371480655
4.083492281478085
4.095801225808079
4.095801225808079
4.095801225808079
4.095801225808079
4.095801225808079
4.095801225808079
4.095801225808079
4.089646753643067
4.089646753643067
4.083492281478085
4.083492281478085
4.083492281478085
4.089646753643067
4.083492281478085
4.083492281478085
4.083492281478085
4.095801225808079
4.089646753643067
4.077337809313075
4.083492281478085
4.077337809313075
4.083492281478085
4.083492281478085
4.083492281478085
4.089646753643067
4.077337809313075
4.083492281478085
4.089646753643067
4.089646753643067
4.083492281478085
4.089646753643067
4.089646753643067
4.101955697973087
4.095801225808079
4.101955697973087
4.108110170138069
4.108110170138069
4.101955697973087
4.114264642303079
4.114264642303079
4.108110170138069
4.101955697973087
4.101955697973087
4.101955697973087
4.095801225808079
4.095801225808079
4.089646753643067
4.077337809313075
4.077337809313075
4.089646753643067
4.083492281478085
4.077337809313075
4.083492281478085
4.083492281478085
4.0711833371480655
4.0711833371480655
4.065028864983084
4.065028864983084
4.089646753643067
4.083492281478085
4.0711833371480655
4.0711833371480655
4.0711833371480655
4.0711833371480655
4.077337809313075
4.083492281478085
4.0711833371480655
4.065028864983084
4.0711833371480655
4.077337809313075
4.089646753643067
4.120419114468088
4.181963836118102
4.243508557768089
4.305053279418103
4.335825640243124
4.323516695913104
4.231199613438097
4.12657358663307
4.040410976323072
3.9850207268380675
3.9604028381780574
3.9604028381780574
3.9542483660130467
3.9788662546730578
4.009638615498079
4.0465654484880815
4.065028864983084
4.077337809313075
4.083492281478085
4.083492281478085
4.083492281478085
4.077337809313075
4.089646753643067
4.083492281478085
4.089646753643067
4.083492281478085
4.083492281478085
4.0711833371480655
4.0711833371480655
4.108110170138069
4.108110170138069
4.108110170138069
4.101955697973087
4.089646753643067
4.095801225808079
4.077337809313075
4.0711833371480655
4.083492281478085
4.095801225808079
4.089646753643067
4.083492281478085
4.083492281478085
4.095801225808079
4.089646753643067
4.095801225808079
4.089646753643067
4.095801225808079
4.101955697973087
4.095801225808079
4.101955697973087
4.095801225808079
4.095801225808079
4.095801225808079
4.101955697973087
4.108110170138069
4.101955697973087
4.095801225808079
4.114264642303079
4.108110170138069
4.120419114468088
4.120419114468088
4.114264642303079
4.114264642303079
4.120419114468088
4.120419114468088
4.1327280587980795
4.12657358663307
4.138882530963089
4.151191475293081
4.151191475293081
4.151191475293081
4.157345947458091
4.151191475293081
4.151191475293081
4.169654891788083
4.169654891788083
4.169654891788083
4.157345947458091
4.157345947458091
4.169654891788083
4.169654891788083
4.157345947458091
4.151191475293081
4.1327280587980795
4.1327280587980795
4.114264642303079
4.108110170138069
4.095801225808079
4.077337809313075
4.0711833371480655
4.052719920653064
4.0465654484880815
4.058874392818074
4.052719920653064
4.052719920653064
4.0465654484880815
4.040410976323072
4.028102031993082
4.028102031993082
4.015793087663061
4.009638615498079
4.028102031993082
4.040410976323072
4.034256504158063
4.034256504158063
4.034256504158063
4.034256504158063
4.028102031993082
4.021947559828071
4.034256504158063
4.040410976323072
4.0465654484880815
4.0465654484880815
4.040410976323072
4.021947559828071
4.021947559828071
4.028102031993082
4.021947559828071
4.028102031993082
4.0465654484880815
4.052719920653064
4.0465654484880815
4.034256504158063
4.034256504158063
4.040410976323072
4.034256504158063
4.040410976323072
4.0465654484880815
4.034256504158063
4.040410976323072
4.040410976323072
4.0465654484880815
4.040410976323072
4.0465654484880815
4.034256504158063
4.040410976323072
4.0465654484880815
4.052719920653064
4.0465654484880815
4.040410976323072
4.028102031993082
4.034256504158063
4.058874392818074
4.052719920653064
4.0465654484880815
4.040410976323072
4.052719920653064
4.0465654484880815
4.052719920653064
4.052719920653064
4.0465654484880815
4.0465654484880815
4.052719920653064
4.0465654484880815
4.052719920653064
4.052719920653064
4.040410976323072
4.0465654484880815
4.058874392818074
4.0465654484880815
4.052719920653064
4.058874392818074
4.052719920653064
4.0465654484880815
4.052719920653064
4.058874392818074
4.065028864983084
4.058874392818074
4.058874392818074
4.0465654484880815
4.052719920653064
4.052719920653064
4.052719920653064
4.052719920653064
4.052719920653064
4.052719920653064
4.065028864983084
4.058874392818074
4.052719920653064
4.058874392818074
4.058874392818074
4.052719920653064
4.052719920653064
4.052719920653064
4.052719920653064
4.052719920653064
4.058874392818074
4.052719920653064
4.052719920653064
4.052719920653064
4.058874392818074
4.052719920653064
4.058874392818074
4.058874392818074
4.052719920653064
4.052719920653064
4.052719920653064
4.058874392818074
4.058874392818074
4.0465654484880815
4.0465654484880815
4.058874392818074
4.058874392818074
4.058874392818074
4.052719920653064
4.052719920653064
4.065028864983084
4.052719920653064
4.0465654484880815
4.058874392818074
4.058874392818074
4.058874392818074
4.058874392818074
4.058874392818074
4.065028864983084
4.065028864983084
4.058874392818074
4.065028864983084
4.065028864983084
4.0711833371480655
4.0711833371480655
4.0711833371480655
4.077337809313075
4.0711833371480655
4.083492281478085
4.077337809313075
4.077337809313075
4.083492281478085
4.089646753643067
4.077337809313075
4.065028864983084
4.0711833371480655
4.077337809313075
4.0711833371480655
4.0711833371480655
4.058874392818074
4.065028864983084
4.0711833371480655
4.065028864983084
4.058874392818074
4.065028864983084
4.065028864983084
4.052719920653064
4.058874392818074
4.058874392818074
4.052719920653064
4.052719920653064
4.052719920653064
4.058874392818074
4.065028864983084
4.065028864983084
4.058874392818074
4.052719920653064
4.058874392818074
4.0465654484880815
4.058874392818074
4.058874392818074
4.052719920653064
4.040410976323072
4.052719920653064
4.077337809313075
4.095801225808079
4.1327280587980795
4.200427252613103
4.261971974263091
4.305053279418103
4.292744335088111
4.218890669108104
4.108110170138069
4.034256504158063
3.9665573103430645
3.948093893848065
3.9419394216830552
3.9542483660130467
3.9727117825080467
3.9911751990030497
4.028102031993082
4.052719920653064
4.052719920653064
4.052719920653064
4.052719920653064
4.052719920653064
4.065028864983084
4.0711833371480655
4.077337809313075
4.0711833371480655
4.0711833371480655
4.058874392818074
4.065028864983084
4.0711833371480655
4.065028864983084
4.077337809313075
4.0711833371480655
4.0711833371480655
4.083492281478085
4.083492281478085
4.083492281478085
4.077337809313075
4.077337809313075
4.0711833371480655
4.089646753643067
4.089646753643067
4.089646753643067
4.101955697973087
4.095801225808079
4.095801225808079
4.095801225808079
4.089646753643067
4.101955697973087
4.101955697973087
4.101955697973087
4.101955697973087
4.108110170138069
4.108110170138069
4.101955697973087
4.108110170138069
4.101955697973087
4.101955697973087
4.108110170138069
4.101955697973087
4.114264642303079
4.12657358663307
4.120419114468088
4.12657358663307
4.12657358663307
4.145037003128072
4.138882530963089
4.145037003128072
4.157345947458091
4.163500419623101
4.163500419623101
4.169654891788083
4.169654891788083
4.1758093639530935
4.169654891788083
4.1758093639530935
4.181963836118102
4.181963836118102
4.181963836118102
4.181963836118102
4.1758093639530935
4.157345947458091
4.169654891788083
4.151191475293081
4.145037003128072
4.145037003128072
4.138882530963089
4.120419114468088
4.101955697973087
4.077337809313075
4.058874392818074
4.058874392818074
4.052719920653064
4.0711833371480655
4.0711833371480655
4.065028864983084
4.052719920653064
4.034256504158063
4.040410976323072
4.0465654484880815
4.040410976323072
4.0465654484880815
4.0465654484880815
4.052719920653064
4.0465654484880815
4.052719920653064
4.0465654484880815
4.052719920653064
4.0465654484880815
4.052719920653064
4.052719920653064
4.0465654484880815
4.058874392818074
4.058874392818074
4.058874392818074
4.065028864983084
4.052719920653064
4.058874392818074
4.058874392818074
4.0711833371480655
4.0711833371480655
4.065028864983084
4.065028864983084
4.058874392818074
4.0711833371480655
4.077337809313075
4.0711833371480655
4.065028864983084
4.065028864983084
4.065028864983084
4.065028864983084
4.065028864983084
4.0711833371480655
4.0711833371480655
4.0711833371480655
4.065028864983084
4.065028864983084
4.065028864983084
4.052719920653064
4.052719920653064
4.058874392818074
4.058874392818074
4.058874392818074
4.052719920653064
4.052719920653064
4.058874392818074
4.058874392818074
4.058874392818074
4.065028864983084
4.065028864983084
4.065028864983084
4.052719920653064
4.052719920653064
4.0465654484880815
4.058874392818074
4.0711833371480655
4.065028864983084
4.0711833371480655
4.065028864983084
4.058874392818074
4.052719920653064
4.0711833371480655
4.077337809313075
4.065028864983084
4.0711833371480655
4.065028864983084
4.065028864983084
4.052719920653064
4.058874392818074
4.065028864983084
4.077337809313075
4.065028864983084
4.065028864983084
4.058874392818074
4.0711833371480655
4.065028864983084
4.077337809313075
4.065028864983084
4.077337809313075
4.0711833371480655
4.065028864983084
4.0711833371480655
4.0711833371480655
4.058874392818074
4.0711833371480655
4.065028864983084
4.065028864983084
4.065028864983084
4.0711833371480655
4.083492281478085
4.089646753643067
4.0711833371480655
4.065028864983084
4.077337809313075
4.083492281478085
4.0711833371480655
4.083492281478085
4.0711833371480655
4.077337809313075
4.083492281478085
4.0711833371480655
4.077337809313075
4.083492281478085
4.077337809313075
4.065028864983084
4.065028864983084
4.083492281478085
4.083492281478085
4.077337809313075
4.077337809313075
4.077337809313075
4.083492281478085
4.089646753643067
4.083492281478085
4.065028864983084
4.095801225808079
4.089646753643067
4.095801225808079
4.089646753643067
4.095801225808079
4.101955697973087
4.095801225808079
4.065028864983084
4.0711833371480655
4.089646753643067
4.083492281478085
4.089646753643067
4.089646753643067
4.077337809313075
4.065028864983084
4.089646753643067
4.101955697973087
4.089646753643067
4.095801225808079
4.077337809313075
4.077337809313075
4.089646753643067
4.083492281478085
4.083492281478085
4.095801225808079
4.095801225808079
4.089646753643067
4.095801225808079
4.095801225808079
4.095801225808079
4.101955697973087
4.114264642303079
4.108110170138069
4.089646753643067
4.108110170138069
4.108110170138069
4.108110170138069
4.101955697973087
4.095801225808079
4.095801225808079
4.108110170138069
4.095801225808079
4.095801225808079
4.095801225808079
4.083492281478085
4.083492281478085
4.089646753643067
4.089646753643067
4.083492281478085
4.083492281478085
4.083492281478085
4.089646753643067
4.083492281478085
4.083492281478085
4.077337809313075
4.095801225808079
4.089646753643067
4.095801225808079
4.095801225808079
4.089646753643067
4.089646753643067
4.089646753643067
4.077337809313075
4.077337809313075
4.077337809313075
4.089646753643067
4.120419114468088
4.145037003128072
4.188118308283084
4.261971974263091
4.335825640243124
4.3727524732331275
4.341980112408105
4.249663029933098
4.12657358663307
4.040410976323072
3.9788662546730578
3.9665573103430645
3.9788662546730578
3.9973296711680604
4.021947559828071
4.0465654484880815
4.077337809313075
4.083492281478085
4.089646753643067
4.083492281478085
4.083492281478085
4.101955697973087
4.101955697973087
4.101955697973087
4.101955697973087
4.095801225808079
4.089646753643067
4.095801225808079
4.095801225808079
4.095801225808079
4.101955697973087
4.101955697973087
4.101955697973087
4.095801225808079
4.095801225808079
4.101955697973087
4.108110170138069
4.108110170138069
4.101955697973087
4.095801225808079
4.095801225808079
4.108110170138069
4.108110170138069
4.095801225808079
4.101955697973087
4.101955697973087
4.101955697973087
4.108110170138069
4.120419114468088
4.108110170138069
4.120419114468088
4.114264642303079
4.095801225808079
4.114264642303079
4.108110170138069
4.101955697973087
4.12657358663307
4.120419114468088
4.108110170138069
4.114264642303079
4.120419114468088
4.120419114468088
4.12657358663307
4.120419114468088
4.120419114468088
4.145037003128072
4.151191475293081
4.151191475293081
4.157345947458091
4.151191475293081
4.157345947458091
4.163500419623101
4.163500419623101
4.163500419623101
4.169654891788083
4.1758093639530935
4.188118308283084
4.181963836118102
4.181963836118102
4.181963836118102
4.181963836118102
4.188118308283084
4.1758093639530935
4.169654891788083
4.151191475293081
4.151191475293081
4.145037003128072
4.120419114468088
4.120419114468088
4.108110170138069
4.089646753643067
4.077337809313075
4.077337809313075
4.0711833371480655
4.065028864983084
4.0711833371480655
4.065028864983084
4.0711833371480655
4.052719920653064
4.0465654484880815
4.058874392818074
4.052719920653064
4.0465654484880815
4.058874392818074
4.065028864983084
4.052719920653064
4.0465654484880815
4.0465654484880815
4.058874392818074
4.058874392818074
4.065028864983084
4.058874392818074
4.058874392818074
4.040410976323072
4.034256504158063
4.0711833371480655
4.077337809313075
4.0711833371480655
4.065028864983084
4.065028864983084
4.0711833371480655
4.058874392818074
4.0465654484880815
4.065028864983084
4.0711833371480655
4.058874392818074
4.065028864983084
4.065028864983084
4.065028864983084
4.083492281478085
4.077337809313075
4.058874392818074
4.065028864983084
4.0711833371480655
4.0711833371480655
4.065028864983084
4.065028864983084
4.065028864983084
4.065028864983084
4.058874392818074
4.065028864983084
4.0711833371480655
4.0711833371480655
4.077337809313075
4.065028864983084
4.058874392818074
4.0711833371480655
4.0711833371480655
4.0711833371480655
4.0711833371480655
4.065028864983084
4.065028864983084
4.065028864983084
4.0711833371480655
4.077337809313075
4.0711833371480655
4.0711833371480655
4.065028864983084
4.065028864983084
4.0711833371480655
4.077337809313075
4.0711833371480655
4.077337809313075
4.0711833371480655
4.0711833371480655
4.065028864983084
4.065028864983084
4.065028864983084
4.083492281478085
4.0711833371480655
4.0711833371480655
4.0711833371480655
4.065028864983084
4.065028864983084
4.0711833371480655
4.0711833371480655
4.058874392818074
4.052719920653064
4.077337809313075
4.077337809313075
4.065028864983084
4.0711833371480655
4.065028864983084
4.0711833371480655
4.058874392818074
4.052719920653064
4.058874392818074
4.065028864983084
4.065028864983084
4.058874392818074
4.058874392818074
4.0711833371480655
4.0711833371480655
4.065028864983084
4.065028864983084
4.077337809313075
4.083492281478085
4.077337809313075
4.065028864983084
4.058874392818074
4.052719920653064
4.077337809313075
4.083492281478085
4.077337809313075
4.065028864983084
4.0711833371480655
4.077337809313075
4.077337809313075
4.0711833371480655
4.077337809313075
4.083492281478085
4.0711833371480655
4.0711833371480655
4.083492281478085
4.089646753643067
4.083492281478085
4.077337809313075
4.077337809313075
4.083492281478085
4.077337809313075
4.077337809313075
4.089646753643067
4.083492281478085
4.095801225808079
4.083492281478085
4.089646753643067
4.083492281478085
4.0711833371480655
4.083492281478085
4.083492281478085
4.083492281478085
4.077337809313075
4.095801225808079
4.083492281478085
4.089646753643067
4.089646753643067
4.089646753643067
4.083492281478085
4.0711833371480655
4.077337809313075
4.089646753643067
4.083492281478085
4.0711833371480655
4.077337809313075
4.083492281478085
4.089646753643067
4.083492281478085
4.089646753643067
4.089646753643067
4.101955697973087
4.101955697973087
4.095801225808079
4.095801225808079
4.095801225808079
4.089646753643067
4.095801225808079
4.120419114468088
4.120419114468088
4.101955697973087
4.108110170138069
4.108110170138069
4.120419114468088
4.114264642303079
4.114264642303079
4.108110170138069
4.101955697973087
4.089646753643067
4.095801225808079
4.095801225808079
4.083492281478085
4.077337809313075
4.083492281478085
4.083492281478085
4.077337809313075
4.077337809313075
4.077337809313075
4.0711833371480655
4.065028864983084
4.0711833371480655
4.0711833371480655
4.077337809313075
4.083492281478085
4.077337809313075
4.083492281478085
4.089646753643067
4.077337809313075
4.077337809313075
4.077337809313075
4.077337809313075
4.077337809313075
4.0711833371480655
4.0711833371480655
4.083492281478085
4.114264642303079
4.157345947458091
4.218890669108104
4.2865898629231
4.348134584573115
4.348134584573115
4.255817502098108
4.157345947458091
4.0465654484880815
3.9665573103430645
3.9542483660130467
3.9665573103430645
3.9665573103430645
3.9788662546730578
4.015793087663061
4.052719920653064
4.0711833371480655
4.083492281478085
4.101955697973087
4.095801225808079
4.089646753643067
4.089646753643067
4.083492281478085
4.095801225808079
4.101955697973087
4.095801225808079
4.089646753643067
4.108110170138069
4.114264642303079
4.114264642303079
4.101955697973087
4.101955697973087
4.108110170138069
4.108110170138069
4.101955697973087
4.120419114468088
4.120419114468088
4.114264642303079
4.108110170138069
4.108110170138069
4.108110170138069
4.120419114468088
4.1327280587980795
4.120419114468088
4.12657358663307
4.12657358663307
4.12657358663307
4.1327280587980795
4.12657358663307
4.12657358663307
4.12657358663307
4.1327280587980795
4.1327280587980795
4.1327280587980795
4.138882530963089
4.138882530963089
4.145037003128072
4.151191475293081
4.145037003128072
4.145037003128072
4.145037003128072
4.163500419623101
4.163500419623101
4.163500419623101
4.163500419623101
4.163500419623101
4.163500419623101
4.1758093639530935
4.1758093639530935
4.169654891788083
4.181963836118102
4.181963836118102
4.188118308283084
4.2065817247780855
4.212736196943095
4.212736196943095
4.2065817247780855
4.200427252613103
4.1942727804480935
4.2065817247780855
4.2065817247780855
4.188118308283084
4.1758093639530935
4.169654891788083
4.151191475293081
4.157345947458091
4.169654891788083
4.145037003128072
4.12657358663307
4.114264642303079
4.101955697973087
4.108110170138069
4.089646753643067
4.077337809313075
4.077337809313075
4.077337809313075
4.083492281478085
4.0711833371480655
4.058874392818074
4.065028864983084
4.065028864983084
4.0711833371480655
4.077337809313075
4.083492281478085
4.077337809313075
4.065028864983084
4.0711833371480655
4.0711833371480655
4.0711833371480655
4.077337809313075
4.077337809313075
4.077337809313075
4.0711833371480655
4.077337809313075
4.077337809313075
4.089646753643067
4.0711833371480655
4.077337809313075
4.089646753643067
4.095801225808079
4.095801225808079
4.095801225808079
4.089646753643067
4.083492281478085
4.083492281478085
4.083492281478085
4.077337809313075
4.089646753643067
4.077337809313075
4.095801225808079
4.101955697973087
4.108110170138069
4.101955697973087
4.095801225808079
4.058874392818074
4.083492281478085
4.095801225808079
4.083492281478085
4.101955697973087
4.101955697973087
4.095801225808079
4.077337809313075
4.077337809313075
4.083492281478085
4.077337809313075
4.089646753643067
4.101955697973087
4.083492281478085
4.095801225808079
4.095801225808079
4.083492281478085
4.083492281478085
4.083492281478085
4.083492281478085
4.083492281478085
4.089646753643067
4.089646753643067
4.083492281478085
4.083492281478085
4.083492281478085
4.089646753643067
4.077337809313075
4.077337809313075
4.083492281478085
4.089646753643067
4.089646753643067
4.089646753643067
4.083492281478085
4.077337809313075
4.077337809313075
4.083492281478085
4.083492281478085
4.083492281478085
4.089646753643067
4.083492281478085
4.077337809313075
4.095801225808079
4.089646753643067
4.083492281478085
4.089646753643067
4.095801225808079
4.089646753643067
4.095801225808079
4.089646753643067
4.077337809313075
4.0711833371480655
4.077337809313075
4.083492281478085
4.077337809313075
4.0711833371480655
4.089646753643067
4.089646753643067
4.083492281478085
4.083492281478085
4.083492281478085
4.089646753643067
4.077337809313075
4.0711833371480655
4.083492281478085
4.083492281478085
4.095801225808079
4.083492281478085
4.077337809313075
4.065028864983084
4.077337809313075
4.101955697973087
4.083492281478085
4.089646753643067
4.083492281478085
4.083492281478085
4.083492281478085
4.089646753643067
4.083492281478085
4.083492281478085
4.083492281478085
4.083492281478085
4.077337809313075
4.077337809313075
4.083492281478085
4.101955697973087
4.077337809313075
4.083492281478085
4.089646753643067
4.095801225808079
4.095801225808079
4.108110170138069
4.108110170138069
4.101955697973087
4.101955697973087
4.108110170138069
4.095801225808079
4.095801225808079
4.101955697973087
4.108110170138069
4.095801225808079
4.095801225808079
4.095801225808079
4.089646753643067
