4.188118308283084
4.1942727804480935
4.1942727804480935
4.200427252613103
4.1942727804480935
4.1942727804480935
4.1942727804480935
4.188118308283084
4.1942727804480935
4.181963836118102
4.181963836118102
4.212736196943095
4.218890669108104
4.2065817247780855
4.1942727804480935
4.1942727804480935
4.1942727804480935
4.188118308283084
4.188118308283084
4.200427252613103
4.1942727804480935
4.1942727804480935
4.188118308283084
4.188118308283084
4.1942727804480935
4.181963836118102
4.188118308283084
4.1942727804480935
4.188118308283084
4.1942727804480935
4.1942727804480935
4.181963836118102
4.188118308283084
4.181963836118102
4.181963836118102
4.188118308283084
4.181963836118102
4.188118308283084
4.181963836118102
4.181963836118102
4.181963836118102
4.1758093639530935
4.1758093639530935
4.181963836118102
4.181963836118102
4.1942727804480935
4.200427252613103
4.188118308283084
4.145037003128072
4.1758093639530935
4.1942727804480935
4.200427252613103
4.2065817247780855
4.2065817247780855
4.2065817247780855
4.2065817247780855
4.2065817247780855
4.200427252613103
4.200427252613103
4.1942727804480935
4.200427252613103
4.1942727804480935
4.200427252613103
4.1942727804480935
4.1942727804480935
4.181963836118102
4.1942727804480935
4.188118308283084
4.188118308283084
4.188118308283084
4.181963836118102
4.188118308283084
4.181963836118102
4.188118308283084
4.188118308283084
4.181963836118102
4.188118308283084
4.188118308283084
4.1942727804480935
4.1942727804480935
4.188118308283084
4.188118308283084
4.200427252613103
4.1942727804480935
4.181963836118102
4.188118308283084
4.1942727804480935
4.218890669108104
4.243508557768089
4.2865898629231
4.335825640243124
4.385061417563119
4.40352483405812
4.3727524732331275
4.292744335088111
4.1942727804480935
4.1327280587980795
4.089646753643067
4.083492281478085
4.089646753643067
4.101955697973087
4.120419114468088
4.138882530963089
4.1758093639530935
4.181963836118102
4.1942727804480935
4.200427252613103
4.2065817247780855
4.2065817247780855
4.200427252613103
4.200427252613103
4.188118308283084
4.2065817247780855
4.2065817247780855
4.2065817247780855
4.200427252613103
4.200427252613103
4.2065817247780855
4.200427252613103
4.200427252613103
4.2065817247780855
4.212736196943095
4.212736196943095
4.212736196943095
4.200427252613103
4.1942727804480935
4.212736196943095
4.225045141273086
4.218890669108104
4.218890669108104
4.212736196943095
4.212736196943095
4.218890669108104
4.218890669108104
4.218890669108104
4.2065817247780855
4.212736196943095
4.231199613438097
4.225045141273086
4.225045141273086
4.212736196943095
4.225045141273086
4.231199613438097
4.231199613438097
4.243508557768089
4.231199613438097
4.237354085603107
4.237354085603107
4.243508557768089
4.243508557768089
4.243508557768089
4.255817502098108
4.261971974263091
4.249663029933098
4.255817502098108
4.27428091859311
4.27428091859311
4.27428091859311
4.2681264464281
4.2681264464281
4.280435390758093
4.280435390758093
4.2865898629231
4.2865898629231
4.2865898629231
4.2865898629231
4.2865898629231
4.280435390758093
4.280435390758093
4.255817502098108
4.212736196943095
4.261971974263091
4.243508557768089
4.243508557768089
4.2065817247780855
4.1942727804480935
4.188118308283084
4.1942727804480935
4.181963836118102
4.1758093639530935
4.188118308283084
4.1758093639530935
4.1758093639530935
4.169654891788083
4.169654891788083
4.169654891788083
4.169654891788083
4.163500419623101
4.163500419623101
4.145037003128072
4.095801225808079
4.157345947458091
4.169654891788083
4.1758093639530935
4.1758093639530935
4.181963836118102
4.181963836118102
4.151191475293081
4.138882530963089
4.157345947458091
4.145037003128072
4.157345947458091
4.169654891788083
4.181963836118102
4.1758093639530935
4.163500419623101
4.169654891788083
4.163500419623101
4.151191475293081
4.163500419623101
4.1758093639530935
4.1758093639530935
4.169654891788083
4.163500419623101
4.151191475293081
4.157345947458091
4.157345947458091
4.163500419623101
4.163500419623101
4.163500419623101
4.157345947458091
4.151191475293081
4.157345947458091
4.163500419623101
4.163500419623101
4.157345947458091
4.169654891788083
4.163500419623101
4.163500419623101
4.151191475293081
4.163500419623101
4.157345947458091
4.151191475293081
4.151191475293081
4.163500419623101
4.163500419623101
4.151191475293081
4.151191475293081
4.157345947458091
4.163500419623101
4.169654891788083
4.163500419623101
4.163500419623101
4.157345947458091
4.151191475293081
4.157345947458091
4.157345947458091
4.157345947458091
4.157345947458091
4.163500419623101
4.157345947458091
4.163500419623101
4.151191475293081
4.151191475293081
4.157345947458091
4.157345947458091
4.157345947458091
4.163500419623101
4.151191475293081
4.163500419623101
4.157345947458091
4.169654891788083
4.163500419623101
4.157345947458091
4.157345947458091
4.163500419623101
4.163500419623101
4.157345947458091
4.151191475293081
4.157345947458091
4.163500419623101
4.169654891788083
4.163500419623101
4.157345947458091
4.163500419623101
4.157345947458091
4.151191475293081
4.151191475293081
4.163500419623101
4.169654891788083
4.157345947458091
4.163500419623101
4.157345947458091
4.151191475293081
4.157345947458091
4.163500419623101
4.151191475293081
4.145037003128072
4.151191475293081
4.151191475293081
4.157345947458091
4.145037003128072
4.101955697973087
4.169654891788083
4.1758093639530935
4.1758093639530935
4.181963836118102
4.181963836118102
4.1758093639530935
4.157345947458091
4.145037003128072
4.151191475293081
4.169654891788083
4.181963836118102
4.181963836118102
4.169654891788083
4.1758093639530935
4.169654891788083
4.1758093639530935
4.181963836118102
4.1758093639530935
4.1758093639530935
4.169654891788083
4.163500419623101
4.163500419623101
4.157345947458091
4.169654891788083
4.163500419623101
4.151191475293081
4.157345947458091
4.151191475293081
4.163500419623101
4.157345947458091
4.157345947458091
4.169654891788083
4.163500419623101
4.169654891788083
4.169654891788083
4.169654891788083
4.163500419623101
4.163500419623101
4.157345947458091
4.169654891788083
4.169654891788083
4.157345947458091
4.151191475293081
4.151191475293081
4.151191475293081
4.1758093639530935
4.2065817247780855
4.237354085603107
4.292744335088111
4.354289056738125
4.391215889728128
4.37890694539811
4.305053279418103
4.1942727804480935
4.12657358663307
4.065028864983084
4.052719920653064
4.0711833371480655
4.083492281478085
4.114264642303079
4.1327280587980795
4.151191475293081
4.157345947458091
4.169654891788083
4.181963836118102
4.181963836118102
4.169654891788083
4.163500419623101
4.163500419623101
4.1758093639530935
4.188118308283084
4.188118308283084
4.181963836118102
4.181963836118102
4.181963836118102
4.1758093639530935
4.181963836118102
4.1758093639530935
4.181963836118102
4.188118308283084
4.1942727804480935
4.188118308283084
4.1942727804480935
4.1942727804480935
4.188118308283084
4.181963836118102
4.1942727804480935
4.200427252613103
4.212736196943095
4.2065817247780855
4.2065817247780855
4.212736196943095
4.200427252613103
4.2065817247780855
4.212736196943095
4.2065817247780855
4.212736196943095
4.212736196943095
4.212736196943095
4.212736196943095
4.2065817247780855
4.225045141273086
4.231199613438097
4.225045141273086
4.225045141273086
4.231199613438097
4.231199613438097
4.237354085603107
4.231199613438097
4.243508557768089
4.249663029933098
4.249663029933098
4.249663029933098
4.255817502098108
4.249663029933098
4.243508557768089
4.243508557768089
4.255817502098108
4.2681264464281
4.27428091859311
4.27428091859311
4.237354085603107
4.280435390758093
4.27428091859311
4.249663029933098
4.261971974263091
4.261971974263091
4.2681264464281
4.249663029933098
4.243508557768089
4.237354085603107
4.231199613438097
4.225045141273086
4.218890669108104
4.1942727804480935
4.1942727804480935
4.181963836118102
4.188118308283084
4.181963836118102
4.163500419623101
4.169654891788083
4.163500419623101
4.157345947458091
4.157345947458091
4.169654891788083
4.169654891788083
4.157345947458091
4.145037003128072
4.157345947458091
4.169654891788083
4.157345947458091
4.163500419623101
4.157345947458091
4.151191475293081
4.151191475293081
4.163500419623101
4.169654891788083
4.163500419623101
4.163500419623101
4.163500419623101
4.169654891788083
4.169654891788083
4.163500419623101
4.157345947458091
4.169654891788083
4.1758093639530935
4.1758093639530935
4.169654891788083
4.169654891788083
4.169654891788083
4.1758093639530935
4.1758093639530935
4.1758093639530935
4.181963836118102
4.1758093639530935
4.181963836118102
4.181963836118102
4.1758093639530935
4.1758093639530935
4.188118308283084
4.188118308283084
4.1758093639530935
4.169654891788083
4.181963836118102
4.1758093639530935
4.1758093639530935
4.163500419623101
4.1758093639530935
4.188118308283084
4.188118308283084
4.1758093639530935
4.169654891788083
4.169654891788083
4.169654891788083
4.1758093639530935
4.181963836118102
4.181963836118102
4.1758093639530935
4.1758093639530935
4.181963836118102
4.181963836118102
4.169654891788083
4.1758093639530935
4.181963836118102
4.181963836118102
4.188118308283084
4.188118308283084
4.181963836118102
4.1758093639530935
4.163500419623101
4.12657358663307
4.1942727804480935
4.1942727804480935
4.188118308283084
4.188118308283084
4.181963836118102
4.181963836118102
4.181963836118102
4.163500419623101
4.169654891788083
4.163500419623101
4.163500419623101
4.169654891788083
4.181963836118102
4.1758093639530935
4.169654891788083
4.1758093639530935
4.188118308283084
4.181963836118102
4.181963836118102
4.181963836118102
4.181963836118102
4.1758093639530935
4.181963836118102
4.181963836118102
4.181963836118102
4.181963836118102
4.188118308283084
4.181963836118102
4.188118308283084
4.181963836118102
4.169654891788083
4.169654891788083
4.138882530963089
4.1942727804480935
4.200427252613103
4.1942727804480935
4.1942727804480935
4.188118308283084
4.157345947458091
4.163500419623101
4.181963836118102
4.181963836118102
4.181963836118102
4.188118308283084
4.181963836118102
4.188118308283084
4.1758093639530935
4.1942727804480935
4.188118308283084
4.188118308283084
4.200427252613103
4.1942727804480935
4.188118308283084
4.2065817247780855
4.200427252613103
4.1942727804480935
4.2065817247780855
4.212736196943095
4.212736196943095
4.2065817247780855
4.212736196943095
4.200427252613103
4.200427252613103
4.2065817247780855
4.200427252613103
4.1942727804480935
4.1942727804480935
4.200427252613103
4.1942727804480935
4.188118308283084
4.188118308283084
4.188118308283084
4.1758093639530935
4.188118308283084
4.1942727804480935
4.1942727804480935
4.188118308283084
4.181963836118102
4.181963836118102
4.1758093639530935
4.181963836118102
4.188118308283084
4.1942727804480935
4.188118308283084
4.1942727804480935
4.188118308283084
4.181963836118102
4.188118308283084
4.1758093639530935
4.1758093639530935
4.169654891788083
4.1942727804480935
4.218890669108104
4.255817502098108
4.298898807253093
4.348134584573115
4.397370361893111
4.421988250553122
4.3727524732331275
4.261971974263091
4.169654891788083
4.108110170138069
4.077337809313075
4.077337809313075
4.101955697973087
4.120419114468088
4.145037003128072
4.169654891788083
4.1758093639530935
4.188118308283084
4.188118308283084
4.188118308283084
4.181963836118102
4.1942727804480935
4.200427252613103
4.200427252613103
4.1942727804480935
4.200427252613103
4.1942727804480935
4.1942727804480935
4.181963836118102
4.1942727804480935
4.200427252613103
4.200427252613103
4.1942727804480935
4.200427252613103
4.1942727804480935
4.188118308283084
4.2065817247780855
4.212736196943095
4.212736196943095
4.212736196943095
4.2065817247780855
4.212736196943095
4.2065817247780855
4.2065817247780855
4.212736196943095
4.2065817247780855
4.212736196943095
4.212736196943095
4.212736196943095
4.225045141273086
4.218890669108104
4.212736196943095
4.218890669108104
4.231199613438097
4.231199613438097
4.237354085603107
4.237354085603107
4.237354085603107
4.237354085603107
4.237354085603107
4.243508557768089
4.225045141273086
4.2065817247780855
4.237354085603107
4.237354085603107
4.243508557768089
4.243508557768089
4.255817502098108
4.2681264464281
4.27428091859311
4.2865898629231
4.2865898629231
4.292744335088111
4.2865898629231
4.2865898629231
4.292744335088111
4.292744335088111
4.2865898629231
4.280435390758093
4.2865898629231
4.280435390758093
4.280435390758093
4.27428091859311
4.2681264464281
4.255817502098108
4.237354085603107
4.231199613438097
4.212736196943095
4.212736196943095
4.2065817247780855
4.200427252613103
4.1942727804480935
4.181963836118102
4.1758093639530935
4.181963836118102
4.1758093639530935
4.181963836118102
4.181963836118102
4.169654891788083
4.1758093639530935
4.181963836118102
4.181963836118102
4.181963836118102
4.1758093639530935
4.188118308283084
4.1758093639530935
4.181963836118102
4.181963836118102
4.181963836118102
4.181963836118102
4.1758093639530935
4.181963836118102
4.188118308283084
4.188118308283084
4.188118308283084
4.181963836118102
4.181963836118102
4.188118308283084
4.181963836118102
4.181963836118102
4.1942727804480935
4.188118308283084
4.1942727804480935
4.181963836118102
4.1942727804480935
4.188118308283084
4.1942727804480935
4.181963836118102
4.188118308283084
4.1942727804480935
4.1942727804480935
4.1942727804480935
4.1942727804480935
4.188118308283084
4.188118308283084
4.188118308283084
4.1942727804480935
4.181963836118102
4.188118308283084
4.1942727804480935
4.1942727804480935
4.188118308283084
4.181963836118102
4.181963836118102
4.188118308283084
4.1942727804480935
4.1942727804480935
4.1942727804480935
4.1942727804480935
4.1942727804480935
4.188118308283084
4.2065817247780855
4.2065817247780855
4.1942727804480935
4.188118308283084
4.181963836118102
4.188118308283084
4.2065817247780855
4.200427252613103
4.1942727804480935
4.200427252613103
4.1942727804480935
4.1942727804480935
4.2065817247780855
4.2065817247780855
4.1942727804480935
4.200427252613103
4.2065817247780855
4.200427252613103
4.2065817247780855
4.2065817247780855
4.212736196943095
4.200427252613103
4.200427252613103
4.200427252613103
4.2065817247780855
4.200427252613103
4.200427252613103
4.200427252613103
4.212736196943095
4.212736196943095
4.200427252613103
4.1942727804480935
4.181963836118102
4.145037003128072
4.218890669108104
4.218890669108104
4.2065817247780855
4.200427252613103
4.188118308283084
4.1942727804480935
4.1942727804480935
4.200427252613103
4.2065817247780855
4.212736196943095
4.2065817247780855
4.2065817247780855
4.200427252613103
4.2065817247780855
4.2065817247780855
4.212736196943095
4.200427252613103
4.200427252613103
4.2065817247780855
4.1942727804480935
4.200427252613103
4.212736196943095
4.218890669108104
4.212736196943095
4.212736196943095
4.2065817247780855
4.2065817247780855
4.200427252613103
4.212736196943095
4.200427252613103
4.200427252613103
4.188118308283084
4.1942727804480935
4.212736196943095
4.2065817247780855
4.151191475293081
4.1942727804480935
4.225045141273086
4.218890669108104
4.212736196943095
4.212736196943095
4.212736196943095
4.2065817247780855
4.1942727804480935
4.2065817247780855
4.2065817247780855
4.2065817247780855
4.225045141273086
4.218890669108104
4.2065817247780855
4.218890669108104
4.218890669108104
4.225045141273086
4.218890669108104
4.212736196943095
4.200427252613103
4.1942727804480935
4.188118308283084
4.181963836118102
4.1942727804480935
4.1942727804480935
4.200427252613103
4.200427252613103
4.1942727804480935
4.1942727804480935
4.1942727804480935
4.188118308283084
4.200427252613103
4.200427252613103
4.200427252613103
4.188118308283084
4.188118308283084
4.1942727804480935
4.188118308283084
4.200427252613103
4.200427252613103
4.200427252613103
4.1942727804480935
4.1942727804480935
4.200427252613103
4.225045141273086
4.2681264464281
4.3173622237481215
4.385061417563119
4.415833778388112
4.421988250553122
4.360443528903107
4.261971974263091
4.1758093639530935
4.101955697973087
4.0711833371480655
4.089646753643067
4.108110170138069
4.114264642303079
4.145037003128072
4.163500419623101
4.188118308283084
4.200427252613103
4.200427252613103
4.212736196943095
4.212736196943095
4.200427252613103
4.212736196943095
4.212736196943095
4.212736196943095
4.212736196943095
4.2065817247780855
4.212736196943095
4.2065817247780855
4.212736196943095
4.218890669108104
4.2065817247780855
4.218890669108104
4.225045141273086
4.218890669108104
4.218890669108104
4.218890669108104
4.218890669108104
4.225045141273086
4.231199613438097
4.212736196943095
4.163500419623101
4.237354085603107
4.231199613438097
4.225045141273086
4.231199613438097
4.243508557768089
4.237354085603107
4.237354085603107
4.212736196943095
4.200427252613103
4.212736196943095
4.212736196943095
4.212736196943095
4.225045141273086
4.225045141273086
4.225045141273086
4.218890669108104
4.237354085603107
4.243508557768089
4.243508557768089
4.237354085603107
4.243508557768089
4.249663029933098
4.255817502098108
4.243508557768089
4.261971974263091
4.249663029933098
4.249663029933098
4.2681264464281
4.2681264464281
4.2681264464281
4.27428091859311
4.27428091859311
4.27428091859311
4.27428091859311
4.2681264464281
4.2681264464281
4.280435390758093
4.2865898629231
4.2681264464281
4.255817502098108
4.261971974263091
4.243508557768089
4.225045141273086
4.225045141273086
4.212736196943095
4.212736196943095
4.1942727804480935
4.188118308283084
4.1942727804480935
4.181963836118102
4.169654891788083
4.163500419623101
4.151191475293081
4.145037003128072
4.151191475293081
4.157345947458091
4.151191475293081
4.151191475293081
4.151191475293081
4.151191475293081
4.151191475293081
4.145037003128072
4.145037003128072
4.163500419623101
4.157345947458091
4.151191475293081
4.157345947458091
4.163500419623101
4.163500419623101
4.157345947458091
4.157345947458091
4.157345947458091
4.163500419623101
4.163500419623101
4.1758093639530935
4.163500419623101
4.169654891788083
4.163500419623101
4.163500419623101
4.169654891788083
4.169654891788083
4.163500419623101
4.163500419623101
4.169654891788083
4.1758093639530935
4.169654891788083
4.169654891788083
4.157345947458091
4.169654891788083
4.157345947458091
4.157345947458091
4.151191475293081
4.157345947458091
4.151191475293081
4.151191475293081
4.151191475293081
4.157345947458091
4.151191475293081
4.151191475293081
4.145037003128072
4.151191475293081
4.151191475293081
4.151191475293081
4.163500419623101
4.157345947458091
4.163500419623101
4.163500419623101
4.157345947458091
4.157345947458091
4.145037003128072
4.151191475293081
4.157345947458091
4.157345947458091
4.151191475293081
4.151191475293081
4.145037003128072
4.157345947458091
4.145037003128072
4.151191475293081
4.151191475293081
4.1327280587980795
4.108110170138069
4.169654891788083
4.163500419623101
4.151191475293081
4.12657358663307
4.138882530963089
4.145037003128072
4.145037003128072
4.145037003128072
4.151191475293081
4.151191475293081
4.151191475293081
4.151191475293081
4.151191475293081
4.157345947458091
4.151191475293081
4.151191475293081
4.151191475293081
4.157345947458091
4.145037003128072
4.157345947458091
4.157345947458091
4.145037003128072
4.157345947458091
4.157345947458091
4.163500419623101
4.157345947458091
4.157345947458091
4.163500419623101
4.163500419623101
4.151191475293081
4.157345947458091
4.151191475293081
4.157345947458091
4.163500419623101
4.157345947458091
4.157345947458091
4.163500419623101
4.151191475293081
4.151191475293081
4.157345947458091
4.157345947458091
4.157345947458091
4.157345947458091
4.163500419623101
4.169654891788083
4.181963836118102
4.1758093639530935
4.1758093639530935
4.1758093639530935
4.181963836118102
4.1758093639530935
4.181963836118102
4.188118308283084
4.1942727804480935
4.188118308283084
4.181963836118102
4.181963836118102
4.188118308283084
4.1942727804480935
4.188118308283084
4.1758093639530935
4.181963836118102
4.181963836118102
4.1758093639530935
4.169654891788083
4.1758093639530935
4.169654891788083
4.169654891788083
4.169654891788083
4.163500419623101
4.169654891788083
4.1758093639530935
4.169654891788083
4.169654891788083
4.163500419623101
4.163500419623101
4.169654891788083
4.1758093639530935
4.181963836118102
4.1758093639530935
4.169654891788083
4.169654891788083
4.169654891788083
4.163500419623101
4.163500419623101
4.163500419623101
4.1758093639530935
4.2065817247780855
4.237354085603107
4.280435390758093
4.354289056738125
4.397370361893111
4.397370361893111
4.348134584573115
4.255817502098108
4.163500419623101
4.108110170138069
4.0711833371480655
4.083492281478085
4.089646753643067
4.101955697973087
4.1327280587980795
4.151191475293081
4.1758093639530935
4.145037003128072
4.145037003128072
4.2065817247780855
4.212736196943095
4.200427252613103
4.200427252613103
4.1942727804480935
4.181963836118102
4.157345947458091
4.169654891788083
4.188118308283084
4.1942727804480935
4.200427252613103
4.1942727804480935
4.200427252613103
4.1942727804480935
4.181963836118102
4.1327280587980795
4.1942727804480935
4.200427252613103
4.2065817247780855
4.212736196943095
4.2065817247780855
4.1942727804480935
4.1758093639530935
4.188118308283084
4.1942727804480935
4.1942727804480935
4.2065817247780855
4.212736196943095
4.2065817247780855
4.200427252613103
4.200427252613103
4.2065817247780855
4.200427252613103
4.2065817247780855
4.212736196943095
4.218890669108104
4.225045141273086
4.212736196943095
4.212736196943095
4.212736196943095
4.218890669108104
4.231199613438097
4.225045141273086
4.225045141273086
4.237354085603107
4.225045141273086
4.243508557768089
4.249663029933098
4.249663029933098
4.249663029933098
4.255817502098108
4.249663029933098
4.261971974263091
4.261971974263091
4.2681264464281
4.27428091859311
4.280435390758093
4.2681264464281
4.2681264464281
4.27428091859311
4.261971974263091
4.255817502098108
4.255817502098108
4.243508557768089
4.237354085603107
4.225045141273086
4.218890669108104
4.212736196943095
4.1942727804480935
4.181963836118102
4.1758093639530935
4.169654891788083
4.163500419623101
4.163500419623101
4.163500419623101
4.157345947458091
4.163500419623101
4.145037003128072
4.138882530963089
4.151191475293081
4.138882530963089
4.138882530963089
4.145037003128072
4.157345947458091
4.157345947458091
4.157345947458091
4.151191475293081
4.151191475293081
4.157345947458091
4.151191475293081
4.151191475293081
4.157345947458091
4.151191475293081
4.138882530963089
4.151191475293081
4.169654891788083
4.169654891788083
4.163500419623101
4.163500419623101
4.163500419623101
4.145037003128072
4.163500419623101
4.163500419623101
4.163500419623101
4.157345947458091
4.163500419623101
4.163500419623101
4.163500419623101
4.157345947458091
4.163500419623101
4.163500419623101
4.163500419623101
4.157345947458091
4.163500419623101
4.163500419623101
4.157345947458091
4.151191475293081
4.157345947458091
4.151191475293081
4.151191475293081
4.151191475293081
4.157345947458091
4.151191475293081
4.151191475293081
4.151191475293081
4.151191475293081
4.157345947458091
4.163500419623101
4.163500419623101
4.157345947458091
4.157345947458091
4.151191475293081
4.157345947458091
4.157345947458091
4.157345947458091
4.163500419623101
4.151191475293081
4.114264642303079
4.169654891788083
4.138882530963089
4.1327280587980795
4.157345947458091
4.163500419623101
4.163500419623101
4.163500419623101
4.1758093639530935
4.163500419623101
4.157345947458091
4.157345947458091
4.163500419623101
4.163500419623101
4.169654891788083
4.163500419623101
4.157345947458091
4.157345947458091
4.163500419623101
4.169654891788083
4.163500419623101
4.163500419623101
4.163500419623101
4.169654891788083
4.169654891788083
4.169654891788083
4.157345947458091
4.169654891788083
4.169654891788083
4.1758093639530935
4.1758093639530935
4.163500419623101
4.163500419623101
4.169654891788083
4.169654891788083
4.1758093639530935
4.169654891788083
4.169654891788083
4.163500419623101
4.1758093639530935
4.1758093639530935
4.1758093639530935
4.188118308283084
4.1758093639530935
4.1758093639530935
4.1758093639530935
4.1758093639530935
4.181963836118102
4.1758093639530935
4.169654891788083
4.1758093639530935
4.181963836118102
4.181963836118102
4.188118308283084
4.181963836118102
4.181963836118102
4.169654891788083
4.1758093639530935
4.1758093639530935
4.188118308283084
4.188118308283084
4.181963836118102
4.181963836118102
4.188118308283084
4.200427252613103
4.188118308283084
4.188118308283084
4.1942727804480935
4.188118308283084
4.200427252613103
4.2065817247780855
4.218890669108104
4.2065817247780855
4.200427252613103
4.218890669108104
4.212736196943095
4.200427252613103
4.200427252613103
4.200427252613103
4.1942727804480935
4.1942727804480935
4.200427252613103
4.188118308283084
4.188118308283084
4.1758093639530935
4.169654891788083
4.181963836118102
4.188118308283084
4.181963836118102
4.1758093639530935
4.188118308283084
4.1942727804480935
4.181963836118102
4.1758093639530935
4.1758093639530935
4.169654891788083
4.163500419623101
4.157345947458091
4.169654891788083
4.169654891788083
4.169654891788083
4.1758093639530935
4.163500419623101
4.163500419623101
4.163500419623101
4.163500419623101
4.1758093639530935
4.1942727804480935
4.231199613438097
4.27428091859311
4.335825640243124
4.391215889728128
4.421988250553122
4.385061417563119
4.298898807253093
4.1942727804480935
4.12657358663307
4.077337809313075
4.0711833371480655
4.077337809313075
4.095801225808079
4.114264642303079
4.114264642303079
4.181963836118102
4.200427252613103
4.188118308283084
4.188118308283084
4.1758093639530935
4.151191475293081
4.169654891788083
4.169654891788083
4.169654891788083
4.181963836118102
4.1758093639530935
4.181963836118102
4.1758093639530935
4.181963836118102
4.181963836118102
4.1758093639530935
4.1758093639530935
4.188118308283084
4.188118308283084
4.1942727804480935
4.181963836118102
4.1942727804480935
4.1942727804480935
4.188118308283084
4.188118308283084
4.1942727804480935
4.1942727804480935
4.181963836118102
4.188118308283084
4.1942727804480935
4.1942727804480935
4.200427252613103
4.1942727804480935
4.1942727804480935
4.188118308283084
4.188118308283084
4.188118308283084
4.188118308283084
4.1942727804480935
4.188118308283084
4.188118308283084
4.188118308283084
4.2065817247780855
4.2065817247780855
4.212736196943095
4.212736196943095
4.212736196943095
4.212736196943095
4.2065817247780855
4.218890669108104
4.225045141273086
4.212736196943095
4.163500419623101
4.237354085603107
4.249663029933098
4.249663029933098
4.243508557768089
4.243508557768089
4.255817502098108
4.237354085603107
4.231199613438097
4.243508557768089
4.249663029933098
4.243508557768089
4.237354085603107
4.231199613438097
4.231199613438097
4.225045141273086
4.212736196943095
4.200427252613103
4.188118308283084
4.181963836118102
4.169654891788083
4.163500419623101
4.151191475293081
4.138882530963089
4.145037003128072
4.138882530963089
4.1327280587980795
4.1327280587980795
4.1327280587980795
4.12657358663307
4.1327280587980795
4.12657358663307
4.12657358663307
4.12657358663307
4.114264642303079
4.114264642303079
4.12657358663307
4.1327280587980795
4.120419114468088
4.120419114468088
4.1327280587980795
4.12657358663307
4.12657358663307
4.12657358663307
4.138882530963089
4.1327280587980795
4.138882530963089
4.138882530963089
4.145037003128072
4.145037003128072
4.145037003128072
4.138882530963089
4.12657358663307
4.1327280587980795
4.1327280587980795
4.1327280587980795
4.1327280587980795
4.1327280587980795
4.138882530963089
4.1327280587980795
4.138882530963089
4.1327280587980795
4.1327280587980795
4.12657358663307
4.138882530963089
4.1327280587980795
4.138882530963089
4.138882530963089
4.12657358663307
4.083492281478085
4.101955697973087
4.120419114468088
4.12657358663307
4.12657358663307
4.1327280587980795
4.12657358663307
4.1327280587980795
4.1327280587980795
4.1327280587980795
4.12657358663307
4.1327280587980795
4.138882530963089
4.151191475293081
4.1327280587980795
4.1327280587980795
4.1327280587980795
4.145037003128072
4.145037003128072
4.138882530963089
4.145037003128072
4.145037003128072
4.138882530963089
4.138882530963089
4.1327280587980795
4.145037003128072
4.151191475293081
4.138882530963089
4.145037003128072
4.145037003128072
4.138882530963089
4.138882530963089
4.145037003128072
4.151191475293081
4.157345947458091
4.151191475293081
4.145037003128072
4.157345947458091
4.151191475293081
4.145037003128072
4.145037003128072
4.151191475293081
4.138882530963089
4.151191475293081
4.157345947458091
4.151191475293081
4.151191475293081
4.151191475293081
4.138882530963089
4.163500419623101
4.163500419623101
4.157345947458091
4.157345947458091
4.151191475293081
4.163500419623101
4.151191475293081
4.151191475293081
4.157345947458091
4.169654891788083
4.163500419623101
4.157345947458091
4.157345947458091
4.157345947458091
4.145037003128072
4.151191475293081
4.151191475293081
4.151191475293081
4.151191475293081
4.151191475293081
4.157345947458091
4.157345947458091
4.157345947458091
4.151191475293081
4.151191475293081
4.151191475293081
4.151191475293081
4.157345947458091
4.151191475293081
4.151191475293081
4.151191475293081
4.157345947458091
4.151191475293081
4.151191475293081
4.151191475293081
4.157345947458091
4.145037003128072
4.145037003128072
4.151191475293081
4.157345947458091
4.157345947458091
4.157345947458091
4.157345947458091
4.151191475293081
4.163500419623101
4.1758093639530935
4.1758093639530935
4.1758093639530935
4.1758093639530935
4.1758093639530935
4.169654891788083
4.169654891788083
4.1758093639530935
4.1758093639530935
4.163500419623101
4.163500419623101
4.157345947458091
4.151191475293081
4.145037003128072
4.157345947458091
4.151191475293081
4.145037003128072
4.145037003128072
4.151191475293081
4.157345947458091
4.163500419623101
4.157345947458091
4.151191475293081
4.157345947458091
4.151191475293081
4.151191475293081
4.151191475293081
4.151191475293081
4.108110170138069
4.163500419623101
4.163500419623101
4.169654891788083
4.151191475293081
4.1327280587980795
4.145037003128072
4.151191475293081
4.1758093639530935
4.200427252613103
4.225045141273086
4.27428091859311
4.341980112408105
4.391215889728128
4.391215889728128
4.3173622237481215
4.225045141273086
4.145037003128072
4.089646753643067
4.058874392818074
4.058874392818074
4.083492281478085
4.095801225808079
4.120419114468088
4.138882530963089
4.151191475293081
4.1758093639530935
4.181963836118102
4.188118308283084
4.181963836118102
4.181963836118102
4.188118308283084
4.181963836118102
4.188118308283084
4.1942727804480935
4.181963836118102
4.188118308283084
4.1942727804480935
4.200427252613103
4.200427252613103
4.200427252613103
4.200427252613103
4.188118308283084
4.188118308283084
4.200427252613103
4.2065817247780855
4.2065817247780855
4.200427252613103
4.1942727804480935
4.1942727804480935
4.2065817247780855
4.200427252613103
4.200427252613103
4.218890669108104
4.212736196943095
4.218890669108104
4.225045141273086
4.218890669108104
4.212736196943095
4.2065817247780855
4.212736196943095
4.225045141273086
4.218890669108104
4.212736196943095
4.225045141273086
4.225045141273086
4.231199613438097
4.231199613438097
4.237354085603107
4.237354085603107
4.225045141273086
4.225045141273086
4.231199613438097
4.243508557768089
4.255817502098108
4.255817502098108
4.255817502098108
4.261971974263091
4.255817502098108
4.261971974263091
4.27428091859311
4.280435390758093
4.280435390758093
4.280435390758093
4.2865898629231
4.292744335088111
4.292744335088111
4.280435390758093
4.280435390758093
4.280435390758093
4.261971974263091
4.249663029933098
4.255817502098108
4.249663029933098
4.237354085603107
4.231199613438097
4.212736196943095
4.200427252613103
4.188118308283084
4.188118308283084
4.169654891788083
4.1758093639530935
4.188118308283084
4.188118308283084
4.169654891788083
4.163500419623101
4.163500419623101
4.169654891788083
4.1758093639530935
4.1758093639530935
4.1758093639530935
4.169654891788083
4.169654891788083
4.188118308283084
4.1758093639530935
4.169654891788083
4.169654891788083
4.1758093639530935
4.1758093639530935
4.181963836118102
4.181963836118102
4.157345947458091
4.089646753643067
4.120419114468088
4.1758093639530935
4.181963836118102
4.181963836118102
4.188118308283084
4.200427252613103
4.200427252613103
4.163500419623101
4.163500419623101
4.181963836118102
4.181963836118102
4.1758093639530935
4.181963836118102
4.181963836118102
4.188118308283084
4.181963836118102
4.181963836118102
4.1758093639530935
4.1758093639530935
4.181963836118102
4.188118308283084
4.188118308283084
4.181963836118102
4.181963836118102
4.188118308283084
4.1758093639530935
4.181963836118102
4.188118308283084
4.1942727804480935
4.188118308283084
4.181963836118102
4.188118308283084
4.181963836118102
4.181963836118102
4.1942727804480935
4.188118308283084
4.188118308283084
4.188118308283084
4.188118308283084
4.1942727804480935
4.1942727804480935
4.188118308283084
4.1942727804480935
4.188118308283084
4.188118308283084
4.1758093639530935
4.169654891788083
4.181963836118102
4.188118308283084
4.1758093639530935
4.1942727804480935
4.188118308283084
4.181963836118102
4.163500419623101
4.181963836118102
4.1942727804480935
4.1942727804480935
4.188118308283084
4.1758093639530935
4.169654891788083
4.1758093639530935
4.188118308283084
4.181963836118102
4.181963836118102
4.169654891788083
4.169654891788083
4.188118308283084
4.1758093639530935
4.1758093639530935
4.169654891788083
4.1758093639530935
4.188118308283084
4.181963836118102
4.181963836118102
4.1758093639530935
4.1758093639530935
4.1758093639530935
4.169654891788083
4.169654891788083
4.169654891788083
4.169654891788083
4.181963836118102
4.181963836118102
4.181963836118102
4.1758093639530935
4.1758093639530935
4.181963836118102
4.1758093639530935
4.181963836118102
4.1758093639530935
4.169654891788083
4.169654891788083
4.169654891788083
4.181963836118102
4.181963836118102
4.188118308283084
4.1758093639530935
4.169654891788083
4.1758093639530935
4.169654891788083
4.181963836118102
4.1942727804480935
4.188118308283084
4.188118308283084
4.188118308283084
4.1942727804480935
4.181963836118102
4.1758093639530935
4.1758093639530935
4.200427252613103
4.1942727804480935
4.1942727804480935
4.200427252613103
4.188118308283084
4.188118308283084
4.1942727804480935
4.181963836118102
4.188118308283084
4.188118308283084
4.181963836118102
4.1758093639530935
4.138882530963089
4.181963836118102
4.169654891788083
4.151191475293081
4.145037003128072
4.163500419623101
4.169654891788083
4.163500419623101
4.163500419623101
4.163500419623101
4.163500419623101
4.151191475293081
4.163500419623101
4.157345947458091
4.163500419623101
4.169654891788083
4.157345947458091
4.157345947458091
4.163500419623101
4.163500419623101
4.163500419623101
4.157345947458091
4.151191475293081
4.151191475293081
4.169654891788083
4.188118308283084
4.2065817247780855
4.249663029933098
4.3173622237481215
4.37890694539811
4.391215889728128
4.37890694539811
4.2865898629231
4.1942727804480935
4.1327280587980795
4.0711833371480655
4.065028864983084
4.077337809313075
4.095801225808079
4.108110170138069
4.145037003128072
4.163500419623101
4.169654891788083
4.1758093639530935
4.1758093639530935
4.169654891788083
4.1758093639530935
4.169654891788083
4.169654891788083
4.181963836118102
4.181963836118102
4.181963836118102
4.181963836118102
4.188118308283084
4.188118308283084
4.188118308283084
4.1758093639530935
4.1758093639530935
4.1758093639530935
4.181963836118102
4.1758093639530935
4.181963836118102
4.1942727804480935
4.181963836118102
4.188118308283084
4.188118308283084
4.181963836118102
4.188118308283084
4.200427252613103
4.1942727804480935
4.1942727804480935
4.188118308283084
4.1942727804480935
4.200427252613103
4.200427252613103
4.2065817247780855
4.1942727804480935
4.1942727804480935
4.1942727804480935
4.200427252613103
4.200427252613103
4.200427252613103
4.200427252613103
4.200427252613103
4.2065817247780855
4.2065817247780855
4.1942727804480935
4.1942727804480935
4.212736196943095
4.218890669108104
4.225045141273086
4.237354085603107
4.237354085603107
4.231199613438097
4.249663029933098
4.243508557768089
4.237354085603107
4.237354085603107
4.249663029933098
4.255817502098108
4.249663029933098
4.249663029933098
4.255817502098108
4.255817502098108
4.255817502098108
4.243508557768089
4.249663029933098
4.237354085603107
4.237354085603107
4.225045141273086
4.218890669108104
4.212736196943095
4.200427252613103
4.200427252613103
4.188118308283084
4.1758093639530935
4.157345947458091
4.157345947458091
4.169654891788083
4.169654891788083
4.157345947458091
4.145037003128072
4.108110170138069
4.169654891788083
4.169654891788083
4.163500419623101
4.163500419623101
4.157345947458091
4.145037003128072
4.138882530963089
4.145037003128072
4.157345947458091
4.151191475293081
4.157345947458091
4.163500419623101
4.169654891788083
4.163500419623101
4.169654891788083
4.169654891788083
4.169654891788083
4.163500419623101
4.169654891788083
4.157345947458091
4.163500419623101
4.157345947458091
4.169654891788083
4.1758093639530935
4.188118308283084
4.169654891788083
4.169654891788083
4.181963836118102
4.181963836118102
4.169654891788083
4.169654891788083
4.1758093639530935
4.181963836118102
4.1758093639530935
4.169654891788083
4.169654891788083
4.181963836118102
4.1758093639530935
4.181963836118102
4.181963836118102
4.1758093639530935
4.181963836118102
4.181963836118102
4.1758093639530935
4.188118308283084
4.188118308283084
4.181963836118102
4.181963836118102
4.181963836118102
4.188118308283084
4.188118308283084
4.188118308283084
4.188118308283084
4.1942727804480935
4.188118308283084
4.188118308283084
4.1942727804480935
4.1942727804480935
4.1942727804480935
4.181963836118102
4.188118308283084
4.188118308283084
4.200427252613103
4.2065817247780855
4.200427252613103
4.1942727804480935
4.1942727804480935
4.188118308283084
4.1327280587980795
4.188118308283084
4.225045141273086
4.231199613438097
4.231199613438097
4.225045141273086
4.218890669108104
4.218890669108104
4.1942727804480935
4.2065817247780855
4.218890669108104
4.218890669108104
4.237354085603107
4.243508557768089
4.243508557768089
4.237354085603107
4.231199613438097
4.249663029933098
4.249663029933098
4.255817502098108
4.249663029933098
4.231199613438097
4.225045141273086
4.218890669108104
4.218890669108104
4.225045141273086
4.231199613438097
4.237354085603107
4.243508557768089
4.249663029933098
4.261971974263091
4.261971974263091
4.255817502098108
4.249663029933098
4.243508557768089
4.243508557768089
4.243508557768089
4.237354085603107
4.237354085603107
4.225045141273086
4.218890669108104
4.225045141273086
4.231199613438097
4.237354085603107
4.225045141273086
4.231199613438097
4.218890669108104
4.212736196943095
4.218890669108104
4.218890669108104
4.218890669108104
4.218890669108104
4.2065817247780855
4.157345947458091
4.212736196943095
4.200427252613103
4.200427252613103
4.200427252613103
4.2065817247780855
4.212736196943095
4.225045141273086
4.218890669108104
4.2065817247780855
4.200427252613103
4.218890669108104
4.231199613438097
4.231199613438097
4.237354085603107
4.231199613438097
4.231199613438097
4.218890669108104
4.212736196943095
4.225045141273086
4.231199613438097
4.218890669108104
4.2065817247780855
4.212736196943095
4.2065817247780855
4.188118308283084
4.181963836118102
4.188118308283084
4.188118308283084
4.1942727804480935
4.188118308283084
4.188118308283084
4.188118308283084
4.181963836118102
4.181963836118102
4.200427252613103
4.188118308283084
4.181963836118102
4.1758093639530935
4.181963836118102
4.181963836118102
4.181963836118102
4.188118308283084
4.188118308283084
4.181963836118102
4.1758093639530935
4.298898807253093
4.7297118588031655
5.714427405203311
5.960606291803339
5.788281071183316
6.052923374278346
6.422191704178459
6.311411205208422
5.862134737163322
5.412858269118276
5.098980188703223
4.883573662928187
4.723557386638154
4.618931359833156
4.563541110348153
4.5327687495231315
4.501996388698137
4.495841916533129
4.495841916533129
4.458915083543125
4.440451667048122
4.40967930622313
4.385061417563119
4.366598001068117
4.348134584573115
4.335825640243124
4.3173622237481215
4.3112077515831135
4.2865898629231
4.2865898629231
4.2681264464281
4.261971974263091
4.261971974263091
4.243508557768089
4.231199613438097
4.225045141273086
4.225045141273086
4.212736196943095
4.212736196943095
4.2065817247780855
4.2065817247780855
4.200427252613103
4.188118308283084
4.188118308283084
4.181963836118102
4.163500419623101
4.169654891788083
4.188118308283084
4.188118308283084
4.181963836118102
4.1758093639530935
4.169654891788083
4.1758093639530935
4.163500419623101
4.157345947458091
4.163500419623101
4.157345947458091
4.157345947458091
4.157345947458091
4.169654891788083
4.1758093639530935
4.169654891788083
4.169654891788083
4.169654891788083
4.169654891788083
4.163500419623101
4.1758093639530935
4.181963836118102
4.1758093639530935
4.181963836118102
4.181963836118102
4.188118308283084
4.188118308283084
4.181963836118102
4.181963836118102
4.188118308283084
4.157345947458091
4.212736196943095
4.212736196943095
4.2065817247780855
4.212736196943095
4.188118308283084
4.1758093639530935
4.181963836118102
4.181963836118102
4.181963836118102
4.169654891788083
4.151191475293081
4.138882530963089
4.1327280587980795
4.12657358663307
4.120419114468088
4.120419114468088
4.108110170138069
4.108110170138069
4.095801225808079
4.083492281478085
4.0711833371480655
4.083492281478085
4.089646753643067
4.089646753643067
4.077337809313075
4.077337809313075
4.083492281478085
4.083492281478085
4.077337809313075
4.077337809313075
4.083492281478085
4.077337809313075
4.083492281478085
4.083492281478085
4.083492281478085
4.077337809313075
4.077337809313075
4.083492281478085
4.089646753643067
4.083492281478085
4.077337809313075
4.083492281478085
4.089646753643067
4.083492281478085
4.083492281478085
4.089646753643067
4.095801225808079
4.095801225808079
4.083492281478085
4.077337809313075
4.083492281478085
4.095801225808079
4.095801225808079
4.089646753643067
4.095801225808079
4.101955697973087
4.089646753643067
4.095801225808079
4.095801225808079
4.089646753643067
4.095801225808079
4.101955697973087
4.101955697973087
4.108110170138069
4.108110170138069
4.101955697973087
4.101955697973087
4.089646753643067
4.095801225808079
4.095801225808079
4.095801225808079
4.089646753643067
4.101955697973087
4.095801225808079
4.101955697973087
4.095801225808079
4.108110170138069
4.114264642303079
4.108110170138069
4.095801225808079
4.108110170138069
4.108110170138069
4.114264642303079
4.108110170138069
4.108110170138069
4.114264642303079
4.108110170138069
4.108110170138069
4.108110170138069
4.114264642303079
4.12657358663307
4.120419114468088
4.114264642303079
4.108110170138069
4.12657358663307
4.12657358663307
4.12657358663307
4.120419114468088
4.114264642303079
4.12657358663307
4.120419114468088
4.12657358663307
4.120419114468088
4.1327280587980795
4.1327280587980795
4.120419114468088
4.120419114468088
4.1327280587980795
4.138882530963089
4.145037003128072
4.157345947458091
4.169654891788083
4.2865898629231
4.705093970143154
5.123598077363234
5.375931436128245
5.714427405203311
5.9421428753083365
5.8559802649983395
5.560565601078289
5.289768825818246
5.086671244373231
5.092825716538213
5.105134660868233
4.93896391241319
4.803565524783171
4.705093970143154
4.637394776328158
4.575850054678144
4.5327687495231315
4.483532972203136
4.440451667048122
4.40967930622313
4.391215889728128
4.360443528903107
4.329671168078114
4.3112077515831135
4.2681264464281
4.255817502098108
4.298898807253093
4.280435390758093
4.261971974263091
4.243508557768089
4.231199613438097
4.218890669108104
4.188118308283084
4.169654891788083
4.169654891788083
4.181963836118102
4.181963836118102
4.163500419623101
4.157345947458091
4.163500419623101
4.163500419623101
4.157345947458091
4.157345947458091
4.163500419623101
4.151191475293081
4.157345947458091
4.151191475293081
4.1327280587980795
4.120419114468088
4.1327280587980795
4.12657358663307
4.120419114468088
4.120419114468088
4.120419114468088
4.114264642303079
4.108110170138069
4.101955697973087
4.095801225808079
4.089646753643067
4.077337809313075
4.077337809313075
4.077337809313075
4.083492281478085
4.077337809313075
4.0711833371480655
4.0711833371480655
4.052719920653064
4.077337809313075
4.083492281478085
4.089646753643067
4.077337809313075
4.065028864983084
4.065028864983084
4.077337809313075
4.065028864983084
4.052719920653064
4.065028864983084
4.083492281478085
4.114264642303079
4.151191475293081
4.218890669108104
4.27428091859311
4.292744335088111
4.2681264464281
4.1758093639530935
4.083492281478085
4.021947559828071
3.9665573103430645
3.9604028381780574
3.9604028381780574
3.9604028381780574
3.9665573103430645
4.003484143333068
4.040410976323072
4.058874392818074
4.058874392818074
4.058874392818074
4.0711833371480655
4.0711833371480655
4.065028864983084
4.058874392818074
4.058874392818074
4.058874392818074
4.0711833371480655
4.077337809313075
4.0711833371480655
4.077337809313075
4.083492281478085
4.077337809313075
4.077337809313075
4.065028864983084
4.077337809313075
4.0711833371480655
4.083492281478085
4.083492281478085
4.089646753643067
4.083492281478085
4.089646753643067
4.083492281478085
4.083492281478085
4.077337809313075
4.077337809313075
4.095801225808079
4.095801225808079
4.089646753643067
4.095801225808079
4.095801225808079
4.108110170138069
4.108110170138069
4.101955697973087
4.065028864983084
4.114264642303079
4.12657358663307
4.120419114468088
4.095801225808079
4.108110170138069
4.114264642303079
4.12657358663307
4.12657358663307
4.12657358663307
4.138882530963089
4.157345947458091
4.151191475293081
4.151191475293081
4.145037003128072
4.157345947458091
4.163500419623101
4.169654891788083
4.169654891788083
4.1758093639530935
4.1758093639530935
4.181963836118102
4.1758093639530935
4.188118308283084
4.2065817247780855
4.2065817247780855
4.1942727804480935
4.188118308283084
4.181963836118102
4.188118308283084
4.169654891788083
4.157345947458091
4.145037003128072
4.151191475293081
4.157345947458091
4.2065817247780855
4.501996388698137
5.203606215508222
5.9421428753083365
6.194476234073376
6.231403067063379
6.231403067063379
6.219094122733385
6.2252485948983685
6.212939650568378
6.194476234073376
6.176012817578375
6.163703873248383
6.139085984588371
6.120622568093371
6.09600467943336
6.065232318608365
6.059077846443356
6.034459957783346
6.0036875969583505
5.97906970829834
5.960606291803339
5.948297347473347
5.8805981536583225
5.597492434068291
5.265150937158236
5.080516772208221
4.945118384578201
4.840492357773174
4.754329747463175
4.68047608148317
4.6004679433381535
4.54507769385315
4.495841916533129
4.446606139213133
4.40967930622313
4.3727524732331275
4.341980112408105
4.298898807253093
4.261971974263091
4.243508557768089
4.212736196943095
4.188118308283084
4.169654891788083
4.151191475293081
4.12657358663307
4.101955697973087
4.089646753643067
4.077337809313075
4.052719920653064
4.0465654484880815
4.040410976323072
4.028102031993082
4.003484143333068
3.9973296711680604
3.9788662546730578
3.9665573103430645
3.9542483660130467
3.948093893848065
3.9419394216830552
3.9357849495180455
3.9296304773530633
3.9296304773530633
3.9173215330230438
3.9111670608580615
3.905012588693053
3.905012588693053
3.905012588693053
3.886549172198051
3.8803947000330408
3.8927036443630603
3.8927036443630603
3.8927036443630603
3.8803947000330408
3.874240227868059
3.874240227868059
3.874240227868059
3.874240227868059
3.855776811373057
3.8619312835380395
3.855776811373057
3.855776811373057
3.855776811373057
3.855776811373057
3.855776811373057
3.8619312835380395
3.843467867043037
3.8126955062180454
3.8619312835380395
3.855776811373057
3.855776811373057
3.8619312835380395
3.8619312835380395
3.843467867043037
3.825004450548036
3.837313394878028
3.843467867043037
3.855776811373057
3.855776811373057
3.8496223392080475
3.855776811373057
3.855776811373057
3.8496223392080475
3.8619312835380395
3.855776811373057
3.855776811373057
3.855776811373057
3.8619312835380395
3.8619312835380395
3.8680857557030492
3.874240227868059
3.874240227868059
3.8803947000330408
3.874240227868059
3.874240227868059
3.874240227868059
3.874240227868059
3.8803947000330408
3.874240227868059
3.8803947000330408
3.886549172198051
3.886549172198051
3.8803947000330408
3.8927036443630603
3.886549172198051
3.8988581165280416
3.8988581165280416
3.9111670608580615
3.9111670608580615
3.9111670608580615
3.9111670608580615
3.905012588693053
3.9111670608580615
3.9296304773530633
3.9296304773530633
3.9357849495180455
3.9357849495180455
3.9419394216830552
3.9357849495180455
3.9296304773530633
3.9357849495180455
3.9296304773530633
3.9357849495180455
3.9296304773530633
3.9234760051880535
3.9234760051880535
3.9357849495180455
3.9357849495180455
3.9234760051880535
3.9173215330230438
3.9234760051880535
3.9419394216830552
3.9357849495180455
3.9419394216830552
3.9542483660130467
3.9542483660130467
3.9542483660130467
3.948093893848065
3.9542483660130467
3.9604028381780574
3.9665573103430645
3.9665573103430645
3.9665573103430645
3.9727117825080467
3.9727117825080467
3.9665573103430645
3.9665573103430645
3.9788662546730578
3.9911751990030497
4.028102031993082
4.052719920653064
4.108110170138069
4.145037003128072
4.138882530963089
4.188118308283084
4.1327280587980795
4.0465654484880815
3.9604028381780574
3.905012588693053
3.8988581165280416
3.8927036443630603
3.886549172198051
3.9296304773530633
3.9727117825080467
3.9850207268380675
4.009638615498079
4.021947559828071
4.015793087663061
4.009638615498079
4.015793087663061
4.015793087663061
4.015793087663061
4.028102031993082
4.028102031993082
4.015793087663061
4.015793087663061
4.021947559828071
4.040410976323072
4.040410976323072
4.0465654484880815
4.040410976323072
4.040410976323072
4.052719920653064
4.0465654484880815
4.0465654484880815
4.058874392818074
4.058874392818074
4.058874392818074
4.065028864983084
4.021947559828071
4.0711833371480655
4.0711833371480655
4.0465654484880815
4.0711833371480655
4.083492281478085
4.077337809313075
4.083492281478085
4.083492281478085
4.077337809313075
4.083492281478085
4.095801225808079
4.095801225808079
4.101955697973087
4.095801225808079
4.101955697973087
4.101955697973087
4.101955697973087
4.095801225808079
4.120419114468088
4.114264642303079
4.114264642303079
4.120419114468088
4.12657358663307
4.1327280587980795
4.12657358663307
4.1327280587980795
4.138882530963089
4.145037003128072
4.145037003128072
4.157345947458091
4.157345947458091
4.157345947458091
4.163500419623101
4.1758093639530935
4.1758093639530935
4.181963836118102
4.181963836118102
4.1758093639530935
4.1758093639530935
4.169654891788083
4.157345947458091
4.157345947458091
4.145037003128072
4.145037003128072
4.138882530963089
4.120419114468088
4.114264642303079
4.108110170138069
4.095801225808079
4.083492281478085
4.0711833371480655
4.0711833371480655
4.083492281478085
4.083492281478085
4.0711833371480655
4.077337809313075
4.0711833371480655
4.065028864983084
4.0711833371480655
4.058874392818074
4.065028864983084
4.0711833371480655
4.0711833371480655
4.0711833371480655
4.077337809313075
4.077337809313075
4.089646753643067
4.089646753643067
4.089646753643067
4.077337809313075
4.083492281478085
4.083492281478085
4.0711833371480655
4.0711833371480655
4.0711833371480655
4.077337809313075
4.083492281478085
4.083492281478085
4.083492281478085
4.083492281478085
4.077337809313075
4.083492281478085
4.083492281478085
4.083492281478085
4.083492281478085
4.089646753643067
4.083492281478085
4.083492281478085
4.077337809313075
4.083492281478085
4.089646753643067
4.089646753643067
4.083492281478085
4.089646753643067
4.089646753643067
4.083492281478085
4.089646753643067
4.089646753643067
4.095801225808079
4.083492281478085
4.083492281478085
4.089646753643067
4.089646753643067
4.077337809313075
4.083492281478085
4.095801225808079
4.101955697973087
4.095801225808079
4.095801225808079
4.095801225808079
4.095801225808079
4.083492281478085
4.077337809313075
4.089646753643067
4.095801225808079
4.095801225808079
4.089646753643067
4.089646753643067
4.089646753643067
4.089646753643067
4.065028864983084
4.028102031993082
4.095801225808079
4.114264642303079
4.114264642303079
4.101955697973087
4.095801225808079
4.0711833371480655
4.0711833371480655
4.095801225808079
4.101955697973087
4.095801225808079
4.095801225808079
4.089646753643067
4.083492281478085
4.095801225808079
4.095801225808079
4.101955697973087
4.108110170138069
4.108110170138069
4.108110170138069
4.108110170138069
4.095801225808079
4.095801225808079
4.101955697973087
4.095801225808079
4.095801225808079
4.101955697973087
4.108110170138069
4.101955697973087
4.108110170138069
4.101955697973087
4.095801225808079
4.108110170138069
4.114264642303079
4.108110170138069
4.101955697973087
4.101955697973087
4.095801225808079
4.095801225808079
4.108110170138069
4.108110170138069
4.114264642303079
4.108110170138069
4.114264642303079
4.101955697973087
4.101955697973087
4.108110170138069
4.120419114468088
4.12657358663307
4.120419114468088
4.114264642303079
4.12657358663307
4.12657358663307
4.12657358663307
4.12657358663307
4.1327280587980795
4.1327280587980795
4.138882530963089
4.138882530963089
4.145037003128072
4.145037003128072
4.138882530963089
4.1327280587980795
4.12657358663307
4.1327280587980795
4.138882530963089
4.138882530963089
4.1327280587980795
4.138882530963089
4.1327280587980795
4.12657358663307
4.12657358663307
4.114264642303079
4.12657358663307
4.12657358663307
4.120419114468088
4.114264642303079
4.120419114468088
4.138882530963089
4.1327280587980795
4.1327280587980795
4.138882530963089
4.138882530963089
4.1327280587980795
4.12657358663307
4.1327280587980795
4.1327280587980795
4.1327280587980795
4.120419114468088
4.12657358663307
4.138882530963089
4.157345947458091
4.181963836118102
4.225045141273086
4.280435390758093
4.323516695913104
4.354289056738125
4.323516695913104
4.237354085603107
4.138882530963089
4.077337809313075
4.034256504158063
4.034256504158063
4.0465654484880815
4.065028864983084
4.083492281478085
4.108110170138069
4.12657358663307
4.12657358663307
4.138882530963089
4.157345947458091
4.157345947458091
4.157345947458091
4.157345947458091
4.157345947458091
4.157345947458091
4.151191475293081
4.157345947458091
4.1758093639530935
4.181963836118102
4.181963836118102
4.157345947458091
4.120419114468088
4.169654891788083
4.157345947458091
4.163500419623101
4.181963836118102
4.1758093639530935
4.169654891788083
4.188118308283084
4.1758093639530935
4.181963836118102
4.200427252613103
4.1942727804480935
4.1942727804480935
4.1942727804480935
4.200427252613103
4.1942727804480935
4.188118308283084
4.1758093639530935
4.188118308283084
4.200427252613103
4.200427252613103
4.2065817247780855
4.200427252613103
4.1942727804480935
4.188118308283084
4.1942727804480935
4.200427252613103
4.2065817247780855
4.2065817247780855
4.2065817247780855
4.2065817247780855
4.218890669108104
4.212736196943095
4.169654891788083
4.218890669108104
4.243508557768089
4.243508557768089
4.243508557768089
4.237354085603107
4.249663029933098
4.237354085603107
4.225045141273086
4.237354085603107
4.249663029933098
4.255817502098108
4.261971974263091
4.2681264464281
4.255817502098108
4.249663029933098
4.243508557768089
4.243508557768089
4.243508557768089
4.243508557768089
4.231199613438097
4.218890669108104
4.212736196943095
4.212736196943095
4.1942727804480935
4.1942727804480935
4.181963836118102
4.169654891788083
4.157345947458091
4.163500419623101
4.169654891788083
4.169654891788083
4.157345947458091
4.163500419623101
4.157345947458091
4.157345947458091
4.151191475293081
4.157345947458091
4.151191475293081
4.151191475293081
4.151191475293081
4.157345947458091
4.169654891788083
4.169654891788083
4.169654891788083
4.163500419623101
4.163500419623101
4.163500419623101
4.1758093639530935
4.181963836118102
4.169654891788083
4.163500419623101
4.163500419623101
4.1758093639530935
4.169654891788083
4.169654891788083
4.163500419623101
4.163500419623101
4.1758093639530935
4.181963836118102
4.1758093639530935
4.181963836118102
4.188118308283084
4.181963836118102
4.188118308283084
4.188118308283084
4.1758093639530935
4.1758093639530935
4.169654891788083
4.163500419623101
4.163500419623101
4.169654891788083
4.1758093639530935
4.1758093639530935
4.1758093639530935
4.181963836118102
4.1758093639530935
4.181963836118102
4.169654891788083
4.169654891788083
4.157345947458091
4.169654891788083
4.1758093639530935
4.1942727804480935
4.188118308283084
4.1758093639530935
4.169654891788083
4.169654891788083
4.169654891788083
4.12657358663307
4.1942727804480935
4.1942727804480935
4.1942727804480935
4.181963836118102
4.151191475293081
4.157345947458091
4.169654891788083
4.1758093639530935
4.163500419623101
4.169654891788083
4.188118308283084
4.181963836118102
4.181963836118102
4.188118308283084
4.181963836118102
4.1758093639530935
4.181963836118102
4.181963836118102
4.181963836118102
4.181963836118102
4.188118308283084
4.181963836118102
4.1758093639530935
4.169654891788083
4.169654891788083
4.188118308283084
4.1942727804480935
4.1942727804480935
4.181963836118102
4.181963836118102
4.1758093639530935
4.1758093639530935
4.181963836118102
4.188118308283084
4.181963836118102
4.181963836118102
4.181963836118102
4.1758093639530935
4.181963836118102
4.181963836118102
4.1758093639530935
4.1758093639530935
4.169654891788083
4.169654891788083
4.163500419623101
4.1758093639530935
4.1758093639530935
4.181963836118102
4.181963836118102
4.1942727804480935
4.181963836118102
4.181963836118102
4.1942727804480935
4.181963836118102
4.188118308283084
4.181963836118102
4.188118308283084
4.188118308283084
4.1942727804480935
4.188118308283084
4.200427252613103
4.2065817247780855
4.188118308283084
4.188118308283084
4.188118308283084
4.181963836118102
4.1758093639530935
4.169654891788083
4.1758093639530935
4.169654891788083
4.169654891788083
4.169654891788083
4.169654891788083
4.163500419623101
4.169654891788083
4.163500419623101
4.169654891788083
4.157345947458091
4.163500419623101
4.163500419623101
4.169654891788083
4.163500419623101
4.163500419623101
4.169654891788083
4.169654891788083
4.163500419623101
4.163500419623101
4.157345947458091
4.163500419623101
4.163500419623101
4.163500419623101
4.200427252613103
4.237354085603107
4.27428091859311
4.329671168078114
4.366598001068117
4.360443528903107
4.305053279418103
4.218890669108104
4.145037003128072
4.089646753643067
4.0711833371480655
4.077337809313075
4.083492281478085
4.089646753643067
4.101955697973087
4.114264642303079
4.151191475293081
4.169654891788083
4.163500419623101
4.163500419623101
4.1758093639530935
4.169654891788083
4.169654891788083
4.163500419623101
4.163500419623101
4.181963836118102
4.1758093639530935
4.157345947458091
4.163500419623101
4.145037003128072
4.114264642303079
4.188118308283084
4.181963836118102
4.169654891788083
4.1758093639530935
4.188118308283084
4.188118308283084
4.1758093639530935
4.157345947458091
4.169654891788083
4.181963836118102
4.1758093639530935
4.169654891788083
4.1758093639530935
4.188118308283084
4.188118308283084
4.188118308283084
4.181963836118102
4.1942727804480935
4.1942727804480935
4.1942727804480935
4.188118308283084
4.188118308283084
4.1942727804480935
4.1942727804480935
4.2065817247780855
4.2065817247780855
4.212736196943095
4.212736196943095
4.212736196943095
4.218890669108104
4.212736196943095
4.218890669108104
4.225045141273086
4.225045141273086
4.231199613438097
4.231199613438097
4.231199613438097
4.243508557768089
4.237354085603107
4.249663029933098
4.255817502098108
4.243508557768089
4.231199613438097
4.237354085603107
4.27428091859311
4.280435390758093
4.261971974263091
4.261971974263091
4.2681264464281
4.261971974263091
4.249663029933098
4.237354085603107
4.225045141273086
4.231199613438097
4.212736196943095
4.2065817247780855
4.2065817247780855
4.200427252613103
4.181963836118102
4.1758093639530935
4.157345947458091
4.157345947458091
4.151191475293081
4.157345947458091
4.145037003128072
4.1327280587980795
4.138882530963089
4.145037003128072
4.151191475293081
4.163500419623101
4.151191475293081
4.151191475293081
4.157345947458091
4.163500419623101
4.157345947458091
4.157345947458091
4.151191475293081
4.145037003128072
4.138882530963089
4.145037003128072
4.151191475293081
4.163500419623101
4.157345947458091
4.163500419623101
4.151191475293081
4.151191475293081
4.145037003128072
4.163500419623101
4.157345947458091
4.151191475293081
4.157345947458091
4.151191475293081
4.145037003128072
4.151191475293081
4.151191475293081
4.151191475293081
4.151191475293081
4.157345947458091
4.145037003128072
4.145037003128072
4.151191475293081
4.114264642303079
4.138882530963089
4.157345947458091
4.157345947458091
4.163500419623101
4.163500419623101
4.157345947458091
4.151191475293081
4.120419114468088
4.120419114468088
4.1327280587980795
4.145037003128072
4.151191475293081
4.145037003128072
4.157345947458091
4.151191475293081
4.138882530963089
4.157345947458091
4.157345947458091
4.145037003128072
4.095801225808079
4.163500419623101
4.163500419623101
4.145037003128072
4.1327280587980795
4.157345947458091
4.157345947458091
4.145037003128072
4.145037003128072
4.169654891788083
4.1758093639530935
4.157345947458091
4.157345947458091
4.157345947458091
4.163500419623101
4.157345947458091
4.163500419623101
4.169654891788083
4.169654891788083
4.151191475293081
4.157345947458091
4.163500419623101
4.169654891788083
4.169654891788083
4.1758093639530935
4.163500419623101
4.169654891788083
4.163500419623101
4.163500419623101
4.163500419623101
4.163500419623101
4.157345947458091
4.163500419623101
4.169654891788083
4.157345947458091
4.151191475293081
4.163500419623101
4.1758093639530935
4.1758093639530935
4.188118308283084
4.181963836118102
4.188118308283084
4.1758093639530935
4.169654891788083
4.181963836118102
4.1758093639530935
4.181963836118102
4.181963836118102
4.169654891788083
4.1758093639530935
4.1758093639530935
4.188118308283084
4.1942727804480935
4.200427252613103
4.200427252613103
4.200427252613103
4.200427252613103
4.2065817247780855
4.2065817247780855
4.200427252613103
4.2065817247780855
4.200427252613103
4.2065817247780855
4.200427252613103
4.2065817247780855
4.200427252613103
4.188118308283084
4.1942727804480935
4.200427252613103
4.188118308283084
4.188118308283084
4.1758093639530935
4.1758093639530935
4.188118308283084
4.181963836118102
4.169654891788083
4.1758093639530935
4.181963836118102
4.188118308283084
4.188118308283084
4.181963836118102
4.1758093639530935
4.1758093639530935
4.1942727804480935
4.188118308283084
4.181963836118102
4.181963836118102
4.181963836118102
4.181963836118102
4.1758093639530935
4.169654891788083
4.188118308283084
4.212736196943095
4.249663029933098
4.298898807253093
4.360443528903107
4.391215889728128
4.40352483405812
4.348134584573115
4.249663029933098
4.169654891788083
4.114264642303079
4.083492281478085
4.083492281478085
4.095801225808079
4.120419114468088
4.145037003128072
4.1758093639530935
4.188118308283084
4.200427252613103
4.1942727804480935
4.200427252613103
4.188118308283084
4.188118308283084
4.1942727804480935
4.1942727804480935
4.1942727804480935
4.200427252613103
4.200427252613103
4.1942727804480935
4.1942727804480935
4.1758093639530935
4.12657358663307
4.2065817247780855
4.225045141273086
4.212736196943095
4.1942727804480935
4.200427252613103
4.2065817247780855
4.1758093639530935
4.181963836118102
4.188118308283084
4.1942727804480935
4.2065817247780855
4.1942727804480935
4.1942727804480935
4.218890669108104
4.218890669108104
4.2065817247780855
4.1942727804480935
4.218890669108104
4.231199613438097
4.218890669108104
4.218890669108104
4.225045141273086
4.225045141273086
4.237354085603107
4.237354085603107
4.237354085603107
4.237354085603107
4.243508557768089
4.237354085603107
4.237354085603107
4.225045141273086
4.225045141273086
4.255817502098108
4.261971974263091
4.261971974263091
4.261971974263091
4.261971974263091
4.249663029933098
4.249663029933098
4.261971974263091
4.27428091859311
4.27428091859311
4.2865898629231
4.2865898629231
4.280435390758093
4.280435390758093
4.2865898629231
4.2865898629231
4.280435390758093
4.27428091859311
4.2681264464281
4.261971974263091
4.249663029933098
4.237354085603107
4.237354085603107
4.218890669108104
4.212736196943095
4.212736196943095
4.1942727804480935
4.1942727804480935
4.1758093639530935
4.1758093639530935
4.1758093639530935
4.169654891788083
4.163500419623101
4.163500419623101
4.151191475293081
4.151191475293081
4.157345947458091
4.157345947458091
4.163500419623101
4.157345947458091
4.151191475293081
4.157345947458091
4.157345947458091
4.151191475293081
4.157345947458091
4.157345947458091
4.151191475293081
4.157345947458091
4.163500419623101
4.157345947458091
4.157345947458091
4.157345947458091
4.157345947458091
4.157345947458091
4.145037003128072
4.151191475293081
4.163500419623101
4.1758093639530935
4.169654891788083
4.169654891788083
4.169654891788083
4.163500419623101
4.169654891788083
4.157345947458091
4.169654891788083
4.163500419623101
4.169654891788083
4.157345947458091
4.151191475293081
4.145037003128072
4.138882530963089
4.157345947458091
4.1758093639530935
4.169654891788083
4.163500419623101
4.151191475293081
4.151191475293081
4.151191475293081
4.157345947458091
4.157345947458091
4.151191475293081
4.151191475293081
4.145037003128072
4.145037003128072
4.145037003128072
4.157345947458091
4.157345947458091
4.151191475293081
4.145037003128072
4.108110170138069
4.157345947458091
4.145037003128072
4.120419114468088
4.145037003128072
4.145037003128072
4.151191475293081
4.145037003128072
4.151191475293081
4.145037003128072
4.145037003128072
4.151191475293081
4.145037003128072
4.151191475293081
4.145037003128072
4.151191475293081
4.151191475293081
4.145037003128072
4.1327280587980795
4.138882530963089
4.157345947458091
4.157345947458091
4.157345947458091
4.145037003128072
4.151191475293081
4.145037003128072
4.138882530963089
4.151191475293081
4.145037003128072
4.145037003128072
4.151191475293081
4.151191475293081
4.157345947458091
4.151191475293081
4.138882530963089
4.145037003128072
4.145037003128072
4.145037003128072
4.145037003128072
4.145037003128072
4.145037003128072
4.138882530963089
4.145037003128072
4.163500419623101
4.157345947458091
4.151191475293081
4.151191475293081
4.145037003128072
4.145037003128072
4.095801225808079
4.108110170138069
4.163500419623101
4.157345947458091
4.157345947458091
4.163500419623101
4.169654891788083
4.157345947458091
4.12657358663307
4.1327280587980795
4.157345947458091
4.157345947458091
4.181963836118102
4.188118308283084
4.169654891788083
4.169654891788083
4.169654891788083
4.169654891788083
4.1758093639530935
4.163500419623101
4.163500419623101
4.163500419623101
4.157345947458091
4.157345947458091
4.145037003128072
4.157345947458091
4.151191475293081
4.145037003128072
4.157345947458091
4.157345947458091
4.151191475293081
4.145037003128072
4.145037003128072
4.151191475293081
4.145037003128072
4.151191475293081
4.157345947458091
4.157345947458091
4.157345947458091
4.157345947458091
4.157345947458091
4.151191475293081
4.157345947458091
4.145037003128072
4.1327280587980795
4.138882530963089
4.157345947458091
4.188118308283084
4.225045141273086
4.27428091859311
4.323516695913104
4.3727524732331275
4.385061417563119
4.335825640243124
4.231199613438097
4.151191475293081
4.095801225808079
4.0465654484880815
4.0465654484880815
4.058874392818074
4.077337809313075
4.095801225808079
4.12657358663307
4.151191475293081
4.169654891788083
4.181963836118102
4.181963836118102
4.1758093639530935
4.169654891788083
4.169654891788083
4.169654891788083
4.169654891788083
4.157345947458091
4.1327280587980795
4.1758093639530935
4.181963836118102
4.181963836118102
4.181963836118102
4.169654891788083
4.145037003128072
4.157345947458091
4.1758093639530935
4.1758093639530935
4.169654891788083
4.181963836118102
4.1758093639530935
4.1758093639530935
4.163500419623101
4.1758093639530935
4.181963836118102
4.188118308283084
4.1942727804480935
4.1942727804480935
4.188118308283084
4.188118308283084
4.188118308283084
4.1942727804480935
4.1942727804480935
4.1942727804480935
4.200427252613103
4.200427252613103
4.1942727804480935
4.1942727804480935
4.2065817247780855
4.200427252613103
4.200427252613103
4.1942727804480935
4.200427252613103
4.2065817247780855
4.212736196943095
4.225045141273086
4.237354085603107
4.237354085603107
4.237354085603107
4.237354085603107
4.243508557768089
4.249663029933098
4.255817502098108
4.255817502098108
4.261971974263091
4.261971974263091
4.261971974263091
4.280435390758093
4.27428091859311
4.27428091859311
4.27428091859311
4.255817502098108
4.255817502098108
4.249663029933098
4.255817502098108
4.255817502098108
4.243508557768089
4.218890669108104
4.2065817247780855
4.200427252613103
4.2065817247780855
4.1942727804480935
4.188118308283084
4.1758093639530935
4.1758093639530935
4.163500419623101
4.151191475293081
4.151191475293081
4.157345947458091
4.157345947458091
4.157345947458091
4.157345947458091
4.151191475293081
4.145037003128072
4.151191475293081
4.157345947458091
4.163500419623101
4.151191475293081
4.151191475293081
4.151191475293081
4.157345947458091
4.169654891788083
4.163500419623101
4.157345947458091
4.151191475293081
4.151191475293081
4.169654891788083
4.169654891788083
4.151191475293081
4.157345947458091
4.151191475293081
4.157345947458091
4.163500419623101
4.151191475293081
4.157345947458091
4.157345947458091
4.169654891788083
4.169654891788083
4.157345947458091
4.157345947458091
4.157345947458091
4.163500419623101
4.157345947458091
4.157345947458091
4.151191475293081
4.151191475293081
4.157345947458091
4.157345947458091
4.157345947458091
4.163500419623101
4.157345947458091
4.157345947458091
4.157345947458091
4.151191475293081
4.163500419623101
4.163500419623101
4.157345947458091
4.163500419623101
4.157345947458091
4.145037003128072
4.108110170138069
4.145037003128072
4.151191475293081
4.151191475293081
4.157345947458091
4.151191475293081
4.151191475293081
4.151191475293081
4.151191475293081
4.145037003128072
4.138882530963089
4.1327280587980795
4.1327280587980795
4.151191475293081
4.151191475293081
4.138882530963089
4.12657358663307
4.138882530963089
4.145037003128072
4.145037003128072
4.138882530963089
4.145037003128072
4.138882530963089
4.138882530963089
4.1327280587980795
4.120419114468088
4.12657358663307
4.12657358663307
4.1327280587980795
4.12657358663307
4.120419114468088
4.1327280587980795
4.12657358663307
4.12657358663307
4.120419114468088
4.1327280587980795
4.138882530963089
4.12657358663307
4.120419114468088
4.12657358663307
4.12657358663307
4.120419114468088
4.12657358663307
4.120419114468088
4.120419114468088
4.12657358663307
4.120419114468088
4.120419114468088
4.120419114468088
4.12657358663307
4.1327280587980795
4.145037003128072
4.138882530963089
4.1327280587980795
4.145037003128072
4.138882530963089
4.145037003128072
4.145037003128072
4.145037003128072
4.151191475293081
4.145037003128072
4.145037003128072
4.145037003128072
4.163500419623101
4.163500419623101
4.157345947458091
4.145037003128072
4.138882530963089
4.114264642303079
4.114264642303079
4.12657358663307
4.120419114468088
4.12657358663307
4.1327280587980795
4.1327280587980795
4.138882530963089
4.138882530963089
4.12657358663307
4.12657358663307
4.12657358663307
4.1327280587980795
4.138882530963089
4.145037003128072
4.145037003128072
4.138882530963089
4.145037003128072
4.1327280587980795
4.12657358663307
4.138882530963089
4.151191475293081
4.1758093639530935
4.200427252613103
4.237354085603107
4.298898807253093
4.335825640243124
4.348134584573115
4.305053279418103
4.225045141273086
4.138882530963089
4.083492281478085
4.0465654484880815
4.040410976323072
4.0465654484880815
4.058874392818074
4.083492281478085
4.1327280587980795
4.169654891788083
4.1758093639530935
4.181963836118102
4.1758093639530935
4.163500419623101
4.138882530963089
4.151191475293081
4.157345947458091
4.163500419623101
4.157345947458091
4.169654891788083
4.169654891788083
4.157345947458091
4.120419114468088
4.181963836118102
4.169654891788083
4.108110170138069
4.163500419623101
4.169654891788083
4.169654891788083
4.151191475293081
4.145037003128072
4.163500419623101
4.169654891788083
4.1758093639530935
4.181963836118102
4.181963836118102
4.181963836118102
4.1758093639530935
4.188118308283084
4.188118308283084
4.181963836118102
4.188118308283084
4.188118308283084
4.1942727804480935
4.1942727804480935
4.188118308283084
4.1942727804480935
4.200427252613103
4.212736196943095
4.2065817247780855
4.2065817247780855
4.212736196943095
4.212736196943095
4.2065817247780855
4.212736196943095
4.212736196943095
4.218890669108104
4.218890669108104
4.225045141273086
4.225045141273086
4.231199613438097
4.225045141273086
4.225045141273086
4.237354085603107
4.237354085603107
4.237354085603107
4.249663029933098
4.255817502098108
4.249663029933098
4.249663029933098
4.261971974263091
4.261971974263091
4.255817502098108
4.255817502098108
4.249663029933098
4.243508557768089
4.237354085603107
4.218890669108104
4.212736196943095
4.2065817247780855
4.188118308283084
4.188118308283084
4.1758093639530935
4.169654891788083
4.151191475293081
4.157345947458091
4.151191475293081
4.145037003128072
4.151191475293081
4.151191475293081
4.145037003128072
4.1327280587980795
4.1327280587980795
4.145037003128072
4.145037003128072
4.1327280587980795
4.138882530963089
4.138882530963089
4.138882530963089
4.138882530963089
4.138882530963089
4.1327280587980795
4.1327280587980795
4.145037003128072
4.1327280587980795
4.145037003128072
4.151191475293081
4.145037003128072
4.138882530963089
4.145037003128072
4.138882530963089
4.145037003128072
4.145037003128072
4.138882530963089
4.145037003128072
4.145037003128072
4.138882530963089
4.138882530963089
4.1327280587980795
4.138882530963089
4.145037003128072
4.145037003128072
4.145037003128072
4.1327280587980795
4.1327280587980795
4.145037003128072
4.145037003128072
4.138882530963089
4.145037003128072
4.145037003128072
4.138882530963089
4.1327280587980795
4.138882530963089
4.1327280587980795
4.145037003128072
4.138882530963089
4.145037003128072
4.145037003128072
4.145037003128072
4.138882530963089
4.138882530963089
4.138882530963089
4.145037003128072
4.145037003128072
4.138882530963089
4.138882530963089
4.120419114468088
4.0711833371480655
4.145037003128072
4.151191475293081
4.151191475293081
4.151191475293081
4.138882530963089
4.138882530963089
4.145037003128072
4.120419114468088
4.120419114468088
4.12657358663307
4.1327280587980795
4.138882530963089
4.138882530963089
4.1327280587980795
4.138882530963089
4.138882530963089
4.138882530963089
4.1327280587980795
4.1327280587980795
4.138882530963089
4.138882530963089
4.138882530963089
4.138882530963089
4.138882530963089
4.138882530963089
4.138882530963089
4.138882530963089
4.138882530963089
4.145037003128072
4.151191475293081
4.145037003128072
4.145037003128072
4.138882530963089
4.145037003128072
4.151191475293081
4.145037003128072
4.138882530963089
4.138882530963089
4.145037003128072
4.157345947458091
4.151191475293081
4.145037003128072
4.151191475293081
4.157345947458091
4.163500419623101
4.163500419623101
4.157345947458091
4.169654891788083
4.169654891788083
4.169654891788083
4.169654891788083
4.169654891788083
4.169654891788083
4.157345947458091
4.163500419623101
4.1758093639530935
4.1758093639530935
4.163500419623101
4.163500419623101
4.163500419623101
4.151191475293081
4.145037003128072
4.145037003128072
4.151191475293081
4.163500419623101
4.163500419623101
4.157345947458091
4.151191475293081
4.138882530963089
4.151191475293081
4.163500419623101
4.169654891788083
4.169654891788083
4.157345947458091
4.151191475293081
4.145037003128072
4.138882530963089
4.1327280587980795
4.1327280587980795
4.145037003128072
4.138882530963089
4.138882530963089
4.145037003128072
4.163500419623101
4.181963836118102
4.218890669108104
4.27428091859311
4.329671168078114
4.3727524732331275
4.366598001068117
4.329671168078114
4.249663029933098
4.157345947458091
4.083492281478085
4.052719920653064
4.058874392818074
4.0711833371480655
4.083492281478085
4.120419114468088
4.145037003128072
4.163500419623101
4.157345947458091
4.151191475293081
4.157345947458091
4.163500419623101
4.169654891788083
4.181963836118102
4.169654891788083
4.163500419623101
4.169654891788083
4.169654891788083
4.1758093639530935
4.1758093639530935
4.151191475293081
4.157345947458091
4.181963836118102
4.163500419623101
4.145037003128072
4.157345947458091
4.181963836118102
4.1758093639530935
4.1327280587980795
4.1942727804480935
4.1942727804480935
4.163500419623101
4.169654891788083
4.1758093639530935
4.188118308283084
4.188118308283084
4.188118308283084
4.1942727804480935
4.188118308283084
4.1758093639530935
4.1758093639530935
4.1942727804480935
4.181963836118102
4.181963836118102
4.1942727804480935
4.1942727804480935
4.212736196943095
4.218890669108104
4.2065817247780855
4.200427252613103
4.212736196943095
4.218890669108104
4.231199613438097
4.231199613438097
4.218890669108104
4.231199613438097
4.237354085603107
4.231199613438097
4.237354085603107
4.243508557768089
4.243508557768089
4.255817502098108
4.243508557768089
4.249663029933098
4.261971974263091
4.255817502098108
4.261971974263091
4.27428091859311
4.27428091859311
4.27428091859311
4.2681264464281
4.2681264464281
4.261971974263091
4.237354085603107
4.243508557768089
4.225045141273086
4.212736196943095
4.2065817247780855
4.181963836118102
4.188118308283084
4.1758093639530935
4.157345947458091
4.163500419623101
4.151191475293081
4.157345947458091
4.151191475293081
4.145037003128072
4.145037003128072
4.151191475293081
4.151191475293081
4.145037003128072
4.1327280587980795
4.1327280587980795
4.095801225808079
4.077337809313075
4.157345947458091
4.169654891788083
4.157345947458091
4.157345947458091
4.151191475293081
4.151191475293081
4.1327280587980795
4.108110170138069
4.12657358663307
4.1327280587980795
4.138882530963089
4.12657358663307
4.101955697973087
4.101955697973087
4.114264642303079
4.1327280587980795
4.157345947458091
4.157345947458091
4.151191475293081
4.151191475293081
4.145037003128072
4.145037003128072
4.12657358663307
4.1327280587980795
4.169654891788083
4.157345947458091
4.138882530963089
4.145037003128072
4.138882530963089
4.145037003128072
4.1327280587980795
4.138882530963089
4.138882530963089
4.151191475293081
4.151191475293081
4.138882530963089
4.145037003128072
4.145037003128072
4.145037003128072
4.151191475293081
4.151191475293081
4.145037003128072
4.145037003128072
4.145037003128072
4.138882530963089
4.151191475293081
4.151191475293081
4.151191475293081
4.157345947458091
4.169654891788083
4.151191475293081
4.138882530963089
4.151191475293081
4.157345947458091
4.120419114468088
4.077337809313075
4.151191475293081
4.157345947458091
4.169654891788083
4.1758093639530935
4.181963836118102
4.163500419623101
4.145037003128072
4.151191475293081
4.157345947458091
4.151191475293081
4.163500419623101
4.163500419623101
4.163500419623101
4.151191475293081
4.151191475293081
4.1327280587980795
4.157345947458091
4.188118308283084
4.169654891788083
4.163500419623101
4.169654891788083
4.163500419623101
4.169654891788083
4.169654891788083
4.1758093639530935
4.163500419623101
4.163500419623101
4.157345947458091
4.1758093639530935
4.163500419623101
4.169654891788083
4.181963836118102
4.181963836118102
4.181963836118102
4.169654891788083
4.169654891788083
4.181963836118102
4.1758093639530935
4.181963836118102
4.1758093639530935
4.181963836118102
4.1758093639530935
4.181963836118102
4.1758093639530935
4.169654891788083
4.169654891788083
4.1327280587980795
4.058874392818074
3.9973296711680604
3.9604028381780574
3.9296304773530633
3.905012588693053
3.8927036443630603
3.8927036443630603
3.874240227868059
3.8680857557030492
3.855776811373057
3.843467867043037
3.825004450548036
3.8188499783830263
3.8126955062180454
3.8126955062180454
3.8065410340530352
3.843467867043037
3.837313394878028
3.837313394878028
3.843467867043037
3.843467867043037
3.843467867043037
3.8619312835380395
3.855776811373057
3.8619312835380395
3.8680857557030492
3.874240227868059
3.8680857557030492
3.8680857557030492
3.8619312835380395
3.8680857557030492
3.874240227868059
3.9173215330230438
3.9665573103430645
3.9973296711680604
4.034256504158063
4.058874392818074
4.083492281478085
4.114264642303079
4.083492281478085
4.009638615498079
3.886549172198051
3.7942320897230433
3.825004450548036
3.9850207268380675
4.181963836118102
4.231199613438097
4.237354085603107
4.255817502098108
4.2865898629231
4.3112077515831135
4.323516695913104
4.323516695913104
4.3173622237481215
4.323516695913104
4.3173622237481215
4.323516695913104
4.3173622237481215
4.3173622237481215
4.3173622237481215
4.3112077515831135
4.3112077515831135
4.3112077515831135
4.3173622237481215
4.3112077515831135
4.3173622237481215
4.3112077515831135
4.3112077515831135
4.298898807253093
4.305053279418103
4.3112077515831135
4.305053279418103
4.3112077515831135
4.298898807253093
4.261971974263091
4.305053279418103
4.2865898629231
4.292744335088111
4.292744335088111
4.292744335088111
4.298898807253093
4.298898807253093
4.298898807253093
4.298898807253093
4.298898807253093
4.305053279418103
4.298898807253093
4.298898807253093
4.298898807253093
4.298898807253093
4.292744335088111
4.292744335088111
4.2865898629231
4.292744335088111
4.298898807253093
4.298898807253093
4.292744335088111
4.292744335088111
4.298898807253093
4.298898807253093
4.305053279418103
4.3112077515831135
4.3173622237481215
4.3112077515831135
4.3173622237481215
4.3173622237481215
4.3112077515831135
4.3173622237481215
4.3173622237481215
4.3173622237481215
4.323516695913104
4.3173622237481215
4.323516695913104
4.323516695913104
4.3112077515831135
4.305053279418103
4.292744335088111
4.292744335088111
4.280435390758093
4.2681264464281
4.249663029933098
4.249663029933098
4.243508557768089
4.225045141273086
4.225045141273086
4.218890669108104
4.212736196943095
4.2065817247780855
4.2065817247780855
4.188118308283084
4.1942727804480935
4.188118308283084
4.188118308283084
4.1942727804480935
4.188118308283084
4.181963836118102
4.188118308283084
4.188118308283084
4.1942727804480935
4.181963836118102
4.181963836118102
4.188118308283084
4.188118308283084
4.188118308283084
4.1942727804480935
4.1942727804480935
4.188118308283084
4.188118308283084
4.1942727804480935
4.188118308283084
4.188118308283084
4.188118308283084
4.1942727804480935
4.188118308283084
4.1758093639530935
4.181963836118102
4.181963836118102
4.181963836118102
4.1942727804480935
4.181963836118102
4.1942727804480935
4.1942727804480935
4.1758093639530935
4.188118308283084
4.1942727804480935
4.188118308283084
4.188118308283084
4.188118308283084
4.188118308283084
4.1758093639530935
4.1758093639530935
4.169654891788083
4.169654891788083
4.1758093639530935
4.163500419623101
4.169654891788083
4.169654891788083
4.163500419623101
4.163500419623101
4.169654891788083
4.1758093639530935
4.169654891788083
4.169654891788083
4.169654891788083
4.1758093639530935
4.169654891788083
4.157345947458091
4.163500419623101
4.163500419623101
4.163500419623101
4.169654891788083
4.157345947458091
4.157345947458091
4.157345947458091
4.163500419623101
4.151191475293081
4.108110170138069
4.157345947458091
4.151191475293081
4.157345947458091
4.157345947458091
4.12657358663307
4.12657358663307
4.138882530963089
4.138882530963089
4.145037003128072
4.1327280587980795
4.1327280587980795
4.1327280587980795
4.083492281478085
4.12657358663307
4.157345947458091
4.157345947458091
4.151191475293081
4.145037003128072
4.138882530963089
4.1327280587980795
4.108110170138069
4.114264642303079
4.12657358663307
4.1327280587980795
4.1327280587980795
4.1327280587980795
4.12657358663307
4.120419114468088
4.12657358663307
4.138882530963089
4.145037003128072
4.138882530963089
4.138882530963089
4.1327280587980795
4.1327280587980795
4.151191475293081
4.151191475293081
4.145037003128072
4.145037003128072
4.151191475293081
4.151191475293081
4.151191475293081
4.157345947458091
4.151191475293081
4.157345947458091
4.169654891788083
4.163500419623101
4.163500419623101
4.157345947458091
4.151191475293081
4.151191475293081
4.138882530963089
4.145037003128072
4.138882530963089
4.138882530963089
4.138882530963089
4.145037003128072
4.138882530963089
4.1327280587980795
4.1327280587980795
4.1327280587980795
4.1327280587980795
4.12657358663307
4.12657358663307
4.120419114468088
4.1327280587980795
4.12657358663307
4.12657358663307
4.138882530963089
4.138882530963089
4.138882530963089
4.12657358663307
4.12657358663307
4.1327280587980795
4.1327280587980795
4.12657358663307
4.1327280587980795
4.163500419623101
4.181963836118102
4.225045141273086
4.2681264464281
4.3112077515831135
4.3173622237481215
4.292744335088111
4.212736196943095
4.1327280587980795
4.077337809313075
4.040410976323072
4.034256504158063
4.034256504158063
4.040410976323072
4.065028864983084
4.089646753643067
4.114264642303079
4.1327280587980795
4.138882530963089
4.138882530963089
4.1327280587980795
4.12657358663307
4.1327280587980795
4.138882530963089
4.1327280587980795
4.138882530963089
4.138882530963089
4.138882530963089
4.138882530963089
4.12657358663307
4.12657358663307
4.1327280587980795
4.151191475293081
4.151191475293081
4.138882530963089
4.145037003128072
4.138882530963089
4.145037003128072
4.157345947458091
4.151191475293081
4.145037003128072
4.145037003128072
4.151191475293081
4.138882530963089
4.108110170138069
4.1327280587980795
4.138882530963089
4.145037003128072
4.151191475293081
4.157345947458091
4.169654891788083
4.169654891788083
4.163500419623101
4.157345947458091
4.169654891788083
4.1758093639530935
4.169654891788083
4.163500419623101
4.169654891788083
4.1758093639530935
4.1758093639530935
4.1758093639530935
4.188118308283084
4.188118308283084
4.188118308283084
4.1942727804480935
4.1942727804480935
4.2065817247780855
4.200427252613103
4.212736196943095
4.212736196943095
4.2065817247780855
4.212736196943095
4.225045141273086
4.225045141273086
4.225045141273086
4.231199613438097
4.237354085603107
4.225045141273086
4.225045141273086
4.218890669108104
4.218890669108104
4.212736196943095
4.188118308283084
4.1758093639530935
4.169654891788083
4.1758093639530935
4.169654891788083
4.157345947458091
4.145037003128072
4.138882530963089
4.1327280587980795
4.120419114468088
4.1327280587980795
4.120419114468088
4.120419114468088
4.120419114468088
4.12657358663307
4.114264642303079
4.114264642303079
4.120419114468088
4.12657358663307
4.120419114468088
4.114264642303079
4.101955697973087
4.114264642303079
4.12657358663307
4.114264642303079
4.120419114468088
4.114264642303079
4.120419114468088
4.114264642303079
4.120419114468088
4.120419114468088
4.114264642303079
4.114264642303079
4.120419114468088
4.12657358663307
4.12657358663307
4.12657358663307
4.120419114468088
4.120419114468088
4.12657358663307
4.120419114468088
4.120419114468088
4.114264642303079
4.114264642303079
4.12657358663307
4.138882530963089
4.12657358663307
4.114264642303079
4.114264642303079
4.120419114468088
4.120419114468088
4.12657358663307
4.120419114468088
4.120419114468088
4.120419114468088
4.114264642303079
4.114264642303079
4.114264642303079
4.120419114468088
4.12657358663307
4.114264642303079
4.114264642303079
4.120419114468088
4.114264642303079
4.108110170138069
4.108110170138069
4.114264642303079
4.114264642303079
4.120419114468088
4.114264642303079
4.108110170138069
4.101955697973087
4.108110170138069
4.114264642303079
4.114264642303079
4.120419114468088
4.120419114468088
4.120419114468088
4.120419114468088
4.12657358663307
4.120419114468088
4.120419114468088
4.108110170138069
4.065028864983084
4.120419114468088
4.1327280587980795
4.138882530963089
4.101955697973087
4.095801225808079
4.108110170138069
4.114264642303079
4.120419114468088
4.120419114468088
4.12657358663307
4.114264642303079
4.114264642303079
4.120419114468088
4.114264642303079
4.114264642303079
4.120419114468088
4.114264642303079
4.120419114468088
4.120419114468088
4.108110170138069
4.095801225808079
4.101955697973087
4.120419114468088
4.12657358663307
4.120419114468088
4.12657358663307
4.114264642303079
4.120419114468088
4.1327280587980795
4.12657358663307
4.12657358663307
4.12657358663307
4.12657358663307
4.12657358663307
4.120419114468088
4.120419114468088
4.1327280587980795
4.120419114468088
4.114264642303079
4.138882530963089
4.145037003128072
4.151191475293081
4.151191475293081
4.157345947458091
4.157345947458091
4.157345947458091
4.138882530963089
4.138882530963089
4.138882530963089
4.151191475293081
4.145037003128072
4.151191475293081
4.138882530963089
4.1327280587980795
4.1327280587980795
4.1327280587980795
4.12657358663307
4.120419114468088
4.120419114468088
4.120419114468088
4.12657358663307
4.120419114468088
4.120419114468088
4.12657358663307
4.114264642303079
4.108110170138069
4.108110170138069
4.114264642303079
4.114264642303079
4.114264642303079
4.120419114468088
4.114264642303079
4.114264642303079
4.114264642303079
4.108110170138069
4.114264642303079
4.101955697973087
4.114264642303079
4.138882530963089
4.169654891788083
4.2065817247780855
4.218890669108104
4.27428091859311
4.348134584573115
4.335825640243124
4.249663029933098
4.145037003128072
4.083492281478085
4.034256504158063
3.9911751990030497
4.003484143333068
4.028102031993082
4.058874392818074
4.095801225808079
4.114264642303079
4.1327280587980795
4.120419114468088
4.12657358663307
4.1327280587980795
4.12657358663307
4.12657358663307
4.1327280587980795
4.1327280587980795
4.1327280587980795
4.120419114468088
4.1327280587980795
4.138882530963089
4.138882530963089
4.1327280587980795
4.138882530963089
4.1327280587980795
4.1327280587980795
4.1327280587980795
4.1327280587980795
4.145037003128072
4.138882530963089
4.145037003128072
4.151191475293081
4.151191475293081
4.151191475293081
4.1327280587980795
4.095801225808079
4.157345947458091
4.157345947458091
4.138882530963089
4.145037003128072
4.163500419623101
4.1758093639530935
4.151191475293081
4.145037003128072
4.151191475293081
4.151191475293081
4.163500419623101
4.163500419623101
4.157345947458091
4.169654891788083
4.163500419623101
4.163500419623101
4.169654891788083
4.169654891788083
4.181963836118102
4.1942727804480935
4.2065817247780855
4.2065817247780855
4.200427252613103
4.200427252613103
4.2065817247780855
4.218890669108104
4.212736196943095
4.212736196943095
4.225045141273086
4.243508557768089
4.231199613438097
4.237354085603107
4.243508557768089
4.231199613438097
4.237354085603107
4.237354085603107
4.243508557768089
4.231199613438097
4.225045141273086
4.212736196943095
4.212736196943095
4.200427252613103
4.181963836118102
4.181963836118102
4.1758093639530935
4.163500419623101
4.151191475293081
4.157345947458091
4.138882530963089
4.145037003128072
4.138882530963089
4.1327280587980795
4.1327280587980795
4.12657358663307
4.138882530963089
4.1327280587980795
4.1327280587980795
4.12657358663307
4.12657358663307
4.12657358663307
4.120419114468088
4.12657358663307
4.1327280587980795
4.138882530963089
4.138882530963089
4.145037003128072
4.145037003128072
4.1327280587980795
4.1327280587980795
4.1327280587980795
4.151191475293081
4.138882530963089
4.1327280587980795
4.151191475293081
4.151191475293081
4.157345947458091
4.145037003128072
4.138882530963089
4.1327280587980795
4.151191475293081
4.151191475293081
4.157345947458091
4.157345947458091
4.145037003128072
4.151191475293081
4.138882530963089
4.138882530963089
4.151191475293081
4.151191475293081
4.145037003128072
4.157345947458091
4.151191475293081
4.157345947458091
4.151191475293081
4.151191475293081
4.151191475293081
4.163500419623101
4.157345947458091
4.163500419623101
4.157345947458091
4.157345947458091
4.157345947458091
4.157345947458091
4.157345947458091
4.157345947458091
4.169654891788083
4.1758093639530935
4.163500419623101
4.163500419623101
4.163500419623101
4.157345947458091
4.163500419623101
4.169654891788083
4.181963836118102
4.169654891788083
4.1758093639530935
4.169654891788083
4.1758093639530935
4.169654891788083
4.1758093639530935
4.163500419623101
4.1327280587980795
4.181963836118102
4.181963836118102
4.157345947458091
4.1758093639530935
4.181963836118102
4.1758093639530935
4.1758093639530935
4.188118308283084
4.181963836118102
4.181963836118102
4.1758093639530935
4.181963836118102
4.181963836118102
4.1758093639530935
4.1758093639530935
4.181963836118102
4.1942727804480935
4.1942727804480935
4.188118308283084
4.1942727804480935
4.188118308283084
4.188118308283084
4.188118308283084
4.181963836118102
4.181963836118102
4.1758093639530935
4.1758093639530935
4.1758093639530935
4.181963836118102
4.1942727804480935
4.188118308283084
4.181963836118102
4.181963836118102
4.181963836118102
4.1942727804480935
4.181963836118102
4.181963836118102
4.1758093639530935
4.181963836118102
4.181963836118102
4.169654891788083
4.1758093639530935
4.181963836118102
4.181963836118102
4.1758093639530935
4.163500419623101
4.163500419623101
4.163500419623101
4.169654891788083
4.169654891788083
4.169654891788083
4.1758093639530935
4.1758093639530935
4.181963836118102
4.181963836118102
4.181963836118102
4.188118308283084
4.188118308283084
4.188118308283084
4.188118308283084
4.188118308283084
4.188118308283084
4.181963836118102
4.181963836118102
4.169654891788083
4.1758093639530935
4.1758093639530935
4.181963836118102
4.1758093639530935
4.169654891788083
4.163500419623101
4.163500419623101
4.1758093639530935
4.169654891788083
4.163500419623101
4.163500419623101
4.169654891788083
4.163500419623101
4.163500419623101
4.169654891788083
4.157345947458091
4.157345947458091
4.157345947458091
4.163500419623101
4.169654891788083
4.169654891788083
4.163500419623101
4.145037003128072
4.138882530963089
4.157345947458091
4.163500419623101
4.169654891788083
4.200427252613103
4.237354085603107
4.2865898629231
4.354289056738125
4.40352483405812
4.40352483405812
4.348134584573115
4.231199613438097
4.151191475293081
4.089646753643067
4.058874392818074
4.058874392818074
4.083492281478085
4.095801225808079
4.12657358663307
4.163500419623101
4.1758093639530935
4.181963836118102
4.181963836118102
4.1758093639530935
4.188118308283084
4.188118308283084
4.1942727804480935
4.188118308283084
4.181963836118102
4.1758093639530935
4.181963836118102
4.188118308283084
4.188118308283084
4.151191475293081
4.212736196943095
4.225045141273086
4.2065817247780855
4.2065817247780855
4.2065817247780855
4.1758093639530935
4.169654891788083
4.181963836118102
4.1942727804480935
4.1942727804480935
4.200427252613103
4.188118308283084
4.1942727804480935
4.188118308283084
4.1942727804480935
4.200427252613103
4.212736196943095
4.2065817247780855
4.2065817247780855
4.212736196943095
4.2065817247780855
4.212736196943095
4.212736196943095
4.212736196943095
4.218890669108104
4.212736196943095
4.218890669108104
4.212736196943095
4.188118308283084
4.163500419623101
4.243508557768089
4.243508557768089
4.243508557768089
4.237354085603107
4.237354085603107
4.243508557768089
4.237354085603107
4.237354085603107
4.255817502098108
4.261971974263091
4.261971974263091
4.2681264464281
4.27428091859311
4.2681264464281
4.255817502098108
4.2681264464281
4.27428091859311
4.2865898629231
4.2865898629231
4.2681264464281
4.261971974263091
4.2681264464281
4.2681264464281
4.249663029933098
4.243508557768089
4.231199613438097
4.225045141273086
4.218890669108104
4.200427252613103
4.188118308283084
4.188118308283084
4.188118308283084
4.188118308283084
4.1758093639530935
4.1758093639530935
4.163500419623101
4.163500419623101
4.169654891788083
4.157345947458091
4.151191475293081
4.145037003128072
4.145037003128072
4.169654891788083
4.157345947458091
4.145037003128072
4.145037003128072
4.145037003128072
4.145037003128072
4.151191475293081
4.157345947458091
4.157345947458091
4.145037003128072
4.138882530963089
4.138882530963089
4.151191475293081
4.145037003128072
4.157345947458091
4.151191475293081
4.145037003128072
4.145037003128072
4.145037003128072
4.151191475293081
4.145037003128072
4.145037003128072
4.145037003128072
4.145037003128072
4.151191475293081
4.151191475293081
4.157345947458091
4.151191475293081
4.151191475293081
4.145037003128072
4.151191475293081
4.138882530963089
4.1327280587980795
4.151191475293081
4.157345947458091
4.145037003128072
4.151191475293081
4.138882530963089
4.1327280587980795
4.145037003128072
4.163500419623101
4.151191475293081
4.163500419623101
4.151191475293081
4.138882530963089
4.145037003128072
4.145037003128072
4.151191475293081
4.1327280587980795
4.095801225808079
4.1327280587980795
4.12657358663307
4.12657358663307
4.1327280587980795
4.138882530963089
4.138882530963089
4.145037003128072
4.1327280587980795
4.1327280587980795
4.145037003128072
4.157345947458091
4.157345947458091
4.145037003128072
4.138882530963089
4.145037003128072
4.145037003128072
4.138882530963089
4.145037003128072
4.145037003128072
4.145037003128072
4.1327280587980795
4.145037003128072
4.1327280587980795
4.138882530963089
4.1327280587980795
4.145037003128072
4.145037003128072
4.1327280587980795
4.138882530963089
4.145037003128072
4.1327280587980795
4.138882530963089
4.12657358663307
4.138882530963089
4.138882530963089
4.138882530963089
4.138882530963089
4.1327280587980795
4.12657358663307
4.120419114468088
4.120419114468088
4.12657358663307
4.120419114468088
4.108110170138069
4.114264642303079
4.120419114468088
4.120419114468088
4.12657358663307
4.114264642303079
4.114264642303079
4.108110170138069
4.108110170138069
4.120419114468088
4.114264642303079
4.114264642303079
4.120419114468088
4.114264642303079
4.114264642303079
4.120419114468088
4.1327280587980795
4.12657358663307
4.114264642303079
4.120419114468088
4.138882530963089
4.138882530963089
4.138882530963089
4.138882530963089
4.138882530963089
4.1327280587980795
4.12657358663307
4.12657358663307
4.114264642303079
4.120419114468088
4.108110170138069
4.108110170138069
4.108110170138069
4.108110170138069
4.114264642303079
4.114264642303079
4.108110170138069
4.101955697973087
4.108110170138069
4.101955697973087
4.101955697973087
4.101955697973087
4.095801225808079
4.095801225808079
4.101955697973087
4.095801225808079
4.089646753643067
4.089646753643067
4.095801225808079
4.095801225808079
4.095801225808079
4.089646753643067
4.114264642303079
4.145037003128072
4.181963836118102
4.218890669108104
4.2681264464281
4.305053279418103
4.292744335088111
4.218890669108104
4.12657358663307
4.065028864983084
4.021947559828071
4.003484143333068
4.009638615498079
4.009638615498079
4.021947559828071
4.0465654484880815
4.077337809313075
4.095801225808079
4.101955697973087
4.114264642303079
4.120419114468088
4.120419114468088
4.114264642303079
4.114264642303079
4.114264642303079
4.101955697973087
4.065028864983084
4.1327280587980795
4.1327280587980795
4.1327280587980795
4.12657358663307
4.101955697973087
4.108110170138069
4.114264642303079
4.120419114468088
4.12657358663307
4.120419114468088
4.120419114468088
4.120419114468088
4.120419114468088
4.120419114468088
4.12657358663307
4.120419114468088
4.1327280587980795
4.138882530963089
4.12657358663307
4.1327280587980795
4.1327280587980795
4.138882530963089
4.138882530963089
4.145037003128072
4.138882530963089
4.145037003128072
4.138882530963089
4.138882530963089
4.138882530963089
4.145037003128072
4.151191475293081
4.151191475293081
4.157345947458091
4.157345947458091
4.157345947458091
4.157345947458091
4.169654891788083
4.1758093639530935
4.1758093639530935
4.181963836118102
4.188118308283084
4.1942727804480935
4.1942727804480935
4.1942727804480935
4.200427252613103
4.2065817247780855
4.212736196943095
4.212736196943095
4.218890669108104
4.231199613438097
4.218890669108104
4.218890669108104
4.212736196943095
4.212736196943095
4.212736196943095
4.2065817247780855
4.1942727804480935
4.188118308283084
4.169654891788083
4.151191475293081
4.145037003128072
4.138882530963089
4.1327280587980795
4.138882530963089
4.12657358663307
4.114264642303079
4.108110170138069
4.108110170138069
4.114264642303079
4.101955697973087
4.101955697973087
4.108110170138069
4.108110170138069
4.108110170138069
4.095801225808079
4.095801225808079
4.101955697973087
4.108110170138069
4.101955697973087
4.114264642303079
4.114264642303079
4.114264642303079
4.114264642303079
4.114264642303079
4.108110170138069
4.114264642303079
4.108110170138069
4.114264642303079
4.120419114468088
4.114264642303079
4.108110170138069
4.114264642303079
4.120419114468088
4.120419114468088
4.120419114468088
4.120419114468088
4.120419114468088
4.108110170138069
4.0711833371480655
4.120419114468088
4.1327280587980795
4.1327280587980795
4.12657358663307
4.12657358663307
4.1327280587980795
4.120419114468088
4.095801225808079
4.108110170138069
4.108110170138069
4.114264642303079
4.114264642303079
4.108110170138069
4.108110170138069
4.108110170138069
4.120419114468088
4.114264642303079
4.114264642303079
4.114264642303079
4.120419114468088
4.114264642303079
4.108110170138069
4.065028864983084
4.120419114468088
4.12657358663307
4.12657358663307
4.12657358663307
4.12657358663307
4.120419114468088
4.114264642303079
4.089646753643067
4.095801225808079
4.108110170138069
4.114264642303079
4.108110170138069
4.120419114468088
4.120419114468088
4.108110170138069
4.114264642303079
4.114264642303079
4.108110170138069
4.114264642303079
4.108110170138069
4.114264642303079
4.114264642303079
4.120419114468088
4.108110170138069
4.120419114468088
4.120419114468088
4.114264642303079
4.114264642303079
4.114264642303079
4.114264642303079
4.108110170138069
4.108110170138069
4.120419114468088
4.120419114468088
4.114264642303079
4.114264642303079
4.108110170138069
4.114264642303079
4.101955697973087
4.108110170138069
4.108110170138069
4.108110170138069
4.114264642303079
4.120419114468088
4.12657358663307
4.114264642303079
4.120419114468088
4.114264642303079
4.114264642303079
4.114264642303079
4.114264642303079
4.108110170138069
4.114264642303079
4.114264642303079
4.114264642303079
4.108110170138069
4.120419114468088
4.120419114468088
4.114264642303079
4.114264642303079
4.120419114468088
4.114264642303079
4.114264642303079
4.12657358663307
4.120419114468088
4.12657358663307
4.12657358663307
4.1327280587980795
4.138882530963089
4.12657358663307
4.12657358663307
4.138882530963089
4.1327280587980795
4.138882530963089
4.138882530963089
4.1327280587980795
4.1327280587980795
4.12657358663307
4.120419114468088
4.12657358663307
4.114264642303079
4.114264642303079
4.101955697973087
4.101955697973087
4.108110170138069
4.101955697973087
4.108110170138069
4.108110170138069
4.114264642303079
4.101955697973087
4.114264642303079
4.108110170138069
4.114264642303079
4.108110170138069
4.108110170138069
4.108110170138069
4.114264642303079
4.108110170138069
4.114264642303079
4.114264642303079
4.101955697973087
4.101955697973087
4.095801225808079
4.114264642303079
4.1327280587980795
4.169654891788083
4.200427252613103
4.249663029933098
4.305053279418103
4.3173622237481215
4.305053279418103
4.218890669108104
4.120419114468088
4.058874392818074
4.021947559828071
4.015793087663061
4.021947559828071
4.040410976323072
4.077337809313075
4.095801225808079
4.101955697973087
4.077337809313075
4.120419114468088
4.1327280587980795
4.114264642303079
4.101955697973087
4.114264642303079
4.114264642303079
4.120419114468088
4.12657358663307
4.120419114468088
4.1327280587980795
4.120419114468088
4.1327280587980795
4.1327280587980795
4.12657358663307
4.1327280587980795
4.12657358663307
4.12657358663307
4.12657358663307
4.12657358663307
4.12657358663307
4.1327280587980795
4.12657358663307
4.12657358663307
4.114264642303079
4.114264642303079
4.12657358663307
4.120419114468088
4.1327280587980795
4.12657358663307
4.1327280587980795
4.12657358663307
4.138882530963089
4.138882530963089
4.138882530963089
4.1327280587980795
4.1327280587980795
4.145037003128072
4.151191475293081
4.157345947458091
4.145037003128072
4.151191475293081
4.145037003128072
4.151191475293081
4.157345947458091
4.157345947458091
4.169654891788083
4.163500419623101
4.169654891788083
4.169654891788083
4.1758093639530935
4.169654891788083
4.1758093639530935
4.1758093639530935
4.181963836118102
4.1942727804480935
4.188118308283084
4.1942727804480935
4.188118308283084
4.200427252613103
4.1942727804480935
4.1942727804480935
4.1942727804480935
4.181963836118102
4.188118308283084
4.1758093639530935
4.163500419623101
4.157345947458091
4.145037003128072
4.1327280587980795
4.12657358663307
4.120419114468088
4.114264642303079
4.101955697973087
4.095801225808079
4.101955697973087
4.089646753643067
4.089646753643067
4.083492281478085
4.083492281478085
4.077337809313075
4.083492281478085
4.083492281478085
4.083492281478085
4.083492281478085
4.089646753643067
4.089646753643067
4.089646753643067
4.089646753643067
4.083492281478085
4.089646753643067
4.095801225808079
4.083492281478085
4.095801225808079
4.095801225808079
4.101955697973087
4.095801225808079
4.095801225808079
4.095801225808079
4.108110170138069
4.108110170138069
4.101955697973087
4.108110170138069
4.108110170138069
4.101955697973087
4.095801225808079
4.101955697973087
4.101955697973087
4.108110170138069
4.108110170138069
4.101955697973087
4.101955697973087
4.108110170138069
4.101955697973087
4.101955697973087
4.101955697973087
4.108110170138069
4.114264642303079
4.114264642303079
4.114264642303079
4.114264642303079
4.089646753643067
4.052719920653064
4.120419114468088
4.120419114468088
4.12657358663307
4.120419114468088
4.12657358663307
4.120419114468088
4.095801225808079
4.101955697973087
4.114264642303079
4.114264642303079
4.120419114468088
4.120419114468088
4.120419114468088
4.12657358663307
4.114264642303079
4.120419114468088
4.120419114468088
4.120419114468088
4.12657358663307
4.12657358663307
4.120419114468088
4.114264642303079
4.120419114468088
4.120419114468088
4.12657358663307
4.1327280587980795
4.138882530963089
4.1327280587980795
4.1327280587980795
4.138882530963089
4.145037003128072
4.151191475293081
4.151191475293081
4.151191475293081
4.151191475293081
4.145037003128072
4.145037003128072
4.138882530963089
4.145037003128072
4.138882530963089
4.151191475293081
4.157345947458091
4.157345947458091
4.157345947458091
4.138882530963089
4.083492281478085
4.145037003128072
4.1758093639530935
4.169654891788083
4.163500419623101
4.157345947458091
4.169654891788083
4.151191475293081
4.138882530963089
4.145037003128072
4.138882530963089
4.151191475293081
4.157345947458091
4.151191475293081
4.151191475293081
4.151191475293081
4.157345947458091
4.157345947458091
4.163500419623101
4.163500419623101
4.151191475293081
4.157345947458091
4.151191475293081
4.163500419623101
4.169654891788083
4.169654891788083
4.169654891788083
4.169654891788083
4.157345947458091
4.1758093639530935
4.181963836118102
4.169654891788083
4.1758093639530935
4.181963836118102
4.1942727804480935
4.1942727804480935
4.188118308283084
4.169654891788083
4.1758093639530935
4.1758093639530935
4.1758093639530935
4.169654891788083
4.157345947458091
4.163500419623101
4.169654891788083
4.163500419623101
4.157345947458091
4.157345947458091
4.151191475293081
4.145037003128072
4.151191475293081
4.151191475293081
4.151191475293081
4.145037003128072
4.138882530963089
4.145037003128072
4.157345947458091
4.145037003128072
4.145037003128072
4.138882530963089
4.157345947458091
4.163500419623101
4.157345947458091
4.1327280587980795
4.145037003128072
4.138882530963089
4.151191475293081
4.157345947458091
4.169654891788083
4.188118308283084
4.225045141273086
4.27428091859311
4.323516695913104
4.360443528903107
4.354289056738125
4.27428091859311
4.157345947458091
4.120419114468088
4.052719920653064
4.021947559828071
4.034256504158063
4.058874392818074
4.0711833371480655
4.101955697973087
4.12657358663307
4.138882530963089
4.145037003128072
4.157345947458091
4.151191475293081
4.151191475293081
4.145037003128072
4.145037003128072
4.157345947458091
4.145037003128072
4.145037003128072
4.157345947458091
4.157345947458091
4.157345947458091
4.151191475293081
4.157345947458091
4.163500419623101
4.151191475293081
4.145037003128072
4.151191475293081
4.138882530963089
4.151191475293081
4.157345947458091
4.157345947458091
4.157345947458091
4.169654891788083
4.163500419623101
4.145037003128072
4.151191475293081
4.145037003128072
4.157345947458091
4.163500419623101
4.157345947458091
4.163500419623101
4.169654891788083
4.169654891788083
4.169654891788083
4.1758093639530935
4.1758093639530935
4.1758093639530935
4.169654891788083
4.1758093639530935
4.181963836118102
4.1758093639530935
4.188118308283084
4.200427252613103
4.2065817247780855
4.200427252613103
4.200427252613103
4.1942727804480935
4.200427252613103
4.212736196943095
4.2065817247780855
4.2065817247780855
4.2065817247780855
4.212736196943095
4.231199613438097
4.237354085603107
4.237354085603107
4.231199613438097
4.225045141273086
4.237354085603107
4.231199613438097
4.225045141273086
4.225045141273086
4.218890669108104
4.225045141273086
4.212736196943095
4.2065817247780855
4.1942727804480935
4.188118308283084
4.169654891788083
4.157345947458091
4.157345947458091
4.151191475293081
4.138882530963089
4.1327280587980795
4.12657358663307
4.120419114468088
4.120419114468088
4.108110170138069
4.120419114468088
4.114264642303079
4.114264642303079
4.108110170138069
4.114264642303079
4.114264642303079
4.101955697973087
4.095801225808079
4.108110170138069
4.114264642303079
4.120419114468088
4.114264642303079
4.120419114468088
4.108110170138069
4.120419114468088
4.120419114468088
4.12657358663307
4.120419114468088
4.120419114468088
4.120419114468088
4.120419114468088
4.120419114468088
4.12657358663307
4.12657358663307
4.12657358663307
4.120419114468088
4.1327280587980795
4.12657358663307
4.120419114468088
4.1327280587980795
4.1327280587980795
4.120419114468088
4.101955697973087
4.065028864983084
4.138882530963089
4.1327280587980795
4.138882530963089
4.1327280587980795
4.12657358663307
4.101955697973087
4.108110170138069
4.114264642303079
4.120419114468088
4.120419114468088
4.120419114468088
4.120419114468088
4.12657358663307
4.1327280587980795
4.12657358663307
4.120419114468088
4.12657358663307
4.120419114468088
4.120419114468088
4.114264642303079
4.114264642303079
4.12657358663307
4.120419114468088
4.120419114468088
4.120419114468088
4.108110170138069
4.108110170138069
4.108110170138069
4.120419114468088
4.120419114468088
4.12657358663307
4.120419114468088
4.120419114468088
4.120419114468088
4.12657358663307
4.120419114468088
4.114264642303079
4.114264642303079
4.114264642303079
4.114264642303079
4.1327280587980795
4.1327280587980795
4.120419114468088
4.1327280587980795
4.12657358663307
4.120419114468088
4.12657358663307
4.120419114468088
4.1327280587980795
4.12657358663307
4.12657358663307
4.120419114468088
4.114264642303079
4.1327280587980795
4.138882530963089
4.1327280587980795
4.12657358663307
4.12657358663307
4.12657358663307
4.12657358663307
4.12657358663307
4.12657358663307
4.120419114468088
4.1327280587980795
4.12657358663307
4.12657358663307
4.12657358663307
4.120419114468088
4.1327280587980795
4.1327280587980795
4.138882530963089
4.138882530963089
4.138882530963089
4.145037003128072
4.145037003128072
4.145037003128072
4.145037003128072
4.138882530963089
4.151191475293081
4.138882530963089
4.138882530963089
4.12657358663307
4.1327280587980795
4.138882530963089
4.1327280587980795
4.1327280587980795
4.114264642303079
4.108110170138069
4.114264642303079
4.12657358663307
4.120419114468088
4.120419114468088
4.114264642303079
4.114264642303079
4.114264642303079
4.114264642303079
4.108110170138069
4.108110170138069
4.120419114468088
4.120419114468088
4.114264642303079
4.114264642303079
4.114264642303079
4.108110170138069
4.120419114468088
4.108110170138069
4.101955697973087
4.108110170138069
4.120419114468088
4.145037003128072
4.163500419623101
4.200427252613103
4.249663029933098
4.298898807253093
4.2865898629231
4.27428091859311
4.243508557768089
4.151191475293081
4.0711833371480655
4.028102031993082
3.9973296711680604
3.9419394216830552
3.9911751990030497
4.034256504158063
4.077337809313075
4.101955697973087
4.108110170138069
4.114264642303079
4.120419114468088
4.114264642303079
4.114264642303079
4.114264642303079
4.120419114468088
4.12657358663307
4.12657358663307
4.12657358663307
4.138882530963089
4.1327280587980795
4.12657358663307
4.120419114468088
4.120419114468088
4.120419114468088
4.120419114468088
4.12657358663307
4.1327280587980795
4.1327280587980795
4.12657358663307
4.1327280587980795
4.120419114468088
4.12657358663307
4.138882530963089
4.1327280587980795
4.138882530963089
4.1327280587980795
4.138882530963089
4.138882530963089
4.1327280587980795
4.138882530963089
4.138882530963089
4.138882530963089
4.151191475293081
4.145037003128072
4.157345947458091
4.163500419623101
4.157345947458091
4.151191475293081
4.163500419623101
4.157345947458091
4.157345947458091
4.163500419623101
4.163500419623101
4.163500419623101
4.157345947458091
4.1758093639530935
4.1758093639530935
4.181963836118102
4.200427252613103
4.1942727804480935
4.2065817247780855
4.200427252613103
4.2065817247780855
4.2065817247780855
4.218890669108104
4.218890669108104
4.2065817247780855
4.200427252613103
4.2065817247780855
4.218890669108104
4.218890669108104
4.2065817247780855
4.200427252613103
4.188118308283084
4.169654891788083
4.163500419623101
4.169654891788083
4.169654891788083
4.157345947458091
4.145037003128072
4.1327280587980795
4.1327280587980795
4.108110170138069
4.108110170138069
4.114264642303079
4.114264642303079
4.120419114468088
4.095801225808079
4.101955697973087
4.108110170138069
4.108110170138069
4.108110170138069
4.108110170138069
4.108110170138069
4.095801225808079
4.095801225808079
4.095801225808079
4.095801225808079
4.095801225808079
4.101955697973087
4.101955697973087
4.101955697973087
4.101955697973087
4.101955697973087
4.101955697973087
4.108110170138069
4.095801225808079
4.101955697973087
4.101955697973087
4.114264642303079
4.114264642303079
4.108110170138069
4.101955697973087
4.083492281478085
4.089646753643067
4.108110170138069
4.114264642303079
4.114264642303079
4.108110170138069
4.108110170138069
4.108110170138069
4.108110170138069
4.114264642303079
4.114264642303079
4.101955697973087
4.058874392818074
4.120419114468088
4.12657358663307
4.120419114468088
4.101955697973087
4.083492281478085
4.095801225808079
4.089646753643067
4.101955697973087
4.114264642303079
4.114264642303079
4.120419114468088
4.108110170138069
4.114264642303079
4.120419114468088
4.120419114468088
4.120419114468088
4.114264642303079
4.114264642303079
4.114264642303079
4.108110170138069
4.114264642303079
4.120419114468088
4.120419114468088
4.120419114468088
4.120419114468088
4.114264642303079
4.114264642303079
4.114264642303079
4.120419114468088
4.12657358663307
4.1327280587980795
4.1327280587980795
4.138882530963089
4.1327280587980795
4.12657358663307
4.120419114468088
4.138882530963089
4.151191475293081
4.145037003128072
4.1327280587980795
4.145037003128072
4.151191475293081
4.145037003128072
4.1327280587980795
4.138882530963089
4.151191475293081
4.145037003128072
4.145037003128072
4.145037003128072
4.151191475293081
4.151191475293081
4.145037003128072
4.145037003128072
4.145037003128072
4.138882530963089
4.145037003128072
4.151191475293081
4.151191475293081
4.145037003128072
4.151191475293081
4.145037003128072
4.151191475293081
4.157345947458091
4.157345947458091
4.151191475293081
4.157345947458091
4.151191475293081
4.157345947458091
4.163500419623101
4.169654891788083
4.157345947458091
4.157345947458091
4.169654891788083
4.163500419623101
4.163500419623101
4.157345947458091
4.181963836118102
4.1942727804480935
4.181963836118102
4.188118308283084
4.181963836118102
4.1758093639530935
4.169654891788083
4.1758093639530935
4.169654891788083
4.157345947458091
4.163500419623101
4.169654891788083
4.157345947458091
4.151191475293081
4.145037003128072
4.151191475293081
4.163500419623101
4.157345947458091
4.151191475293081
4.157345947458091
4.145037003128072
4.138882530963089
4.145037003128072
4.145037003128072
4.145037003128072
4.151191475293081
4.145037003128072
4.12657358663307
4.145037003128072
4.157345947458091
4.157345947458091
4.151191475293081
4.145037003128072
4.145037003128072
4.145037003128072
4.157345947458091
4.163500419623101
4.181963836118102
4.225045141273086
4.2865898629231
4.335825640243124
4.3727524732331275
4.360443528903107
4.298898807253093
4.169654891788083
4.0465654484880815
4.065028864983084
4.052719920653064
4.0711833371480655
4.083492281478085
4.095801225808079
4.12657358663307
4.138882530963089
4.120419114468088
4.1327280587980795
4.145037003128072
4.151191475293081
4.145037003128072
4.151191475293081
4.157345947458091
4.151191475293081
4.151191475293081
4.157345947458091
4.163500419623101
4.169654891788083
4.169654891788083
4.157345947458091
4.157345947458091
4.151191475293081
4.157345947458091
4.163500419623101
4.157345947458091
4.163500419623101
4.157345947458091
4.169654891788083
4.169654891788083
4.163500419623101
4.163500419623101
4.169654891788083
4.169654891788083
4.1758093639530935
4.1758093639530935
4.1758093639530935
4.1758093639530935
4.181963836118102
4.181963836118102
4.181963836118102
4.181963836118102
4.181963836118102
4.188118308283084
4.1758093639530935
4.1758093639530935
4.181963836118102
4.1942727804480935
4.200427252613103
4.1942727804480935
4.1942727804480935
4.1942727804480935
4.1942727804480935
4.1942727804480935
4.200427252613103
4.212736196943095
4.212736196943095
4.212736196943095
4.218890669108104
4.225045141273086
4.225045141273086
4.212736196943095
4.1758093639530935
4.249663029933098
4.249663029933098
4.243508557768089
4.255817502098108
4.261971974263091
4.255817502098108
4.243508557768089
4.218890669108104
4.231199613438097
4.225045141273086
4.218890669108104
4.2065817247780855
4.2065817247780855
4.1942727804480935
4.181963836118102
4.181963836118102
4.169654891788083
4.157345947458091
4.151191475293081
4.145037003128072
4.138882530963089
4.120419114468088
4.12657358663307
4.138882530963089
4.1327280587980795
4.1327280587980795
4.1327280587980795
4.12657358663307
4.120419114468088
4.120419114468088
4.114264642303079
4.120419114468088
4.114264642303079
4.108110170138069
4.120419114468088
4.1327280587980795
4.12657358663307
4.12657358663307
4.114264642303079
4.114264642303079
4.120419114468088
4.120419114468088
4.12657358663307
4.1327280587980795
4.12657358663307
4.120419114468088
4.12657358663307
4.12657358663307
4.1327280587980795
4.1327280587980795
4.12657358663307
4.12657358663307
4.12657358663307
4.114264642303079
4.120419114468088
4.138882530963089
4.138882530963089
4.120419114468088
4.0711833371480655
4.120419114468088
4.1327280587980795
4.114264642303079
4.108110170138069
4.114264642303079
4.12657358663307
4.12657358663307
4.12657358663307
4.12657358663307
4.12657358663307
4.12657358663307
4.12657358663307
4.12657358663307
4.1327280587980795
4.120419114468088
4.120419114468088
4.1327280587980795
4.12657358663307
4.12657358663307
4.1327280587980795
4.12657358663307
4.1327280587980795
4.1327280587980795
4.1327280587980795
4.1327280587980795
4.1327280587980795
4.120419114468088
4.12657358663307
4.1327280587980795
4.12657358663307
4.1327280587980795
4.12657358663307
4.1327280587980795
4.1327280587980795
4.1327280587980795
4.1327280587980795
4.1327280587980795
4.1327280587980795
4.1327280587980795
4.1327280587980795
4.1327280587980795
4.12657358663307
4.12657358663307
4.12657358663307
4.1327280587980795
4.1327280587980795
4.1327280587980795
4.1327280587980795
4.12657358663307
4.120419114468088
4.12657358663307
4.138882530963089
4.138882530963089
4.1327280587980795
4.1327280587980795
4.12657358663307
4.1327280587980795
4.12657358663307
4.138882530963089
4.138882530963089
4.1327280587980795
4.138882530963089
4.1327280587980795
4.151191475293081
4.138882530963089
4.1327280587980795
4.1327280587980795
4.145037003128072
4.138882530963089
4.12657358663307
4.1327280587980795
4.1327280587980795
4.1327280587980795
4.138882530963089
4.145037003128072
4.151191475293081
4.145037003128072
4.151191475293081
4.157345947458091
4.145037003128072
4.151191475293081
4.157345947458091
4.163500419623101
4.157345947458091
4.151191475293081
4.157345947458091
4.151191475293081
4.145037003128072
4.138882530963089
4.138882530963089
4.151191475293081
4.145037003128072
4.138882530963089
4.138882530963089
4.1327280587980795
4.1327280587980795
4.12657358663307
4.12657358663307
4.12657358663307
4.120419114468088
4.120419114468088
4.120419114468088
4.12657358663307
4.12657358663307
4.120419114468088
4.114264642303079
