-3.092622262912931
-3.1110856794079322
-3.141858040232953
-3.0864677907479487
-3.055695429922928
-3.049540957757918
-2.944914930952919
-2.6925815721878803
-3.24648406703798
-3.38803692683301
-3.1664759288929645
-3.117240151572942
-3.1110856794079322
-3.2034027618829675
-3.184939345387966
-3.1110856794079322
-3.1110856794079322
-3.117240151572942
-3.1295490959029335
-3.1295490959029335
-3.117240151572942
-3.1295490959029335
-3.1357035680679433
-3.1480125123979352
-3.154166984562973
-3.191093817552976
-3.191093817552976
-3.1233946237379517
-3.154166984562973
-3.154166984562973
-3.160321456727955
-3.184939345387966
-3.2034027618829675
-3.2218661783779687
-3.178784873222984
-3.178784873222984
-3.2034027618829675
-3.191093817552976
-3.184939345387966
-3.191093817552976
-3.1972482897179852
-3.184939345387966
-3.3326466773480057
-3.326492205182996
-3.3326466773480057
-3.301874316522985
-3.406500343328012
-3.6034434526080172
-3.8434678670430653
-4.0465654484880815
-4.237354085603107
-4.3173622237481215
-4.403524834058148
-4.458915083543152
-4.428142722718159
-4.477378500038154
-4.508150860863147
-4.477378500038154
-4.428142722718159
-4.440451667048151
-4.360443528903135
-4.348134584573144
-4.3173622237481215
-4.335825640243124
-4.348134584573144
-4.298898807253121
-4.249663029933126
-4.17580936395312
-4.101955697973114
-3.9050125886930798
-3.640370285598049
-3.615752396938038
-3.9542483660130747
-4.261971974263118
-4.305053279418131
-4.292744335088139
-4.311207751583139
-4.292744335088139
-4.311207751583139
-4.305053279418131
-4.274280918593137
-4.2435085577681155
-4.194272780448122
-4.151191475293109
-4.138882530963118
-4.17580936395312
-4.114264642303106
-4.114264642303106
-4.077337809313103
-4.077337809313103
-4.071183337148093
-4.065028864983084
-4.0342565041580905
-4.028102031993082
-4.0342565041580905
-4.015793087663089
-4.015793087663089
-3.9665573103430942
-3.923476005188081
-3.9911751990030773
-3.9604028381780845
-3.9480938938480934
-3.935784949518073
-3.9296304773530633
-3.9542483660130747
-3.9296304773530633
-3.923476005188081
-3.874240227868059
-3.861931283538067
-3.825004450548064
-3.849622339208075
-3.8434678670430653
-3.7511507845680576
-3.8434678670430653
-3.812695506218072
-3.812695506218072
-3.812695506218072
-3.825004450548064
-3.781923145393051
-3.7511507845680576
-3.732687368073057
-3.781923145393051
-3.7511507845680576
-3.738841840238039
-3.7449963124030474
-3.738841840238039
-3.7080694794130453
-3.6896060629180436
-3.6280613412680296
-3.3326466773480057
-3.720378423743037
-3.7142239515780546
-3.7511507845680576
-3.701915007248036
-3.6711426464230414
-3.597288980443037
-3.6465247577630313
-3.7449963124030474
-3.701915007248036
-3.597288980443037
-3.560362147453033
-3.664988174258033
-3.7757686732280415
-4.0342565041580905
-3.825004450548064
-3.75730525673304
-3.701915007248036
-3.7080694794130453
-3.664988174258033
-3.7080694794130453
-3.7757686732280415
-3.732687368073057
-3.6896060629180436
-3.6834515907530343
-3.640370285598049
-3.640370285598049
-3.720378423743037
-3.6711426464230414
-3.6957605350830534
-3.6772971185880525
-3.7080694794130453
-3.6711426464230414
-3.6957605350830534
-3.6896060629180436
-3.6957605350830534
-3.6957605350830534
-3.6834515907530343
-3.6711426464230414
-3.664988174258033
-3.720378423743037
-3.7634597288980496
-3.7142239515780546
-3.6896060629180436
-3.720378423743037
-3.7080694794130453
-3.726532895908047
-3.732687368073057
-3.7634597288980496
-3.7142239515780546
-3.652679229928041
-3.597288980443037
-3.6034434526080172
-3.597288980443037
-3.5665166196180156
-3.5234353144630304
-3.6465247577630313
-3.597288980443037
-3.6219068691030203
-3.658833702093051
-3.615752396938038
-3.578825563948035
-3.560362147453033
-3.560362147453033
-3.548053203123014
-3.578825563948035
-3.6034434526080172
-3.597288980443037
-3.6034434526080172
-3.597288980443037
-3.548053203123014
-3.597288980443037
-3.474199537143008
-3.4865084814730274
-3.5234353144630304
-3.554207675288024
-3.6034434526080172
-3.5911345082780266
-3.609597924773028
-3.511126370133011
-3.4865084814730274
-3.5234353144630304
-3.529589786628012
-3.4988174258030194
-3.529589786628012
-3.4803540093080176
-3.4557361206480066
-3.437272704153005
-3.4126548154929934
-3.381882454668
-3.394191398997992
-3.400345871163002
-3.406500343328012
-3.3511100938430074
-3.2280206505429785
-3.160321456727955
-3.154166984562973
-3.1110856794079322
-3.178784873222984
-3.1726304010579747
-2.994150708272913
-3.24648406703798
-3.264947483532982
-3.2403295948729705
-3.264947483532982
-3.2711019556979917
-3.289565372192993
-3.3141832608529764
-3.3326466773480057
-3.338801149512988
-3.344955621677997
-3.2834109000279827
-3.24648406703798
-3.289565372192993
-3.2957198443579747
-3.264947483532982
-3.277256427862973
-3.2711019556979917
-3.258793011367972
-3.2341751227079882
-3.2034027618829675
-3.074158846417929
-2.760280766002876
-3.1357035680679433
-3.3141832608529764
-3.3326466773480057
-3.258793011367972
-3.2095572340479768
-3.184939345387966
-3.2280206505429785
-3.24648406703798
-3.2711019556979917
-3.2711019556979917
-3.258793011367972
-3.264947483532982
-3.24648406703798
-3.2341751227079882
-3.2095572340479768
-3.2280206505429785
-3.2280206505429785
-3.160321456727955
-3.2034027618829675
-3.215711706212987
-3.2034027618829675
-3.2034027618829675
-3.1664759288929645
-3.178784873222984
-3.1664759288929645
-3.1357035680679433
-3.1480125123979352
-3.1049312072429505
-3.117240151572942
-3.1233946237379517
-3.141858040232953
-3.2403295948729705
-3.289565372192993
-3.264947483532982
-3.3141832608529764
-3.3326466773480057
-3.400345871163002
-3.4126548154929934
-3.474199537143008
-3.437272704153005
-3.4311182319879947
-3.437272704153005
-3.4126548154929934
-3.381882454668
-3.369573510338009
-3.357264566007989
-3.4188092876580036
-3.4126548154929934
-3.369573510338009
-3.2834109000279827
-3.2218661783779687
-3.2218661783779687
-3.215711706212987
-3.215711706212987
-3.2034027618829675
-3.160321456727955
-2.329467714452832
-3.400345871163002
-3.560362147453033
-3.2034027618829675
-3.184939345387966
-3.1664759288929645
-3.074158846417929
-3.1664759288929645
-3.24648406703798
-3.1972482897179852
-3.2095572340479768
-3.1726304010579747
-3.1972482897179852
-3.2034027618829675
-3.184939345387966
-3.191093817552976
-3.2218661783779687
-3.2034027618829675
-3.1357035680679433
-3.1664759288929645
-3.1726304010579747
-3.178784873222984
-3.1480125123979352
-3.1972482897179852
-3.2034027618829675
-3.2034027618829675
-3.2034027618829675
-3.160321456727955
-3.1110856794079322
-3.0864677907479487
-3.0864677907479487
-3.092622262912931
-3.1233946237379517
-3.154166984562973
-3.160321456727955
-3.0864677907479487
-3.080313318582939
-3.0987767350779407
-3.055695429922928
-3.1049312072429505
-3.1233946237379517
-3.1357035680679433
-3.1357035680679433
-3.117240151572942
-3.117240151572942
-3.1049312072429505
-3.1049312072429505
-3.1972482897179852
-3.1110856794079322
-3.092622262912931
-3.0680043742529195
-3.0987767350779407
-3.092622262912931
-3.1049312072429505
-3.0864677907479487
-3.0987767350779407
-3.074158846417929
-3.080313318582939
-3.043386485592936
-3.074158846417929
-3.0372320134279267
-2.994150708272913
-3.0249230690979347
-3.0249230690979347
-2.9264515144579173
-2.7910531268278973
-2.932605986622927
-2.944914930952919
-2.975687291777912
-2.96953281961293
-2.9879962361079313
-3.1295490959029335
-3.369573510338009
-3.0987767350779407
-3.0680043742529195
-3.117240151572942
-3.0864677907479487
-3.092622262912931
-3.018768596932925
-3.0310775412629165
-3.0249230690979347
-3.0249230690979347
-2.9879962361079313
-3.018768596932925
-3.0126141247679152
-3.0126141247679152
-3.006459652602933
-3.0126141247679152
-3.0126141247679152
-3.018768596932925
-3.0864677907479487
-3.0372320134279267
-3.055695429922928
-3.055695429922928
-3.0618499020879373
-3.074158846417929
-3.1357035680679433
-3.1664759288929645
-3.1726304010579747
-3.1664759288929645
-3.117240151572942
-3.0680043742529195
-3.080313318582939
-3.0310775412629165
-3.0618499020879373
-3.0987767350779407
-3.0864677907479487
-3.1049312072429505
-3.092622262912931
-3.092622262912931
-3.092622262912931
-3.117240151572942
-3.1110856794079322
-3.1110856794079322
-3.1110856794079322
-3.117240151572942
-3.1110856794079322
-3.074158846417929
-3.043386485592936
-3.1295490959029335
-3.141858040232953
-3.154166984562973
-3.1295490959029335
-3.1233946237379517
-3.092622262912931
-3.074158846417929
-3.074158846417929
-3.043386485592936
-2.9818417639429216
-3.1295490959029335
-3.215711706212987
-3.2280206505429785
-3.3511100938430074
-3.264947483532982
-3.215711706212987
-3.178784873222984
-3.1664759288929645
-3.1480125123979352
-3.1110856794079322
-3.1110856794079322
-3.0987767350779407
-3.1049312072429505
-3.074158846417929
-3.0126141247679152
-2.8464433763129016
-2.932605986622927
-3.0249230690979347
-3.080313318582939
-3.043386485592936
-3.080313318582939
-3.25263853920299
-3.424963759823013
-3.191093817552976
-3.1233946237379517
-3.1233946237379517
-3.1049312072429505
-3.1357035680679433
-3.1110856794079322
-3.0864677907479487
-3.092622262912931
-3.018768596932925
-3.055695429922928
-3.0987767350779407
-3.0987767350779407
-3.0987767350779407
-3.0987767350779407
-3.080313318582939
-3.1233946237379517
-3.092622262912931
-3.080313318582939
-3.0987767350779407
-3.117240151572942
-3.0987767350779407
-3.0864677907479487
-3.117240151572942
-3.1664759288929645
-3.074158846417929
-3.0618499020879373
-3.0618499020879373
-3.0618499020879373
-3.055695429922928
-3.043386485592936
-3.043386485592936
-3.0372320134279267
-3.049540957757918
-3.0249230690979347
-2.9387604587879093
-2.772589710332896
-2.9202970422929075
-3.0003051804379233
-3.363419038172999
-3.2834109000279827
-3.1357035680679433
-3.092622262912931
-3.117240151572942
-3.141858040232953
-3.1233946237379517
-3.160321456727955
-3.154166984562973
-3.1726304010579747
-3.1480125123979352
-3.1664759288929645
-3.1664759288929645
-3.178784873222984
-3.1972482897179852
-3.184939345387966
-3.191093817552976
-3.2095572340479768
-3.1972482897179852
-3.191093817552976
-3.191093817552976
-3.2095572340479768
-3.2095572340479768
-3.178784873222984
-3.2034027618829675
-3.184939345387966
-3.178784873222984
-3.191093817552976
-3.25263853920299
-3.215711706212987
-3.2218661783779687
-3.2280206505429785
-3.2034027618829675
-3.184939345387966
-3.215711706212987
-3.184939345387966
-3.215711706212987
-3.215711706212987
-3.2095572340479768
-3.215711706212987
-3.178784873222984
-3.178784873222984
-3.2034027618829675
-3.2095572340479768
-3.2095572340479768
-3.215711706212987
-3.2341751227079882
-3.2341751227079882
-3.2218661783779687
-3.2341751227079882
-3.2403295948729705
-3.24648406703798
-3.264947483532982
-3.24648406703798
-3.2403295948729705
-3.215711706212987
-3.24648406703798
-3.264947483532982
-3.277256427862973
-3.258793011367972
-3.160321456727955
-3.258793011367972
-3.3141832608529764
-3.24648406703798
-3.258793011367972
-3.2341751227079882
-3.2403295948729705
-3.258793011367972
-3.25263853920299
-3.2403295948729705
-3.3141832608529764
-3.277256427862973
-3.24648406703798
-3.258793011367972
-3.24648406703798
-3.25263853920299
-3.258793011367972
-3.25263853920299
-3.25263853920299
-3.2403295948729705
-3.2280206505429785
-3.2403295948729705
-3.2403295948729705
-3.184939345387966
-3.191093817552976
-3.2095572340479768
-3.2095572340479768
-3.2034027618829675
-3.2280206505429785
-3.2280206505429785
-3.2218661783779687
-3.2218661783779687
-3.2218661783779687
-3.215711706212987
-3.2218661783779687
-3.24648406703798
-3.2341751227079882
-3.2280206505429785
-3.2034027618829675
-3.2341751227079882
-3.2218661783779687
-3.25263853920299
-3.2341751227079882
-3.2280206505429785
-3.2218661783779687
-3.2280206505429785
-3.2280206505429785
-3.24648406703798
-3.258793011367972
-3.25263853920299
-3.2341751227079882
-3.2341751227079882
-3.184939345387966
-3.1480125123979352
-3.154166984562973
-3.1295490959029335
-3.1295490959029335
-3.141858040232953
-3.049540957757918
-2.8649067928079033
-3.2403295948729705
-3.2341751227079882
-3.264947483532982
-3.24648406703798
-3.264947483532982
-3.24648406703798
-3.461890592813016
-3.5418987309580316
-3.338801149512988
-3.289565372192993
-3.277256427862973
-3.264947483532982
-3.258793011367972
-3.24648406703798
-3.24648406703798
-3.25263853920299
-3.258793011367972
-3.25263853920299
-3.2280206505429785
-3.2403295948729705
-3.191093817552976
-3.2218661783779687
-3.258793011367972
-3.2280206505429785
-3.2218661783779687
-3.2034027618829675
-3.2341751227079882
-3.2095572340479768
-3.215711706212987
-3.2095572340479768
-3.1972482897179852
-3.2341751227079882
-3.2341751227079882
-3.215711706212987
-3.215711706212987
-3.1664759288929645
-3.2218661783779687
-3.215711706212987
-3.2280206505429785
-3.2403295948729705
-3.215711706212987
-3.2280206505429785
-3.2218661783779687
-3.24648406703798
-3.2095572340479768
-3.2341751227079882
-3.2341751227079882
-3.2341751227079882
-3.2280206505429785
-3.2218661783779687
-3.25263853920299
-3.24648406703798
-3.2403295948729705
-3.2403295948729705
-3.2403295948729705
-3.2095572340479768
-3.2403295948729705
-3.2218661783779687
-3.2403295948729705
-3.2095572340479768
-3.2095572340479768
-3.24648406703798
-3.0987767350779407
-3.1972482897179852
-3.301874316522985
-3.2218661783779687
-3.2280206505429785
-3.25263853920299
-3.2280206505429785
-2.901833625797906
-3.369573510338009
-3.381882454668
-3.2711019556979917
-3.25263853920299
-3.2403295948729705
-3.258793011367972
-3.25263853920299
-3.2280206505429785
-3.2403295948729705
-3.2834109000279827
-3.2403295948729705
-3.258793011367972
-3.25263853920299
-3.264947483532982
-3.258793011367972
-3.24648406703798
-3.258793011367972
-3.2403295948729705
-3.25263853920299
-3.2280206505429785
-3.24648406703798
-3.2403295948729705
-3.25263853920299
-3.2403295948729705
-3.258793011367972
-3.2403295948729705
-3.24648406703798
-3.264947483532982
-3.2341751227079882
-3.24648406703798
-3.2280206505429785
-3.264947483532982
-3.2280206505429785
-3.2280206505429785
-3.24648406703798
-3.2403295948729705
-3.191093817552976
-3.258793011367972
-3.2403295948729705
-3.25263853920299
-3.2034027618829675
-3.2280206505429785
-3.2095572340479768
-3.2218661783779687
-3.2280206505429785
-3.2280206505429785
-3.2341751227079882
-3.215711706212987
-3.24648406703798
-3.215711706212987
-3.006459652602933
-2.7910531268278973
-3.074158846417929
-3.1480125123979352
-3.258793011367972
-3.554207675288024
-3.357264566007989
-3.258793011367972
-3.24648406703798
-3.2280206505429785
-3.2403295948729705
-3.25263853920299
-3.289565372192993
-3.2403295948729705
-3.2341751227079882
-3.3511100938430074
-3.301874316522985
-3.277256427862973
-3.2711019556979917
-3.277256427862973
-3.2403295948729705
-3.24648406703798
-3.24648406703798
-3.258793011367972
-3.24648406703798
-3.2341751227079882
-3.25263853920299
-3.25263853920299
-3.1664759288929645
-3.049540957757918
-3.1233946237379517
-3.3203377330179857
-3.277256427862973
-3.24648406703798
-3.24648406703798
-3.2280206505429785
-3.492662953638009
-3.5849800361130173
-3.4126548154929934
-3.381882454668
-3.308028788687994
-3.277256427862973
-3.25263853920299
-3.25263853920299
-3.3141832608529764
-3.326492205182996
-3.338801149512988
-3.406500343328012
-3.4188092876580036
-3.381882454668
-3.369573510338009
-3.375727982502991
-3.308028788687994
-3.308028788687994
-3.344955621677997
-3.308028788687994
-3.258793011367972
-3.178784873222984
-3.308028788687994
-3.2834109000279827
-3.3203377330179857
-3.4126548154929934
-3.461890592813016
-3.4311182319879947
-3.38803692683301
-3.369573510338009
-3.394191398997992
-3.394191398997992
-3.338801149512988
-3.344955621677997
-3.406500343328012
-3.38803692683301
-3.424963759823013
-3.437272704153005
-3.369573510338009
-3.394191398997992
-3.4126548154929934
-3.406500343328012
-3.381882454668
-3.449581648482997
-3.504971897968029
-3.449581648482997
-3.338801149512988
-3.2957198443579747
-3.301874316522985
-3.24648406703798
-3.381882454668
-3.4988174258030194
-3.449581648482997
-3.2834109000279827
-3.2034027618829675
-3.117240151572942
-2.895679153632896
-2.975687291777912
-2.9572238752829105
-2.83413443198291
-2.766435238167886
-2.649500267032867
-2.520256351567857
-2.403321380432838
-2.3110042979578305
-2.2679229928028177
-2.200223798987821
-2.212532743317813
-2.1694514381628007
-2.1448335495027893
-2.1817603824928202
-2.2371506319778245
-2.261768520637808
-2.2309961598128147
-2.249459576307816
-2.2802319371328093
-2.255614048472826
-2.2802319371328093
-2.3110042979578305
-2.360240075277825
-2.372549019607845
-2.360240075277825
-2.4525571577528327
-2.6371913227028756
-2.723353933012873
-2.6433457948678853
-2.631036850537866
-2.587955545382853
-2.9633783474479203
-3.2957198443579747
-4.71124844230819
-4.434297194883141
-3.215711706212987
-2.9572238752829105
-3.0864677907479487
-3.4434271763180146
-3.344955621677997
-3.0618499020879373
-3.018768596932925
-2.9818417639429216
-2.9633783474479203
-2.994150708272913
-3.074158846417929
-3.049540957757918
-3.0372320134279267
-3.043386485592936
-3.080313318582939
-3.074158846417929
-3.0126141247679152
-3.0987767350779407
-3.043386485592936
-3.043386485592936
-3.092622262912931
-3.092622262912931
-4.341980112408135
-6.206785178403396
-6.2621754278884
-6.120622568093398
-5.979069708298368
-5.948297347473375
-5.862134737163349
-5.677500572213335
-5.782126599018334
-5.671346100048325
-5.60980137839831
-5.542102184583314
-5.492866407263293
-5.400549324788284
-5.252841992828272
-5.129752549528243
-5.080516772208249
-5.154370438188255
-5.142061493858235
-5.111289133033242
-4.846646829938211
-5.012817578393225
-5.006663106228215
-4.865110246433213
-4.723557386638183
-4.5696955825131615
-4.563541110348179
-4.520459805193167
-4.501996388698165
-4.391215889728128
-4.409679306223158
-4.495841916533155
-4.594313471173173
-4.612776887668174
-4.594313471173173
-4.582004526843181
-4.249663029933126
-3.117240151572942
-3.018768596932925
-3.0618499020879373
-3.1049312072429505
-3.0618499020879373
-3.1049312072429505
-3.141858040232953
-3.0310775412629165
-3.141858040232953
-3.1357035680679433
-3.1480125123979352
-3.117240151572942
-3.1233946237379517
-3.38803692683301
-3.191093817552976
-3.055695429922928
-3.1049312072429505
-3.074158846417929
-3.080313318582939
-3.160321456727955
-3.1664759288929645
-3.2280206505429785
-3.2280206505429785
-3.1480125123979352
-3.191093817552976
-3.1726304010579747
-3.1049312072429505
-3.043386485592936
-3.1110856794079322
-3.117240151572942
-3.0618499020879373
-2.778744182497905
-1.5663131659927332
-1.1355001144426613
-1.25243508557768
-1.25243508557768
-1.25243508557768
-1.3201342793926762
-1.4432237226927047
-1.4616871391877062
-1.4309147783627132
-1.467841611352716
-1.5540042216627135
-1.510922916507701
-1.5478497494977315
-1.5970855268177266
-1.6401668319727392
-1.6647847206327224
-1.7017115536227536
-1.7140204979527454
-1.689402609292734
-1.6709391927977324
-1.615548943312728
-1.6093944711477182
-1.5416952773327222
-1.5724676381577152
-1.590931054652717
-1.4986139721777092
-1.363215584547689
-1.7755652196027594
-1.7447928587777384
-1.7817196917677414
-1.9971262175427773
-2.2371506319778245
-2.0340530505327803
-1.9786628010477763
-1.966353856717784
-1.9417359680577726
-1.9355814958927628
-1.9478904402227823
-1.9478904402227823
-2.0278985783677985
-2.04020752269779
-2.04020752269779
-2.064825411357801
-2.089443300017785
-2.1756059103278105
-2.8279799598179
-3.812695506218072
-3.7942320897230712
-3.6834515907530343
-3.6896060629180436
-3.7142239515780546
-3.7696142010630598
-3.837313394878056
-3.825004450548064
-3.468045064977998
-2.8218254876528905
-2.4402482134228407
-2.2740774649678275
-2.1756059103278105
-2.1817603824928202
-2.187914854657802
-2.212532743317813
-2.212532743317813
-2.360240075277825
-2.347931130947833
-2.2925408814628288
-2.298695353627811
-2.3356221866178415
-2.3540856031128428
-2.347931130947833
-2.3848579639378364
-2.409475852597848
-2.434093741257831
-2.4217847969278394
-2.434093741257831
-2.4525571577528327
-2.471020574247862
-2.4894839907428636
-2.501792935072855
-2.520256351567857
-2.507947407237865
-2.606418961877855
-2.624882378372884
-3.1972482897179852
-4.108110170138096
-4.292744335088139
-4.2311996134381245
-4.151191475293109
-4.077337809313103
-3.9419394216830828
-4.0219475598280985
-4.0404109763231
-3.9542483660130747
-3.8988581165280705
-3.825004450548064
-3.7634597288980496
-3.6957605350830534
-3.1480125123979352
-2.735662877342893
-2.5694921288878514
-2.4648661020828517
-2.261768520637808
-2.4648661020828517
-2.495638462907845
-2.4402482134228407
-2.446402685587851
-2.446402685587851
-2.4402482134228407
-2.4587116299178424
-2.618727906207874
-2.526410823732866
-2.520256351567857
-2.5141018794028467
-2.544874240227868
-2.544874240227868
-2.5387197680628577
-2.55718318455786
-2.575646601052861
-2.575646601052861
-2.6002644897128726
-2.5941100175478624
-2.6002644897128726
-2.581801073217871
-2.4217847969278394
-2.55718318455786
-2.446402685587851
-2.4279392690928487
-2.606418961877855
-2.6371913227028756
-2.674118155692878
-2.6987360443528896
-2.6987360443528896
-2.723353933012873
-3.006459652602933
-2.9818417639429216
-2.8095165433228986
-2.772589710332896
-2.8895246814679143
-2.9387604587879093
-2.8156710154879088
-2.7848986546628876
-2.797207598992907
-2.766435238167886
-2.772589710332896
-2.8095165433228986
-2.8033620711578893
-2.7848986546628876
-2.6987360443528896
-2.5694921288878514
-3.0372320134279267
-2.932605986622927
-2.766435238167886
-2.7848986546628876
-2.8279799598179
-2.8525978484779113
-2.8218254876528905
-2.8402889041478923
-2.8402889041478923
-2.877215737137895
-2.871061264972913
-2.883370209302905
-2.871061264972913
-2.8895246814679143
-2.871061264972913
-2.877215737137895
-2.9202970422929075
-2.9633783474479203
-2.932605986622927
-2.901833625797906
-2.9264515144579173
-2.9264515144579173
-2.932605986622927
-2.9387604587879093
-2.9387604587879093
-2.9202970422929075
-2.9510694031179288
-2.932605986622927
-2.9510694031179288
-2.932605986622927
-2.932605986622927
-2.9510694031179288
-3.0003051804379233
-2.9879962361079313
-2.975687291777912
-2.9879962361079313
-2.9818417639429216
-2.9879962361079313
-2.994150708272913
-3.0126141247679152
-2.9818417639429216
-2.9879962361079313
-3.006459652602933
-3.006459652602933
-2.9818417639429216
-2.994150708272913
-3.006459652602933
-3.0003051804379233
-2.994150708272913
-2.975687291777912
-2.975687291777912
-2.975687291777912
-2.96953281961293
-2.9572238752829105
-2.932605986622927
-2.9264515144579173
-2.895679153632896
-2.8218254876528905
-2.772589710332896
-2.711044988682881
-2.729508405177883
-2.735662877342893
-2.6987360443528896
-2.8279799598179
-2.907988097962916
-2.8279799598179
-2.8095165433228986
-2.8033620711578893
-2.797207598992907
-2.7910531268278973
-2.754126293837894
-2.760280766002876
-2.760280766002876
-2.754126293837894
-2.778744182497905
-2.778744182497905
-2.747971821672884
-2.778744182497905
-2.766435238167886
-2.797207598992907
-2.8218254876528905
-2.8156710154879088
-2.858752320642893
-2.8525978484779113
-2.8464433763129016
-2.883370209302905
-2.9202970422929075
-2.9387604587879093
-2.9141425701278982
-2.9202970422929075
-2.9879962361079313
-2.9818417639429216
-2.994150708272913
-2.9879962361079313
-2.9879962361079313
-2.9633783474479203
-2.932605986622927
-2.9387604587879093
-2.901833625797906
-2.9202970422929075
-2.901833625797906
-2.8895246814679143
-3.0003051804379233
-2.944914930952919
-2.907988097962916
-2.932605986622927
-2.9510694031179288
-2.96953281961293
-2.9633783474479203
-2.975687291777912
-3.018768596932925
-3.0310775412629165
-3.0372320134279267
-3.0372320134279267
-3.0680043742529195
-3.0310775412629165
-3.0126141247679152
-3.1110856794079322
-3.092622262912931
-3.0680043742529195
-2.994150708272913
-2.871061264972913
-3.006459652602933
-3.0618499020879373
-3.092622262912931
-3.1110856794079322
-3.394191398997992
-3.406500343328012
-3.2034027618829675
-3.178784873222984
-3.0987767350779407
-3.0126141247679152
-3.1357035680679433
-3.160321456727955
-3.1480125123979352
-3.178784873222984
-3.154166984562973
-3.1664759288929645
-3.1357035680679433
-3.141858040232953
-3.1480125123979352
-3.1357035680679433
-3.1357035680679433
-3.1049312072429505
-3.160321456727955
-3.289565372192993
-3.191093817552976
-3.141858040232953
-3.1295490959029335
-3.1357035680679433
-3.1233946237379517
-3.1233946237379517
-3.160321456727955
-3.117240151572942
-3.141858040232953
-3.141858040232953
-3.1357035680679433
-3.1480125123979352
-3.1295490959029335
-3.117240151572942
-3.1295490959029335
-3.154166984562973
-3.154166984562973
-3.184939345387966
-3.160321456727955
-3.1726304010579747
-3.160321456727955
-3.184939345387966
-3.160321456727955
-3.160321456727955
-3.184939345387966
-3.178784873222984
-3.1664759288929645
-3.2095572340479768
-3.2341751227079882
-3.1972482897179852
-3.1972482897179852
-3.191093817552976
-3.184939345387966
-3.178784873222984
-3.191093817552976
-3.1664759288929645
-3.178784873222984
-3.154166984562973
-3.0618499020879373
-3.184939345387966
-3.215711706212987
-3.1295490959029335
-3.0987767350779407
-3.154166984562973
-3.1233946237379517
-3.1480125123979352
-3.1480125123979352
-3.1295490959029335
-3.1664759288929645
-3.1664759288929645
-3.184939345387966
-3.191093817552976
-3.1726304010579747
-3.191093817552976
-3.1972482897179852
-3.154166984562973
-3.1295490959029335
-3.141858040232953
-3.160321456727955
-3.1295490959029335
-3.1233946237379517
-3.1049312072429505
-3.1049312072429505
-3.0680043742529195
-3.0618499020879373
-3.0680043742529195
-3.0680043742529195
-3.049540957757918
-3.074158846417929
-3.0680043742529195
-3.154166984562973
-3.1357035680679433
-3.1049312072429505
-3.092622262912931
-3.092622262912931
-3.1110856794079322
-3.1110856794079322
-3.1233946237379517
-3.1049312072429505
-3.1110856794079322
-3.1049312072429505
-3.1110856794079322
-3.0987767350779407
-3.1110856794079322
-3.178784873222984
-3.1726304010579747
-3.1110856794079322
-3.092622262912931
-3.1110856794079322
-3.1110856794079322
-3.1295490959029335
-3.092622262912931
-3.092622262912931
-3.080313318582939
-3.055695429922928
-2.96953281961293
-2.8218254876528905
-2.575646601052861
-2.901833625797906
-3.1972482897179852
-3.049540957757918
-3.055695429922928
-3.0987767350779407
-3.1110856794079322
-3.092622262912931
-3.0987767350779407
-3.1295490959029335
-3.0987767350779407
-3.055695429922928
-3.080313318582939
-3.080313318582939
-3.080313318582939
-3.043386485592936
-3.0864677907479487
-3.092622262912931
-3.0864677907479487
-3.1110856794079322
-3.1110856794079322
-3.117240151572942
-3.1480125123979352
-3.1664759288929645
-3.1664759288929645
-3.184939345387966
-3.2095572340479768
-3.215711706212987
-3.184939345387966
-3.1972482897179852
-3.2280206505429785
-3.264947483532982
-3.2403295948729705
-3.2218661783779687
-3.25263853920299
-3.191093817552976
-3.215711706212987
-3.1972482897179852
-3.215711706212987
-3.2034027618829675
-3.1972482897179852
-3.178784873222984
-3.1972482897179852
-3.160321456727955
-3.1726304010579747
-3.160321456727955
-3.1664759288929645
-3.1726304010579747
-3.191093817552976
-3.055695429922928
-2.871061264972913
-3.043386485592936
-3.178784873222984
-3.1480125123979352
-3.160321456727955
-3.191093817552976
-3.2280206505429785
-3.5418987309580316
-3.4188092876580036
-3.381882454668
-3.2711019556979917
-3.264947483532982
-3.25263853920299
-3.264947483532982
-3.2711019556979917
-3.25263853920299
-3.258793011367972
-3.24648406703798
-3.25263853920299
-3.2341751227079882
-3.2403295948729705
-3.2280206505429785
-3.1110856794079322
-3.0987767350779407
-3.1972482897179852
-3.2034027618829675
-3.24648406703798
-3.264947483532982
-3.258793011367972
-3.2711019556979917
-3.264947483532982
-3.2711019556979917
-3.277256427862973
-3.363419038172999
-3.4865084814730274
-3.652679229928041
-3.7696142010630598
-3.732687368073057
-3.4988174258030194
-3.2957198443579747
-3.1726304010579747
-3.1357035680679433
-3.0864677907479487
-3.080313318582939
-3.0864677907479487
-3.055695429922928
-3.0680043742529195
-3.0126141247679152
-3.055695429922928
-3.043386485592936
-3.018768596932925
-3.0372320134279267
-3.0680043742529195
-3.049540957757918
-3.049540957757918
-3.0310775412629165
-3.0310775412629165
-3.0310775412629165
-3.0310775412629165
-3.049540957757918
-3.0310775412629165
-3.0618499020879373
-3.018768596932925
-2.9879962361079313
-3.0987767350779407
-3.055695429922928
-3.0618499020879373
-3.0680043742529195
-3.0680043742529195
-3.080313318582939
-3.080313318582939
-3.0003051804379233
-2.83413443198291
-2.9818417639429216
-3.0310775412629165
-3.049540957757918
-3.055695429922928
-3.0864677907479487
-3.4126548154929934
-3.25263853920299
-3.2218661783779687
-3.1480125123979352
-3.154166984562973
-3.092622262912931
-3.1110856794079322
-3.1110856794079322
-3.141858040232953
-3.1049312072429505
-3.1110856794079322
-3.1233946237379517
-3.0987767350779407
-3.1049312072429505
-3.080313318582939
-3.0680043742529195
-3.0680043742529195
-3.117240151572942
-3.117240151572942
-3.1110856794079322
-3.0987767350779407
-3.092622262912931
-3.1049312072429505
-3.1110856794079322
-3.117240151572942
-3.092622262912931
-3.1049312072429505
-3.092622262912931
-3.092622262912931
-3.092622262912931
-3.0126141247679152
-3.092622262912931
-3.092622262912931
-3.117240151572942
-3.1357035680679433
-3.1233946237379517
-3.1480125123979352
-3.154166984562973
-3.1357035680679433
-3.154166984562973
-3.184939345387966
-3.184939345387966
-3.178784873222984
-3.2034027618829675
-3.326492205182996
-3.326492205182996
-3.24648406703798
-3.2403295948729705
-3.2403295948729705
-3.24648406703798
-3.2341751227079882
-3.2218661783779687
-3.1664759288929645
-3.1233946237379517
-3.0987767350779407
-3.080313318582939
-3.0864677907479487
-3.006459652602933
-3.1664759288929645
-3.2834109000279827
-3.2834109000279827
-3.24648406703798
-3.264947483532982
-3.25263853920299
-3.24648406703798
-3.2218661783779687
-3.215711706212987
-3.2218661783779687
-3.2341751227079882
-3.2280206505429785
-3.24648406703798
-3.25263853920299
-3.1726304010579747
-3.117240151572942
-3.191093817552976
-3.191093817552976
-3.2034027618829675
-3.2095572340479768
-3.2095572340479768
-3.215711706212987
-3.2034027618829675
-3.215711706212987
-3.2095572340479768
-3.2095572340479768
-3.2095572340479768
-3.2218661783779687
-3.2403295948729705
-3.2341751227079882
-3.2403295948729705
-3.2341751227079882
-3.264947483532982
-3.2280206505429785
-3.2711019556979917
-3.2834109000279827
-3.289565372192993
-3.289565372192993
-3.308028788687994
-3.301874316522985
-3.3203377330179857
-3.308028788687994
-3.338801149512988
-3.437272704153005
-3.4188092876580036
-3.369573510338009
-3.326492205182996
-3.381882454668
-3.7142239515780546
-4.575850054678171
-4.9143460237532075
-4.582004526843181
-3.7942320897230712
-3.6280613412680296
-3.720378423743037
-4.514305333028156
-4.778947636123188
-4.55123216601816
-4.335825640243124
-4.55123216601816
-4.717402914473201
-4.791256580453207
-4.54507769385315
-4.440451667048151
-4.440451667048151
-4.409679306223158
-4.397370361893138
-4.348134584573144
-4.335825640243124
-4.3173622237481215
-4.311207751583139
-4.212736196943123
-4.163500419623101
-4.237354085603107
-4.212736196943123
-4.200427252613103
-4.17580936395312
-4.212736196943123
-4.17580936395312
-4.163500419623101
-4.163500419623101
-4.1573459474581185
-4.138882530963118
-4.126573586633098
-4.077337809313103
-4.145037003128099
-4.194272780448122
-4.126573586633098
-4.0958012258081045
-4.052719920653092
-4.058874392818101
-4.0404109763231
-4.0342565041580905
-3.9973296711680866
-4.003484143333097
-4.003484143333097
-3.9665573103430942
-3.9604028381780845
-3.6834515907530343
-3.1233946237379517
-2.8525978484779113
-2.729508405177883
-2.729508405177883
-2.729508405177883
-2.729508405177883
-2.7171994608478913
-2.723353933012873
-2.723353933012873
-2.735662877342893
-2.7418173495078744
-2.7418173495078744
-2.760280766002876
-2.766435238167886
-2.778744182497905
-2.8095165433228986
-2.858752320642893
-2.8279799598179
-2.8402889041478923
-2.8464433763129016
-2.858752320642893
-2.877215737137895
-2.772589710332896
-2.907988097962916
-2.96953281961293
-2.895679153632896
-2.9264515144579173
-2.9510694031179288
-2.9141425701278982
-2.901833625797906
-2.9572238752829105
-2.9572238752829105
-2.9572238752829105
-2.9572238752829105
-2.9572238752829105
-2.994150708272913
-2.9879962361079313
-2.975687291777912
-2.9818417639429216
-3.006459652602933
-3.0372320134279267
-3.0003051804379233
-3.006459652602933
-2.994150708272913
-2.9572238752829105
-3.006459652602933
-3.0310775412629165
-3.0249230690979347
-3.049540957757918
-3.055695429922928
-3.043386485592936
-3.0680043742529195
-3.0680043742529195
-3.0987767350779407
-3.0618499020879373
-3.074158846417929
-3.074158846417929
-3.117240151572942
-3.154166984562973
-3.141858040232953
-3.1233946237379517
-3.117240151572942
-3.1110856794079322
-3.117240151572942
-3.1049312072429505
-3.75730525673304
-4.68047608148317
-4.662012664988168
-4.588158999008163
-4.538923221688168
-4.4835329722031645
-4.378906945398136
-4.348134584573144
-4.305053279418131
-4.261971974263118
-4.200427252613103
-4.151191475293109
-4.120419114468116
-4.0958012258081045
-4.089646753643096
-3.726532895908047
-4.194272780448122
-4.108110170138096
-4.083492281478085
-4.071183337148093
-4.0219475598280985
-3.6219068691030203
-3.3141832608529764
-3.3511100938430074
-2.9572238752829105
-2.8279799598179
-2.8279799598179
-2.8033620711578893
-2.8156710154879088
-2.7910531268278973
-2.760280766002876
-2.723353933012873
-2.704890516517872
-2.729508405177883
-2.7171994608478913
-2.735662877342893
-2.778744182497905
-2.8156710154879088
-2.8033620711578893
-2.83413443198291
-2.8156710154879088
-2.8649067928079033
-2.901833625797906
-2.895679153632896
-2.877215737137895
-2.901833625797906
-2.907988097962916
-2.9264515144579173
-2.944914930952919
-2.9141425701278982
-2.9202970422929075
-2.9510694031179288
-2.96953281961293
-2.9510694031179288
-2.9510694031179288
-2.944914930952919
-2.9572238752829105
-2.944914930952919
-2.96953281961293
-3.049540957757918
-3.615752396938038
-4.391215889728128
-4.391215889728128
-4.329671168078142
-4.261971974263118
-4.237354085603107
-4.181963836118102
-4.1573459474581185
-4.108110170138096
-4.083492281478085
-4.083492281478085
-4.077337809313103
-4.0465654484880815
-4.0404109763231
-4.028102031993082
-4.015793087663089
-4.028102031993082
-3.9911751990030773
-3.9788662546730857
-3.861931283538067
-3.9604028381780845
-4.015793087663089
-3.9480938938480934
-3.9542483660130747
-3.935784949518073
-3.8988581165280705
-3.8988581165280705
-3.935784949518073
-3.9173215330230713
-3.8865491721980785
-3.9050125886930798
-3.874240227868059
-3.855776811373057
-3.8988581165280705
-3.861931283538067
-3.855776811373057
-3.874240227868059
-3.874240227868059
-3.849622339208075
-3.868085755703077
-3.837313394878056
-3.8434678670430653
-3.825004450548064
-3.8311589227130742
-3.800386561888053
-3.812695506218072
-3.7757686732280415
-3.781923145393051
-3.800386561888053
-3.7696142010630598
-3.738841840238039
-3.7511507845680576
-3.7634597288980496
-3.726532895908047
-3.720378423743037
-3.6957605350830534
-3.468045064977998
-2.975687291777912
-2.729508405177883
-2.624882378372884
-2.544874240227868
-2.5694921288878514
-2.6002644897128726
-2.6002644897128726
-2.575646601052861
-2.6433457948678853
-2.5694921288878514
-2.587955545382853
-2.6433457948678853
-2.649500267032867
-2.649500267032867
-2.674118155692878
-2.68642710002287
-2.6925815721878803
-2.68642710002287
-2.711044988682881
-2.766435238167886
-2.6371913227028756
-2.5141018794028467
-2.5941100175478624
-2.68642710002287
-3.006459652602933
-3.0003051804379233
-2.7910531268278973
-2.778744182497905
-2.772589710332896
-2.7848986546628876
-2.778744182497905
-2.772589710332896
-2.7848986546628876
-2.8402889041478923
-2.8218254876528905
-2.8095165433228986
-2.797207598992907
-2.7848986546628876
-2.797207598992907
-2.8218254876528905
-2.83413443198291
-2.83413443198291
-2.8402889041478923
-2.9202970422929075
-3.726532895908047
-4.354289056738125
-4.261971974263118
-4.218890669108104
-4.181963836118102
-4.108110170138096
-4.101955697973114
-4.077337809313103
-4.0465654484880815
-4.0219475598280985
-3.9788662546730857
-3.9665573103430942
-3.9419394216830828
-3.9296304773530633
-3.9111670608580615
-3.874240227868059
-3.8434678670430653
-3.855776811373057
-3.8311589227130742
-3.837313394878056
-3.8311589227130742
-3.812695506218072
-3.8311589227130742
-3.806541034053063
-3.800386561888053
-3.75730525673304
-3.7449963124030474
-3.6834515907530343
-3.6896060629180436
-3.6711426464230414
-3.6772971185880525
-3.7511507845680576
-3.825004450548064
-3.788077617558061
-3.806541034053063
-3.7942320897230712
-3.7757686732280415
-3.726532895908047
-3.7080694794130453
-3.6957605350830534
-3.5726710917830253
-3.6834515907530343
-3.720378423743037
-3.664988174258033
-3.609597924773028
-3.511126370133011
-3.560362147453033
-3.597288980443037
-3.597288980443037
-3.6034434526080172
-3.5849800361130173
-3.578825563948035
-3.5726710917830253
-3.578825563948035
-3.5726710917830253
-3.554207675288024
-3.5665166196180156
-3.578825563948035
-3.548053203123014
-3.529589786628012
-3.609597924773028
-3.5418987309580316
-3.554207675288024
-3.535744258793022
-3.517280842298021
-3.529589786628012
-3.529589786628012
-3.5234353144630304
-3.492662953638009
-3.504971897968029
-3.492662953638009
-3.517280842298021
-3.468045064977998
-3.4803540093080176
-3.5726710917830253
-3.5418987309580316
-3.504971897968029
-3.511126370133011
-3.4865084814730274
-3.4988174258030194
-3.474199537143008
-3.468045064977998
-3.474199537143008
-3.4803540093080176
-3.4803540093080176
-3.461890592813016
-3.4865084814730274
-3.474199537143008
-3.4311182319879947
-3.461890592813016
-3.461890592813016
-3.468045064977998
-3.4803540093080176
-3.449581648482997
-3.4803540093080176
-3.468045064977998
-3.468045064977998
-3.468045064977998
-3.406500343328012
-3.24648406703798
-3.3141832608529764
-3.381882454668
-3.406500343328012
-3.492662953638009
-3.461890592813016
-3.468045064977998
-3.658833702093051
-3.8434678670430653
-3.554207675288024
-3.529589786628012
-3.5418987309580316
-3.5418987309580316
-3.5234353144630304
-3.517280842298021
-3.474199537143008
-3.5234353144630304
-3.5234353144630304
-3.4988174258030194
-3.517280842298021
-3.517280842298021
-3.517280842298021
-3.504971897968029
-3.517280842298021
-3.511126370133011
-3.511126370133011
-3.4988174258030194
-3.511126370133011
-3.4988174258030194
-3.4803540093080176
-3.4803540093080176
-3.381882454668
-3.3511100938430074
-3.461890592813016
-3.4803540093080176
-3.474199537143008
-3.474199537143008
-3.474199537143008
-3.474199537143008
-3.468045064977998
-3.492662953638009
-3.4803540093080176
-3.468045064977998
-3.4865084814730274
-3.461890592813016
-3.5234353144630304
-3.615752396938038
-3.529589786628012
-3.4865084814730274
-3.4865084814730274
-3.4865084814730274
-3.4865084814730274
-3.4803540093080176
-3.474199537143008
-3.511126370133011
-3.4988174258030194
-3.4803540093080176
-3.4988174258030194
-3.4865084814730274
-3.492662953638009
-3.4557361206480066
-3.461890592813016
-3.492662953638009
-3.369573510338009
-3.468045064977998
-3.5418987309580316
-3.492662953638009
-3.461890592813016
-3.4557361206480066
-3.4557361206480066
-3.394191398997992
-3.2034027618829675
-3.308028788687994
-3.369573510338009
-3.4311182319879947
-3.461890592813016
-3.4126548154929934
-3.424963759823013
-3.6034434526080172
-3.7942320897230712
-3.529589786628012
-3.492662953638009
-3.461890592813016
-3.474199537143008
-3.4865084814730274
-3.468045064977998
-3.4803540093080176
-3.474199537143008
-3.4434271763180146
-3.474199537143008
-3.4803540093080176
-3.4557361206480066
-3.468045064977998
-3.461890592813016
-3.492662953638009
-3.449581648482997
-3.474199537143008
-3.461890592813016
-3.4865084814730274
-3.468045064977998
-3.2341751227079882
-2.747971821672884
-2.495638462907845
-2.471020574247862
-2.4156303247628297
-2.347931130947833
-2.286386409297819
-2.3110042979578305
-2.255614048472826
-2.298695353627811
-2.378703491772827
-2.4587116299178424
-2.483329518577854
-2.526410823732866
-2.544874240227868
-2.563337656722869
-2.55718318455786
-2.587955545382853
-2.6002644897128726
-2.606418961877855
-2.624882378372884
-2.5325652958978484
-2.3110042979578305
-2.606418961877855
-2.6371913227028756
-2.674118155692878
-3.018768596932925
-2.83413443198291
-2.754126293837894
-2.7418173495078744
-2.711044988682881
-2.674118155692878
-2.766435238167886
-2.754126293837894
-2.7418173495078744
-2.735662877342893
-2.747971821672884
-2.7848986546628876
-2.766435238167886
-2.7910531268278973
-2.797207598992907
-2.8218254876528905
-2.8033620711578893
-2.8095165433228986
-2.8033620711578893
-2.7910531268278973
-2.8895246814679143
-2.8525978484779113
-2.8525978484779113
-2.877215737137895
-2.8649067928079033
-2.8525978484779113
-2.8895246814679143
-2.8649067928079033
-2.895679153632896
-2.901833625797906
-2.907988097962916
-2.9141425701278982
-2.932605986622927
-2.877215737137895
-2.901833625797906
-2.907988097962916
-2.9264515144579173
-2.944914930952919
-2.9510694031179288
-2.9387604587879093
-2.9633783474479203
-2.9510694031179288
-2.9510694031179288
-2.9818417639429216
-2.975687291777912
-2.9818417639429216
-2.9818417639429216
-2.975687291777912
-3.0372320134279267
-3.055695429922928
-3.0310775412629165
-3.0310775412629165
-3.049540957757918
-3.0372320134279267
-3.0372320134279267
-3.049540957757918
-3.0372320134279267
-3.074158846417929
-3.0618499020879373
-2.994150708272913
-3.049540957757918
-3.117240151572942
-3.0864677907479487
-3.074158846417929
-3.092622262912931
-3.0680043742529195
-3.1110856794079322
-3.117240151572942
-3.1233946237379517
-3.1295490959029335
-3.1233946237379517
-3.154166984562973
-3.1233946237379517
-3.1295490959029335
-3.141858040232953
-3.1295490959029335
-3.092622262912931
-3.160321456727955
-3.160321456727955
-3.1480125123979352
-3.1480125123979352
-3.160321456727955
-3.154166984562973
-3.141858040232953
-3.1295490959029335
-3.1480125123979352
-3.160321456727955
-3.160321456727955
-3.178784873222984
-3.141858040232953
-3.178784873222984
-3.2034027618829675
-3.184939345387966
-3.178784873222984
-3.1972482897179852
-3.178784873222984
-3.184939345387966
-3.1972482897179852
-3.1726304010579747
-3.178784873222984
-3.1726304010579747
-3.184939345387966
-3.184939345387966
-3.2095572340479768
-3.3511100938430074
-3.9542483660130747
-4.625085831998166
-4.637394776328185
-4.538923221688168
-4.489687444368147
-4.458915083543152
-4.41583377838814
-4.366598001068144
-4.341980112408135
-4.323516695913132
-4.292744335088139
-4.28658986292313
-4.151191475293109
-3.935784949518073
-4.028102031993082
-4.132728058798108
-4.138882530963118
-4.126573586633098
-4.114264642303106
-4.0958012258081045
-4.083492281478085
-4.366598001068144
-4.341980112408135
-4.1573459474581185
-4.120419114468116
-4.089646753643096
-4.083492281478085
-4.0465654484880815
-4.028102031993082
-4.0219475598280985
-4.028102031993082
-4.015793087663089
-4.015793087663089
-3.9850207268380964
-3.9788662546730857
-3.972711782508076
-3.972711782508076
-3.9665573103430942
-3.9480938938480934
-3.9604028381780845
-3.9542483660130747
-3.923476005188081
-3.9111670608580615
-3.9604028381780845
-3.9173215330230713
-3.8927036443630603
-3.8865491721980785
-3.868085755703077
-3.868085755703077
-3.855776811373057
-3.837313394878056
-3.837313394878056
-3.849622339208075
-3.8311589227130742
-3.806541034053063
-3.788077617558061
-3.7511507845680576
-3.664988174258033
-3.6896060629180436
-3.6465247577630313
-3.6465247577630313
-3.640370285598049
-3.6219068691030203
-3.6711426464230414
-3.720378423743037
-3.7511507845680576
-3.7511507845680576
-3.7634597288980496
-3.375727982502991
-3.1357035680679433
-2.895679153632896
-2.8218254876528905
-2.760280766002876
-2.7171994608478913
-2.6925815721878803
-2.6987360443528896
-2.612573434042864
-2.6987360443528896
-2.8156710154879088
-2.766435238167886
-2.7418173495078744
-2.766435238167886
-2.7848986546628876
-2.778744182497905
-2.760280766002876
-2.7848986546628876
-2.8279799598179
-2.8095165433228986
-2.8279799598179
-2.8402889041478923
-2.8402889041478923
-2.858752320642893
-2.895679153632896
-2.8464433763129016
-2.8895246814679143
-2.877215737137895
-2.907988097962916
-2.907988097962916
-2.895679153632896
-2.9141425701278982
-2.9202970422929075
-2.9633783474479203
-3.0618499020879373
-3.2218661783779687
-3.4188092876580036
-3.849622339208075
-4.120419114468116
-4.120419114468116
-4.114264642303106
-4.071183337148093
-4.0465654484880815
-4.0219475598280985
-3.9665573103430942
-3.9050125886930798
-3.825004450548064
-3.874240227868059
-3.8988581165280705
-3.849622339208075
-3.868085755703077
-3.855776811373057
-3.8434678670430653
-3.837313394878056
-3.8188499783830547
-3.800386561888053
-3.788077617558061
-3.7696142010630598
-3.781923145393051
-3.800386561888053
-3.8803947000330687
-3.7942320897230712
-3.75730525673304
-3.7757686732280415
-3.726532895908047
-3.701915007248036
-3.6219068691030203
-3.38803692683301
-3.6834515907530343
-3.6711426464230414
-3.6711426464230414
-3.7942320897230712
-4.0219475598280985
-3.732687368073057
-3.6711426464230414
-3.726532895908047
-3.6711426464230414
-3.664988174258033
-3.6711426464230414
-3.6280613412680296
-3.6465247577630313
-3.6219068691030203
-3.634215813433039
-3.615752396938038
-3.615752396938038
-3.5911345082780266
-3.597288980443037
-3.4434271763180146
-3.2034027618829675
-3.1480125123979352
-3.548053203123014
-3.529589786628012
-3.535744258793022
-3.517280842298021
-3.5418987309580316
-3.812695506218072
-3.837313394878056
-3.634215813433039
-3.5726710917830253
-3.5726710917830253
-3.5726710917830253
-3.560362147453033
-3.560362147453033
-3.5418987309580316
-3.5726710917830253
-3.5665166196180156
-3.535744258793022
-3.548053203123014
-3.5418987309580316
-3.548053203123014
-3.548053203123014
-3.5418987309580316
-3.535744258793022
-3.5418987309580316
-3.5418987309580316
-3.529589786628012
-3.6280613412680296
-3.8188499783830547
-3.6219068691030203
-3.578825563948035
-3.5726710917830253
-3.548053203123014
-3.548053203123014
-3.560362147453033
-3.5418987309580316
-3.5418987309580316
-3.517280842298021
-3.5234353144630304
-3.5418987309580316
-3.548053203123014
-3.5234353144630304
-3.504971897968029
-3.511126370133011
-3.535744258793022
-3.424963759823013
-3.504971897968029
-3.6465247577630313
-3.5418987309580316
-3.535744258793022
-3.529589786628012
-3.535744258793022
-3.511126370133011
-3.5418987309580316
-3.504971897968029
-3.504971897968029
-3.474199537143008
-3.548053203123014
-3.504971897968029
-3.504971897968029
-3.4988174258030194
-3.3141832608529764
-3.4311182319879947
-3.578825563948035
-3.5665166196180156
-3.504971897968029
-3.4988174258030194
-3.492662953638009
-3.4988174258030194
-3.461890592813016
-3.4803540093080176
-3.4865084814730274
-3.4803540093080176
-3.468045064977998
-3.4865084814730274
-3.474199537143008
-3.468045064977998
-3.4865084814730274
-3.4557361206480066
-3.492662953638009
-3.468045064977998
-3.474199537143008
-3.4557361206480066
-3.468045064977998
-3.369573510338009
-3.3203377330179857
-3.381882454668
-3.381882454668
-3.363419038172999
-3.363419038172999
-3.3511100938430074
-3.38803692683301
-3.394191398997992
-3.4434271763180146
-3.504971897968029
-3.4865084814730274
-3.492662953638009
-3.504971897968029
-3.5726710917830253
-3.615752396938038
-3.3203377330179857
-3.726532895908047
-3.6280613412680296
-3.4865084814730274
-3.474199537143008
-3.4434271763180146
-3.4434271763180146
-3.449581648482997
-3.4311182319879947
-3.4434271763180146
-3.424963759823013
-3.4311182319879947
-3.394191398997992
-3.400345871163002
-3.4188092876580036
-3.4311182319879947
-3.4434271763180146
-3.4311182319879947
-3.4311182319879947
-3.4434271763180146
-3.4188092876580036
-3.424963759823013
-3.424963759823013
-3.406500343328012
-3.4557361206480066
-3.424963759823013
-3.394191398997992
-3.424963759823013
-3.4988174258030194
-3.4434271763180146
-3.4557361206480066
-3.4126548154929934
-3.424963759823013
-3.394191398997992
-3.424963759823013
-3.4126548154929934
-3.406500343328012
-3.4126548154929934
-3.38803692683301
-3.394191398997992
-3.38803692683301
-3.363419038172999
-3.3326466773480057
-3.375727982502991
-3.3511100938430074
-3.375727982502991
-3.369573510338009
-3.363419038172999
-3.375727982502991
-3.394191398997992
-3.3511100938430074
-3.363419038172999
-3.3511100938430074
-3.369573510338009
-3.38803692683301
-3.357264566007989
-3.406500343328012
-3.38803692683301
-3.38803692683301
-3.38803692683301
-3.400345871163002
-3.375727982502991
-3.38803692683301
-3.289565372192993
-3.400345871163002
-3.461890592813016
-3.4126548154929934
-3.406500343328012
-3.400345871163002
-3.394191398997992
-3.424963759823013
-3.4434271763180146
-3.381882454668
-3.4126548154929934
-3.38803692683301
-3.38803692683301
-3.394191398997992
-3.4126548154929934
-3.406500343328012
-3.406500343328012
-3.381882454668
-3.4126548154929934
-3.381882454668
-3.375727982502991
-3.2711019556979917
-3.3203377330179857
-3.38803692683301
-3.326492205182996
-3.344955621677997
-3.424963759823013
-3.38803692683301
-3.381882454668
-3.394191398997992
-3.38803692683301
-3.38803692683301
-3.363419038172999
-3.38803692683301
-3.400345871163002
-3.437272704153005
-3.468045064977998
-3.4126548154929934
-3.4188092876580036
-3.400345871163002
-3.4434271763180146
-3.394191398997992
-3.394191398997992
-3.400345871163002
-3.406500343328012
-3.406500343328012
-3.4188092876580036
-3.406500343328012
-3.394191398997992
-3.381882454668
-3.4188092876580036
-3.406500343328012
-3.400345871163002
-3.406500343328012
-3.400345871163002
-3.406500343328012
-3.381882454668
-3.4126548154929934
-3.308028788687994
-3.0680043742529195
-3.357264566007989
-3.375727982502991
-3.3511100938430074
-3.3511100938430074
-3.6465247577630313
-3.6896060629180436
-3.461890592813016
-3.449581648482997
-3.4311182319879947
-3.437272704153005
-3.4188092876580036
-3.394191398997992
-3.357264566007989
-3.4434271763180146
-3.424963759823013
-3.381882454668
-3.394191398997992
-3.394191398997992
-3.38803692683301
-3.381882454668
-3.38803692683301
-3.38803692683301
-3.381882454668
-3.400345871163002
-3.375727982502991
-3.38803692683301
-3.381882454668
-3.394191398997992
-3.3511100938430074
-3.338801149512988
-3.160321456727955
-2.8895246814679143
-2.6371913227028756
-2.544874240227868
-2.4587116299178424
-2.4587116299178424
-2.4648661020828517
-2.501792935072855
-2.55718318455786
-2.5941100175478624
-2.6002644897128726
-2.563337656722869
-2.526410823732866
-2.544874240227868
-2.544874240227868
-2.507947407237865
-2.5325652958978484
-2.55718318455786
-2.575646601052861
-2.55718318455786
-2.55102871239285
-2.544874240227868
-2.501792935072855
-2.4894839907428636
-2.495638462907845
-2.526410823732866
-2.587955545382853
-2.6371913227028756
-2.655654739197877
-2.7171994608478913
-2.649500267032867
-2.563337656722869
-2.5694921288878514
-2.6987360443528896
-2.766435238167886
-2.711044988682881
-2.7418173495078744
-2.735662877342893
-2.754126293837894
-2.729508405177883
-2.747971821672884
-2.766435238167886
-2.8033620711578893
-2.778744182497905
-2.8156710154879088
-2.9572238752829105
-2.907988097962916
-2.8218254876528905
-2.8279799598179
-2.8649067928079033
-2.8649067928079033
-2.8525978484779113
-2.883370209302905
-2.8895246814679143
-2.877215737137895
-2.8895246814679143
-2.9387604587879093
-3.049540957757918
-3.289565372192993
-3.634215813433039
-3.8803947000330687
-3.726532895908047
-3.344955621677997
-3.1110856794079322
-2.994150708272913
-2.932605986622927
-2.895679153632896
-2.883370209302905
-2.901833625797906
-3.215711706212987
-3.092622262912931
-2.9387604587879093
-2.907988097962916
-2.871061264972913
-2.9633783474479203
-2.944914930952919
-2.9387604587879093
-2.9202970422929075
-2.944914930952919
-2.9202970422929075
-2.932605986622927
-2.932605986622927
-2.9264515144579173
-2.932605986622927
-2.9202970422929075
-2.9387604587879093
-2.9141425701278982
-2.901833625797906
-2.8464433763129016
-2.9387604587879093
-2.895679153632896
-2.858752320642893
-3.043386485592936
-3.7634597288980496
-3.812695506218072
-3.861931283538067
-3.7757686732280415
-3.75730525673304
-3.6896060629180436
-3.6280613412680296
-3.517280842298021
-3.301874316522985
-3.24648406703798
-3.1049312072429505
-3.018768596932925
-2.9633783474479203
-2.9572238752829105
-2.9141425701278982
-2.9387604587879093
-2.9387604587879093
-2.96953281961293
-2.9633783474479203
-2.944914930952919
-2.9510694031179288
-2.9633783474479203
-2.932605986622927
-2.871061264972913
-2.932605986622927
-2.9633783474479203
-2.975687291777912
-2.9510694031179288
-2.975687291777912
-2.9818417639429216
-2.9879962361079313
-2.975687291777912
-3.006459652602933
-2.994150708272913
-3.006459652602933
-3.0003051804379233
-3.0126141247679152
-3.0310775412629165
-3.0987767350779407
-3.0680043742529195
-3.018768596932925
-3.0310775412629165
-3.0372320134279267
-3.043386485592936
-3.0618499020879373
-3.049540957757918
-3.049540957757918
-3.0680043742529195
-3.0618499020879373
-3.055695429922928
-3.0618499020879373
-3.018768596932925
-3.1110856794079322
-3.080313318582939
-3.0864677907479487
-3.0680043742529195
-3.0864677907479487
-3.080313318582939
-3.080313318582939
-3.0864677907479487
-3.074158846417929
-2.994150708272913
-3.0618499020879373
-3.1726304010579747
-3.1110856794079322
-3.074158846417929
-3.074158846417929
-3.1049312072429505
-3.0864677907479487
-3.1233946237379517
-3.1233946237379517
-3.1295490959029335
-3.1110856794079322
-3.1233946237379517
-3.1295490959029335
-3.1480125123979352
-3.1295490959029335
-3.154166984562973
-3.1664759288929645
-3.1480125123979352
-3.1664759288929645
-3.1664759288929645
-3.1480125123979352
-3.1726304010579747
-3.178784873222984
-3.1664759288929645
-3.006459652602933
-3.2095572340479768
-3.25263853920299
-3.160321456727955
-3.1664759288929645
-3.160321456727955
-3.1664759288929645
-3.141858040232953
-3.1357035680679433
-3.178784873222984
-3.1664759288929645
-3.160321456727955
-3.141858040232953
-3.1726304010579747
-3.1726304010579747
-3.184939345387966
-3.1972482897179852
-3.2711019556979917
-3.338801149512988
-3.492662953638009
-3.664988174258033
-3.800386561888053
-3.6957605350830534
-3.6034434526080172
-3.664988174258033
-3.7142239515780546
-3.7449963124030474
-3.6711426464230414
-3.664988174258033
-3.634215813433039
-3.6772971185880525
-3.701915007248036
-3.726532895908047
-3.615752396938038
-3.615752396938038
-3.6465247577630313
-3.8988581165280705
-4.028102031993082
-3.9665573103430942
-4.071183337148093
-4.366598001068144
-4.225045141273115
-4.058874392818101
-4.0958012258081045
-4.108110170138096
-4.145037003128099
-4.126573586633098
-4.126573586633098
-4.108110170138096
-4.101955697973114
-4.108110170138096
-4.200427252613103
-4.071183337148093
-4.028102031993082
-4.009638615498079
-3.9850207268380964
-3.9604028381780845
-3.9296304773530633
-3.923476005188081
-3.923476005188081
-3.9050125886930798
-3.8927036443630603
-3.8803947000330687
-3.855776811373057
-3.812695506218072
-3.788077617558061
-3.874240227868059
-3.812695506218072
-3.825004450548064
-3.825004450548064
-3.7942320897230712
-3.8311589227130742
-3.7634597288980496
-3.7696142010630598
-3.7757686732280415
-3.75730525673304
-3.738841840238039
-3.732687368073057
-3.738841840238039
-3.554207675288024
-3.548053203123014
-3.6772971185880525
-3.658833702093051
-3.6772971185880525
-3.6772971185880525
-3.658833702093051
-3.664988174258033
-3.6465247577630313
-3.6711426464230414
-3.640370285598049
-3.640370285598049
-3.634215813433039
-3.6219068691030203
-3.7511507845680576
-3.806541034053063
-3.658833702093051
-3.6280613412680296
-3.511126370133011
-3.6034434526080172
-3.6465247577630313
-3.535744258793022
-3.3203377330179857
-3.018768596932925
-2.772589710332896
-2.618727906207874
-2.5694921288878514
-2.5387197680628577
-2.501792935072855
-2.5141018794028467
-2.526410823732866
-2.5141018794028467
-2.520256351567857
-2.55102871239285
-2.55718318455786
-2.575646601052861
-2.581801073217871
-2.587955545382853
-2.6002644897128726
-2.6002644897128726
-2.612573434042864
-2.624882378372884
-2.612573434042864
-2.6433457948678853
-2.674118155692878
-2.674118155692878
-2.655654739197877
-2.661809211362886
-2.667963683527869
-2.6925815721878803
-2.711044988682881
-2.6987360443528896
-2.704890516517872
-2.6987360443528896
-2.723353933012873
-2.704890516517872
-2.7171994608478913
-2.680272627857888
-2.735662877342893
-2.747971821672884
-2.729508405177883
-2.7418173495078744
-2.760280766002876
-2.747971821672884
-2.778744182497905
-2.772589710332896
-2.772589710332896
-2.8095165433228986
-2.7910531268278973
-2.8033620711578893
-2.797207598992907
-2.8033620711578893
-2.8033620711578893
-2.8402889041478923
-2.8279799598179
-2.858752320642893
-2.7848986546628876
-2.520256351567857
-2.7848986546628876
-3.018768596932925
-3.160321456727955
-2.9387604587879093
-2.9141425701278982
-2.8895246814679143
-2.901833625797906
-2.858752320642893
-2.858752320642893
-2.8895246814679143
-2.9202970422929075
-2.907988097962916
-2.9141425701278982
-2.907988097962916
-2.932605986622927
-2.932605986622927
-2.932605986622927
-2.9202970422929075
-2.9264515144579173
-2.932605986622927
-2.932605986622927
-2.9510694031179288
-2.994150708272913
-2.994150708272913
-2.9818417639429216
-2.9818417639429216
-2.9818417639429216
-2.994150708272913
-2.9818417639429216
-2.9818417639429216
-2.994150708272913
-3.0126141247679152
-3.0249230690979347
-3.0618499020879373
-3.117240151572942
-3.1233946237379517
-3.1726304010579747
-3.1664759288929645
-3.141858040232953
-3.0864677907479487
-3.0618499020879373
-2.8402889041478923
-2.8218254876528905
-2.9879962361079313
-3.055695429922928
-3.018768596932925
-3.018768596932925
-3.0249230690979347
-3.1049312072429505
-3.375727982502991
-3.0987767350779407
-3.092622262912931
-3.074158846417929
-3.055695429922928
-3.074158846417929
-3.0618499020879373
-3.080313318582939
-3.092622262912931
-3.0680043742529195
-3.0864677907479487
-3.080313318582939
-3.092622262912931
-3.0618499020879373
-3.0864677907479487
-3.1295490959029335
-3.0618499020879373
-3.074158846417929
-3.0864677907479487
-3.117240151572942
-3.1049312072429505
-3.1233946237379517
-3.1233946237379517
-3.1110856794079322
-3.1295490959029335
-3.141858040232953
-3.1357035680679433
-3.1480125123979352
-3.1357035680679433
-3.154166984562973
-3.178784873222984
-3.178784873222984
-3.215711706212987
-3.215711706212987
-3.24648406703798
-3.2095572340479768
-3.2280206505429785
-3.1972482897179852
-3.184939345387966
-3.154166984562973
-3.160321456727955
-3.1295490959029335
-3.1295490959029335
-3.0987767350779407
-3.092622262912931
-3.055695429922928
-3.0249230690979347
-2.994150708272913
-2.994150708272913
-3.018768596932925
-3.074158846417929
-3.1295490959029335
-3.160321456727955
-3.215711706212987
-3.141858040232953
-3.006459652602933
-3.301874316522985
-3.301874316522985
-3.2218661783779687
-3.2341751227079882
-3.215711706212987
-3.2280206505429785
-3.2280206505429785
-3.215711706212987
-3.2403295948729705
-3.24648406703798
-3.326492205182996
-3.394191398997992
-3.461890592813016
-3.535744258793022
-3.615752396938038
-3.6465247577630313
-3.548053203123014
-4.0404109763231
-4.138882530963118
-4.261971974263118
-4.249663029933126
-3.868085755703077
-3.5911345082780266
-3.6834515907530343
-3.308028788687994
-3.1972482897179852
-3.1295490959029335
-3.141858040232953
-3.215711706212987
-3.338801149512988
-3.369573510338009
-3.2711019556979917
-3.178784873222984
-3.1357035680679433
-3.092622262912931
-3.080313318582939
-3.080313318582939
-3.0680043742529195
-3.0618499020879373
-3.074158846417929
-3.080313318582939
-3.074158846417929
-3.092622262912931
-3.0618499020879373
-3.0864677907479487
-3.141858040232953
-3.1110856794079322
-3.1049312072429505
-3.0987767350779407
-3.1110856794079322
-3.080313318582939
-3.1110856794079322
-3.117240151572942
-3.160321456727955
-3.178784873222984
-3.289565372192993
-3.375727982502991
-3.394191398997992
-3.4434271763180146
-3.4865084814730274
-3.578825563948035
-3.6711426464230414
-3.7757686732280415
-4.145037003128099
-4.42198825055315
-4.440451667048151
-4.42198825055315
-4.391215889728128
-4.341980112408135
-4.3173622237481215
-4.305053279418131
-4.261971974263118
-4.2311996134381245
-4.200427252613103
-4.249663029933126
-4.163500419623101
-4.1573459474581185
-4.126573586633098
-4.101955697973114
-3.935784949518073
-4.052719920653092
-4.132728058798108
-3.9788662546730857
-3.9296304773530633
-3.9542483660130747
-3.972711782508076
-3.9542483660130747
-3.9173215330230713
-3.8927036443630603
-3.9296304773530633
-3.9111670608580615
-3.9050125886930798
-3.8988581165280705
-3.8865491721980785
-3.8803947000330687
-3.868085755703077
-3.874240227868059
-3.837313394878056
-3.825004450548064
-3.8188499783830547
-3.812695506218072
-3.8434678670430653
-3.855776811373057
-3.825004450548064
-3.812695506218072
-3.781923145393051
-3.7942320897230712
-3.7634597288980496
-3.7757686732280415
-3.5665166196180156
-3.8434678670430653
-3.855776811373057
-3.7511507845680576
-3.75730525673304
-3.726532895908047
-3.7080694794130453
-3.781923145393051
-3.75730525673304
-3.720378423743037
-3.701915007248036
-3.7080694794130453
-3.6957605350830534
-3.6834515907530343
-3.6772971185880525
-3.6772971185880525
-3.658833702093051
-3.664988174258033
-3.640370285598049
-3.640370285598049
-3.640370285598049
-3.6465247577630313
-3.6465247577630313
-3.6465247577630313
-3.6219068691030203
-3.615752396938038
-3.6465247577630313
-3.634215813433039
-3.517280842298021
-3.2218661783779687
-3.5849800361130173
-3.5849800361130173
-3.9111670608580615
-3.788077617558061
-3.6280613412680296
-3.578825563948035
-3.658833702093051
-3.6034434526080172
-3.597288980443037
-3.5849800361130173
-3.554207675288024
-3.597288980443037
-3.5849800361130173
-3.5665166196180156
-3.5726710917830253
-3.5849800361130173
-3.5665166196180156
-3.560362147453033
-3.5418987309580316
-3.511126370133011
-3.4557361206480066
-3.517280842298021
-3.517280842298021
-3.5418987309580316
-3.5234353144630304
-3.5234353144630304
-3.517280842298021
-3.535744258793022
-3.529589786628012
-3.529589786628012
-3.517280842298021
-3.517280842298021
-3.511126370133011
-3.504971897968029
-3.6280613412680296
-3.560362147453033
-3.5418987309580316
-3.517280842298021
-3.517280842298021
-3.517280842298021
-3.529589786628012
-3.5418987309580316
-3.517280842298021
-3.4988174258030194
-3.5234353144630304
-3.504971897968029
-3.511126370133011
-3.492662953638009
-3.492662953638009
-3.363419038172999
-3.548053203123014
-3.578825563948035
-3.517280842298021
-3.511126370133011
-3.4803540093080176
-3.4865084814730274
-3.4988174258030194
-3.474199537143008
-3.468045064977998
-3.474199537143008
-3.468045064977998
-3.4434271763180146
-3.400345871163002
-3.492662953638009
-3.5234353144630304
-3.449581648482997
-3.4434271763180146
-3.369573510338009
-3.369573510338009
-3.3511100938430074
-3.357264566007989
-3.344955621677997
-3.400345871163002
-3.4434271763180146
-3.4865084814730274
-3.474199537143008
-3.4188092876580036
-3.504971897968029
-3.4865084814730274
-3.468045064977998
-3.4434271763180146
-3.437272704153005
-3.4188092876580036
-3.4434271763180146
-3.406500343328012
-3.4188092876580036
-3.406500343328012
-3.424963759823013
-3.4126548154929934
-3.394191398997992
-3.406500343328012
-3.381882454668
-3.4126548154929934
-3.4126548154929934
-3.406500343328012
-3.38803692683301
-3.400345871163002
-3.38803692683301
-3.4126548154929934
-3.406500343328012
-3.4188092876580036
-3.394191398997992
-3.38803692683301
-3.394191398997992
-3.394191398997992
-3.38803692683301
-3.437272704153005
-3.394191398997992
-3.381882454668
-3.4188092876580036
-3.375727982502991
-3.394191398997992
-3.3326466773480057
-3.141858040232953
-3.215711706212987
-3.3141832608529764
-3.344955621677997
-3.369573510338009
-3.326492205182996
-3.338801149512988
-3.4434271763180146
-3.308028788687994
-3.4126548154929934
-3.344955621677997
-3.344955621677997
-3.3326466773480057
-3.338801149512988
-3.3326466773480057
-3.548053203123014
-3.6465247577630313
-3.4126548154929934
-3.375727982502991
-3.3511100938430074
-3.406500343328012
-3.4311182319879947
-3.363419038172999
-3.375727982502991
-3.369573510338009
-3.363419038172999
-3.375727982502991
-3.357264566007989
-3.369573510338009
-3.369573510338009
-3.369573510338009
-3.363419038172999
-3.4126548154929934
-3.369573510338009
-3.24648406703798
-3.1233946237379517
-3.3203377330179857
-3.338801149512988
-3.344955621677997
-3.3511100938430074
-3.344955621677997
-3.344955621677997
-3.357264566007989
-3.357264566007989
-3.357264566007989
-3.363419038172999
-3.357264566007989
-3.357264566007989
-3.381882454668
-3.5418987309580316
-3.4311182319879947
-3.400345871163002
-3.381882454668
-3.369573510338009
-3.381882454668
-3.375727982502991
-3.375727982502991
-3.357264566007989
-3.363419038172999
-3.357264566007989
-3.369573510338009
-3.357264566007989
-3.338801149512988
-3.38803692683301
-3.394191398997992
-3.369573510338009
-3.369573510338009
-3.357264566007989
-3.357264566007989
-3.344955621677997
-3.357264566007989
-3.264947483532982
-3.3326466773480057
-3.424963759823013
-3.369573510338009
-3.3511100938430074
-3.338801149512988
-3.24648406703798
-3.3511100938430074
-3.3511100938430074
-3.3141832608529764
-3.344955621677997
-3.344955621677997
-3.3511100938430074
-3.3326466773480057
-3.338801149512988
-3.3511100938430074
-3.338801149512988
-3.3203377330179857
-3.326492205182996
-3.326492205182996
-3.381882454668
-3.437272704153005
-3.363419038172999
-3.357264566007989
-3.3511100938430074
-3.344955621677997
-3.326492205182996
-3.3203377330179857
-3.3511100938430074
-3.344955621677997
-3.338801149512988
-3.326492205182996
-3.338801149512988
-3.3203377330179857
-3.3203377330179857
-3.308028788687994
-3.338801149512988
-3.344955621677997
-3.3326466773480057
-3.3203377330179857
-3.338801149512988
-3.326492205182996
-3.3326466773480057
-3.326492205182996
-3.338801149512988
-3.3326466773480057
-3.3141832608529764
-3.326492205182996
-3.308028788687994
-3.2957198443579747
-3.3141832608529764
-3.3326466773480057
-3.3203377330179857
-3.3203377330179857
-3.25263853920299
-3.2280206505429785
-3.449581648482997
-3.338801149512988
-3.24648406703798
-3.0310775412629165
-3.1972482897179852
-3.25263853920299
-3.344955621677997
-3.634215813433039
-3.468045064977998
-3.3326466773480057
-3.326492205182996
-3.344955621677997
-3.326492205182996
-3.3511100938430074
-3.3511100938430074
-3.338801149512988
-3.363419038172999
-3.369573510338009
-3.363419038172999
-3.344955621677997
-3.3326466773480057
-3.344955621677997
-3.394191398997992
-3.38803692683301
-3.3326466773480057
-3.357264566007989
-3.344955621677997
-3.344955621677997
-3.3326466773480057
-3.338801149512988
-3.3326466773480057
-3.326492205182996
-3.344955621677997
-3.344955621677997
-3.3326466773480057
-3.2403295948729705
-3.1233946237379517
-3.289565372192993
-3.344955621677997
-3.2834109000279827
-3.289565372192993
-3.277256427862973
-3.24648406703798
-3.215711706212987
-3.2218661783779687
-3.2218661783779687
-3.264947483532982
-3.3203377330179857
-3.3511100938430074
-3.437272704153005
-3.6219068691030203
-3.474199537143008
-3.394191398997992
-3.375727982502991
-3.338801149512988
-3.3326466773480057
-3.357264566007989
-3.3326466773480057
-3.3326466773480057
-3.338801149512988
-3.308028788687994
-3.326492205182996
-3.3326466773480057
-3.3141832608529764
-3.308028788687994
-3.338801149512988
-3.2341751227079882
-3.2957198443579747
-3.4126548154929934
-3.326492205182996
-3.3326466773480057
-3.3326466773480057
-3.338801149512988
-3.338801149512988
-3.344955621677997
-3.338801149512988
-3.338801149512988
-3.3203377330179857
-3.326492205182996
-3.394191398997992
-3.338801149512988
-3.344955621677997
-3.357264566007989
-3.357264566007989
-3.326492205182996
-3.338801149512988
-3.344955621677997
-3.344955621677997
-3.344955621677997
-3.344955621677997
-3.3326466773480057
-3.344955621677997
-3.308028788687994
-3.369573510338009
-3.3511100938430074
-3.326492205182996
-3.3511100938430074
-3.308028788687994
-3.326492205182996
-3.3141832608529764
-3.3326466773480057
-3.301874316522985
-3.326492205182996
-3.3141832608529764
-3.3141832608529764
-3.3141832608529764
-3.3203377330179857
-3.2957198443579747
-3.338801149512988
-3.3326466773480057
-3.3203377330179857
-3.308028788687994
-3.3203377330179857
-3.344955621677997
-3.3326466773480057
-3.338801149512988
-3.344955621677997
-3.357264566007989
-3.338801149512988
-3.357264566007989
-3.338801149512988
-3.3203377330179857
-3.3203377330179857
-3.3511100938430074
-3.2711019556979917
-3.080313318582939
-3.24648406703798
-3.277256427862973
-3.3203377330179857
-3.3141832608529764
-3.344955621677997
-3.344955621677997
-3.357264566007989
-3.640370285598049
-3.529589786628012
-3.375727982502991
-3.369573510338009
-3.338801149512988
-3.326492205182996
-3.301874316522985
-3.289565372192993
-3.3141832608529764
-3.375727982502991
-3.338801149512988
-3.3141832608529764
-3.3141832608529764
-3.3141832608529764
-3.3326466773480057
-3.301874316522985
-3.301874316522985
-3.326492205182996
-3.3203377330179857
-3.301874316522985
-3.3203377330179857
-3.3141832608529764
-3.308028788687994
-3.3203377330179857
-3.289565372192993
-3.2834109000279827
-3.289565372192993
-3.3141832608529764
-3.2957198443579747
-3.289565372192993
-3.2957198443579747
-3.289565372192993
-3.2957198443579747
-3.3141832608529764
-3.289565372192993
-3.2957198443579747
-3.301874316522985
-3.2957198443579747
-3.2957198443579747
-3.3326466773480057
-3.301874316522985
-3.2957198443579747
-3.308028788687994
-3.2957198443579747
-3.301874316522985
-3.3326466773480057
-3.3326466773480057
-3.326492205182996
-3.308028788687994
-3.289565372192993
-3.308028788687994
-3.3203377330179857
-3.2957198443579747
-3.2957198443579747
-3.301874316522985
-3.074158846417929
-2.9633783474479203
-3.3511100938430074
-3.24648406703798
-3.25263853920299
-3.289565372192993
-3.289565372192993
-3.277256427862973
-3.5665166196180156
-3.5665166196180156
-3.381882454668
-3.344955621677997
-3.3141832608529764
-3.3511100938430074
-3.308028788687994
-3.3326466773480057
-3.326492205182996
-3.289565372192993
-3.2957198443579747
-3.357264566007989
-3.3141832608529764
-3.308028788687994
-3.3141832608529764
-3.308028788687994
-3.308028788687994
-3.338801149512988
-3.308028788687994
-3.301874316522985
-3.2957198443579747
-3.2957198443579747
-3.289565372192993
-3.2957198443579747
-3.289565372192993
-3.289565372192993
-3.2957198443579747
-3.289565372192993
-3.308028788687994
-3.2834109000279827
-3.301874316522985
-3.3326466773480057
-3.338801149512988
-3.308028788687994
-3.2957198443579747
-3.3141832608529764
-3.326492205182996
-3.2957198443579747
-3.3203377330179857
-3.437272704153005
-3.357264566007989
-3.357264566007989
-3.3511100938430074
-3.344955621677997
-3.301874316522985
-3.3141832608529764
-3.326492205182996
-3.3511100938430074
-3.3203377330179857
-3.326492205182996
-3.24648406703798
-3.049540957757918
-3.1726304010579747
-3.1480125123979352
-3.258793011367972
-3.4557361206480066
-3.6280613412680296
-3.400345871163002
-3.3511100938430074
-3.3326466773480057
-3.3203377330179857
-3.2957198443579747
-3.277256427862973
-3.25263853920299
-3.2218661783779687
-3.2280206505429785
-3.1972482897179852
-3.215711706212987
-3.326492205182996
-3.3203377330179857
-3.326492205182996
-3.394191398997992
-3.344955621677997
-3.375727982502991
-3.357264566007989
-3.344955621677997
-3.326492205182996
-3.3326466773480057
-3.344955621677997
-3.3326466773480057
-3.308028788687994
-3.24648406703798
-3.369573510338009
-3.308028788687994
-3.3141832608529764
-3.338801149512988
-3.3141832608529764
-3.308028788687994
-3.344955621677997
-3.3326466773480057
-3.3326466773480057
-3.3141832608529764
-3.3326466773480057
-3.3326466773480057
-3.3141832608529764
-3.2711019556979917
-3.2403295948729705
-3.289565372192993
-3.301874316522985
-3.3203377330179857
-3.308028788687994
-3.3203377330179857
-3.2834109000279827
-3.308028788687994
-3.308028788687994
-3.2957198443579747
-3.277256427862973
-3.289565372192993
-3.277256427862973
-3.2403295948729705
-3.2957198443579747
-3.326492205182996
-3.301874316522985
-3.258793011367972
-3.178784873222984
-3.2711019556979917
-3.369573510338009
-3.264947483532982
-3.277256427862973
-3.258793011367972
-3.2834109000279827
-3.2711019556979917
-3.2711019556979917
-3.2834109000279827
-3.338801149512988
-3.394191398997992
-3.2957198443579747
-3.289565372192993
-3.2711019556979917
-3.258793011367972
-3.258793011367972
-3.2834109000279827
-3.2711019556979917
-3.289565372192993
-3.289565372192993
-3.2957198443579747
-3.2834109000279827
-3.277256427862973
-3.0987767350779407
-3.1480125123979352
-3.264947483532982
-3.277256427862973
-3.2834109000279827
-3.301874316522985
-3.2711019556979917
-3.301874316522985
-3.3141832608529764
-3.277256427862973
-3.2957198443579747
-3.301874316522985
-3.301874316522985
-3.258793011367972
-3.375727982502991
-3.424963759823013
-3.3203377330179857
-3.326492205182996
-3.2957198443579747
-3.289565372192993
-3.2711019556979917
-3.301874316522985
-3.264947483532982
-3.2957198443579747
-3.264947483532982
-3.2834109000279827
-3.2834109000279827
-3.2711019556979917
-3.277256427862973
-3.2834109000279827
-3.308028788687994
-3.289565372192993
-3.2957198443579747
-3.301874316522985
-3.191093817552976
-3.055695429922928
-3.554207675288024
-3.38803692683301
-3.301874316522985
-3.308028788687994
-3.3141832608529764
-3.277256427862973
-3.301874316522985
-3.3326466773480057
-3.2834109000279827
-2.9141425701278982
-2.5141018794028467
-2.329467714452832
-2.2740774649678275
-2.2679229928028177
-2.2371506319778245
-2.261768520637808
-2.261768520637808
-2.2802319371328093
-2.286386409297819
-2.3110042979578305
-2.3171587701228398
-2.3110042979578305
-2.329467714452832
-2.378703491772827
-2.3663945474428347
-2.378703491772827
-2.409475852597848
-2.4402482134228407
-2.4525571577528327
-2.4648661020828517
-2.495638462907845
-2.477175046412844
-2.5325652958978484
-2.520256351567857
-2.5141018794028467
-2.520256351567857
-2.587955545382853
-2.5694921288878514
-2.581801073217871
-2.581801073217871
-2.575646601052861
-2.606418961877855
-2.5941100175478624
-2.631036850537866
-2.624882378372884
-2.624882378372884
-2.661809211362886
-2.6925815721878803
-2.6371913227028756
-2.649500267032867
-2.68642710002287
-2.68642710002287
-2.674118155692878
-2.6925815721878803
-2.6987360443528896
-2.729508405177883
-2.729508405177883
-2.723353933012873
-2.723353933012873
-2.704890516517872
-2.735662877342893
-2.7418173495078744
-2.631036850537866
-2.704890516517872
-2.606418961877855
-2.680272627857888
-2.7171994608478913
-2.711044988682881
-2.747971821672884
-2.747971821672884
-2.754126293837894
-2.747971821672884
-2.7910531268278973
-2.772589710332896
-2.766435238167886
-2.7910531268278973
-2.7910531268278973
-2.8156710154879088
-2.907988097962916
-2.883370209302905
-2.8402889041478923
-2.8464433763129016
-2.8279799598179
-2.8649067928079033
-3.055695429922928
-3.4434271763180146
-3.9296304773530633
-4.151191475293109
-4.108110170138096
-4.077337809313103
-4.028102031993082
-3.972711782508076
-4.009638615498079
-4.028102031993082
-3.9604028381780845
-3.9419394216830828
-3.9173215330230713
-3.8927036443630603
-3.874240227868059
-3.8803947000330687
-3.861931283538067
-3.837313394878056
-3.806541034053063
-3.788077617558061
-3.738841840238039
-3.6957605350830534
-3.658833702093051
-3.6957605350830534
-3.640370285598049
-3.6280613412680296
-3.615752396938038
-3.609597924773028
-3.5418987309580316
-3.4126548154929934
-3.3511100938430074
-3.363419038172999
-3.363419038172999
-3.394191398997992
-3.474199537143008
-3.5418987309580316
-3.474199537143008
-3.264947483532982
-3.511126370133011
-3.554207675288024
-3.5849800361130173
-3.6219068691030203
-3.8803947000330687
-3.861931283538067
-3.6834515907530343
-3.6280613412680296
-3.640370285598049
-3.634215813433039
-3.6034434526080172
-3.5911345082780266
-3.369573510338009
-3.3511100938430074
-3.504971897968029
-3.6034434526080172
-3.554207675288024
-3.5665166196180156
-3.5726710917830253
-3.609597924773028
-3.9050125886930798
-3.7696142010630598
-3.6280613412680296
-3.597288980443037
-3.6034434526080172
-3.5849800361130173
-3.5665166196180156
-3.609597924773028
-3.701915007248036
-3.5726710917830253
-3.5665166196180156
-3.5418987309580316
-3.5418987309580316
-3.5418987309580316
-3.492662953638009
-3.394191398997992
-3.264947483532982
-3.1049312072429505
-3.0003051804379233
-2.9264515144579173
-2.901833625797906
-2.83413443198291
-2.8402889041478923
-2.9510694031179288
-2.9202970422929075
-2.901833625797906
-2.7910531268278973
-2.68642710002287
-2.587955545382853
-2.55102871239285
-2.5141018794028467
-2.520256351567857
-2.526410823732866
-2.55102871239285
-2.526410823732866
-2.5694921288878514
-2.6433457948678853
-2.5941100175478624
-2.606418961877855
-2.612573434042864
-2.6433457948678853
-2.649500267032867
-2.674118155692878
-2.667963683527869
-2.674118155692878
-2.7171994608478913
-2.729508405177883
-2.6433457948678853
-2.8095165433228986
-2.735662877342893
-2.754126293837894
-2.778744182497905
-2.754126293837894
-2.778744182497905
-2.760280766002876
-2.754126293837894
-2.6925815721878803
-2.871061264972913
-2.858752320642893
-2.8402889041478923
-2.8156710154879088
-2.83413443198291
-2.83413443198291
-2.8218254876528905
-2.83413443198291
-2.877215737137895
-2.8649067928079033
-2.858752320642893
-2.8895246814679143
-2.871061264972913
-2.8895246814679143
-2.8649067928079033
-2.901833625797906
-2.883370209302905
-2.895679153632896
-2.9141425701278982
-2.9141425701278982
-2.901833625797906
-2.901833625797906
-2.944914930952919
-2.9387604587879093
-2.9264515144579173
-2.932605986622927
-2.932605986622927
-2.9264515144579173
-2.9510694031179288
-2.9510694031179288
-2.9510694031179288
-2.96953281961293
-2.9818417639429216
-2.9572238752829105
-2.96953281961293
-2.9572238752829105
-2.9633783474479203
-3.0310775412629165
-2.994150708272913
-2.975687291777912
-2.9879962361079313
-3.006459652602933
-2.9879962361079313
-2.858752320642893
-2.661809211362886
-3.1972482897179852
-3.4434271763180146
-3.308028788687994
-3.461890592813016
-3.6834515907530343
-3.9850207268380964
-4.194272780448122
-4.200427252613103
-4.237354085603107
-4.225045141273115
-4.16965489178811
-4.132728058798108
-4.077337809313103
-4.065028864983084
-4.028102031993082
-4.003484143333097
-3.9604028381780845
-3.972711782508076
-3.923476005188081
-3.855776811373057
-3.8865491721980785
-3.8927036443630603
-3.849622339208075
-3.8188499783830547
-3.634215813433039
-3.215711706212987
-2.9141425701278982
-2.8095165433228986
-2.772589710332896
-2.729508405177883
-2.729508405177883
-2.747971821672884
-2.766435238167886
-2.7848986546628876
-2.8402889041478923
-2.8095165433228986
-2.8218254876528905
-2.8218254876528905
-2.8279799598179
-2.8279799598179
-2.8402889041478923
-2.8402889041478923
-2.83413443198291
-2.858752320642893
-2.858752320642893
-2.858752320642893
-2.8525978484779113
-2.8218254876528905
-2.901833625797906
-2.895679153632896
-2.895679153632896
-2.907988097962916
-2.901833625797906
-2.9264515144579173
-2.9141425701278982
-2.9264515144579173
-2.9510694031179288
-2.9387604587879093
-2.9572238752829105
-2.9572238752829105
-2.9818417639429216
-2.858752320642893
-2.6002644897128726
-2.895679153632896
-3.0249230690979347
-2.9633783474479203
-2.9818417639429216
-2.9818417639429216
-3.0126141247679152
-3.0003051804379233
-3.006459652602933
-3.0680043742529195
-3.0003051804379233
-3.0126141247679152
-3.0310775412629165
-3.117240151572942
-3.406500343328012
-3.1664759288929645
-3.0249230690979347
-2.9879962361079313
-2.96953281961293
-2.96953281961293
-2.994150708272913
-3.043386485592936
-3.0680043742529195
-3.092622262912931
-3.1295490959029335
-3.1110856794079322
-3.1357035680679433
-3.080313318582939
-2.96953281961293
-3.0618499020879373
-3.1110856794079322
-3.0987767350779407
-3.1110856794079322
-3.0987767350779407
-3.1295490959029335
-3.1233946237379517
-3.1233946237379517
-3.1357035680679433
-3.1357035680679433
-3.1233946237379517
-3.1110856794079322
-3.1110856794079322
-3.0987767350779407
-3.1664759288929645
-3.1357035680679433
-3.1295490959029335
-3.1233946237379517
-3.1295490959029335
-3.1295490959029335
-3.1357035680679433
-3.1233946237379517
-3.1480125123979352
-3.1357035680679433
-3.1233946237379517
-3.1295490959029335
-3.1110856794079322
-3.0864677907479487
-3.1295490959029335
-3.0249230690979347
-2.766435238167886
-3.1233946237379517
-3.092622262912931
-3.092622262912931
-3.092622262912931
-3.1726304010579747
-3.4865084814730274
-3.308028788687994
-3.178784873222984
-3.160321456727955
-3.160321456727955
-3.1357035680679433
-3.184939345387966
-3.1726304010579747
-3.178784873222984
-3.141858040232953
-3.160321456727955
-3.160321456727955
-3.154166984562973
-3.160321456727955
-3.154166984562973
-3.1357035680679433
-3.154166984562973
-3.1664759288929645
-3.1357035680679433
-3.1357035680679433
-3.154166984562973
-3.191093817552976
-3.160321456727955
-3.1664759288929645
-3.154166984562973
-3.160321456727955
-3.1664759288929645
-3.154166984562973
-3.1480125123979352
-3.1726304010579747
-3.160321456727955
-3.184939345387966
-3.1972482897179852
-3.1726304010579747
-3.154166984562973
-3.184939345387966
-3.184939345387966
-3.1726304010579747
-3.1726304010579747
-3.160321456727955
-3.191093817552976
-3.1726304010579747
-3.178784873222984
-3.1664759288929645
-3.184939345387966
-3.184939345387966
-3.191093817552976
-3.178784873222984
-3.184939345387966
-3.3141832608529764
-3.2341751227079882
-3.184939345387966
-3.1726304010579747
-3.2034027618829675
-3.184939345387966
-3.1972482897179852
-3.184939345387966
-3.092622262912931
-3.178784873222984
-3.25263853920299
-3.2095572340479768
-3.2095572340479768
-3.160321456727955
-3.1049312072429505
-3.1972482897179852
-3.1726304010579747
-3.1726304010579747
-3.1726304010579747
-3.1972482897179852
-3.2034027618829675
-3.2095572340479768
-3.178784873222984
-3.178784873222984
-3.1972482897179852
-3.2095572340479768
-3.178784873222984
-3.154166984562973
-3.184939345387966
-3.215711706212987
-3.049540957757918
-3.006459652602933
-3.0987767350779407
-3.160321456727955
-3.191093817552976
-3.1664759288929645
-3.184939345387966
-3.308028788687994
-3.5911345082780266
-3.3326466773480057
-3.264947483532982
-3.2403295948729705
-3.25263853920299
-3.258793011367972
-3.2341751227079882
-3.289565372192993
-3.215711706212987
-3.215711706212987
-3.258793011367972
-3.2403295948729705
-3.2403295948729705
-3.25263853920299
-3.2403295948729705
-3.2403295948729705
-3.2403295948729705
-3.2403295948729705
-3.154166984562973
-3.215711706212987
-3.215711706212987
-3.215711706212987
-3.2403295948729705
-3.2280206505429785
-3.2341751227079882
-3.215711706212987
-3.24648406703798
-3.2341751227079882
-3.1295490959029335
-2.96953281961293
-3.1480125123979352
-3.461890592813016
-3.517280842298021
-3.344955621677997
-3.2957198443579747
-3.25263853920299
-3.25263853920299
-3.25263853920299
-3.2403295948729705
-3.2341751227079882
-3.24648406703798
-3.258793011367972
-3.2341751227079882
-3.24648406703798
-3.2403295948729705
-3.2341751227079882
-3.2403295948729705
-3.2834109000279827
-3.24648406703798
-3.258793011367972
-3.2218661783779687
-3.25263853920299
-3.25263853920299
-3.2403295948729705
-3.25263853920299
-3.2341751227079882
-3.25263853920299
-3.25263853920299
-3.258793011367972
-3.264947483532982
-3.2711019556979917
-3.24648406703798
-3.2957198443579747
-3.264947483532982
-3.264947483532982
-3.2403295948729705
-3.264947483532982
-3.264947483532982
-3.24648406703798
-3.24648406703798
-3.2341751227079882
-3.2711019556979917
-3.24648406703798
-3.258793011367972
-3.2280206505429785
-3.154166984562973
-3.154166984562973
-3.160321456727955
-3.1233946237379517
-3.0987767350779407
-3.1295490959029335
-3.2095572340479768
-3.2341751227079882
-3.2834109000279827
-3.308028788687994
-3.2957198443579747
-3.357264566007989
-3.2341751227079882
-3.25263853920299
-3.24648406703798
-3.2834109000279827
-3.277256427862973
-3.178784873222984
-3.289565372192993
-3.3326466773480057
-3.2711019556979917
-3.258793011367972
-3.24648406703798
-3.25263853920299
-3.264947483532982
-3.24648406703798
-3.25263853920299
-3.215711706212987
-3.24648406703798
-3.25263853920299
-3.25263853920299
-3.24648406703798
-3.25263853920299
-3.2403295948729705
-3.258793011367972
-3.2403295948729705
-3.264947483532982
-3.264947483532982
-3.2341751227079882
-3.25263853920299
-3.25263853920299
-3.24648406703798
-3.2403295948729705
-3.1233946237379517
-3.1726304010579747
-3.2218661783779687
-3.24648406703798
-3.2711019556979917
-3.2280206505429785
-3.258793011367972
-3.2341751227079882
-3.2403295948729705
-3.24648406703798
-3.264947483532982
-3.25263853920299
-3.2341751227079882
-3.264947483532982
-3.394191398997992
-3.375727982502991
-3.2834109000279827
-3.264947483532982
-3.277256427862973
-3.264947483532982
-3.2711019556979917
-3.258793011367972
-3.2403295948729705
-3.2403295948729705
-3.2403295948729705
-3.2280206505429785
-3.2218661783779687
-3.2280206505429785
-3.1972482897179852
-3.24648406703798
-3.258793011367972
-3.277256427862973
-3.1233946237379517
-2.96953281961293
-3.160321456727955
-3.184939345387966
-3.2280206505429785
-3.2341751227079882
-3.24648406703798
-3.074158846417929
-3.6834515907530343
-3.5234353144630304
-3.3141832608529764
-3.3511100938430074
-3.2711019556979917
-3.2957198443579747
-3.2957198443579747
-3.2957198443579747
-3.2834109000279827
-3.277256427862973
-3.2218661783779687
-3.25263853920299
-3.277256427862973
-3.2711019556979917
-3.258793011367972
-3.2403295948729705
-3.264947483532982
-3.2403295948729705
-3.2957198443579747
-3.2711019556979917
-3.289565372192993
-3.2834109000279827
-3.2834109000279827
-3.289565372192993
-3.2957198443579747
-3.277256427862973
-3.277256427862973
-3.264947483532982
-3.2834109000279827
-3.2957198443579747
-3.2711019556979917
-3.2711019556979917
-3.258793011367972
-3.258793011367972
-3.264947483532982
-3.289565372192993
-3.24648406703798
-3.258793011367972
-3.215711706212987
-3.1480125123979352
-3.400345871163002
-3.289565372192993
-3.2403295948729705
-3.258793011367972
-3.25263853920299
-3.277256427862973
-3.277256427862973
-3.2711019556979917
-3.277256427862973
-3.258793011367972
-3.2711019556979917
-3.2711019556979917
-3.2711019556979917
-3.2711019556979917
-3.277256427862973
-3.264947483532982
-3.1726304010579747
-3.2834109000279827
-3.344955621677997
-3.24648406703798
-3.2834109000279827
-3.2957198443579747
-3.301874316522985
-3.301874316522985
-3.2834109000279827
-3.3203377330179857
-3.38803692683301
-3.529589786628012
-3.7757686732280415
-4.009638615498079
-4.1573459474581185
-4.329671168078142
-4.489687444368147
-4.477378500038154
-4.495841916533155
-4.434297194883141
-4.41583377838814
-4.360443528903135
-4.391215889728128
-4.2435085577681155
-4.261971974263118
-4.0342565041580905
-3.664988174258033
-3.437272704153005
-3.3141832608529764
-3.24648406703798
-3.1972482897179852
-3.1664759288929645
-3.191093817552976
-3.8803947000330687
-4.323516695913132
-4.28658986292313
-4.2435085577681155
-4.206581724778113
-4.163500419623101
-4.17580936395312
-4.126573586633098
-4.108110170138096
-4.0958012258081045
-4.077337809313103
-4.0342565041580905
-4.028102031993082
-4.0404109763231
-3.9111670608580615
-3.461890592813016
-3.5665166196180156
-3.9419394216830828
-3.9973296711680866
-4.003484143333097
-3.9542483660130747
-3.9542483660130747
-3.9665573103430942
-3.9542483660130747
-3.9111670608580615
-3.788077617558061
-3.640370285598049
-3.837313394878056
-3.923476005188081
-4.206581724778113
-4.0219475598280985
-3.8803947000330687
-3.8803947000330687
-3.855776811373057
-3.8434678670430653
-3.825004450548064
-3.7942320897230712
-3.7449963124030474
-3.726532895908047
-3.6711426464230414
-3.652679229928041
-3.615752396938038
-3.652679229928041
-3.6957605350830534
-3.7696142010630598
-3.7696142010630598
-3.7449963124030474
-3.7696142010630598
-3.75730525673304
-3.7511507845680576
-3.7142239515780546
-3.7142239515780546
-3.701915007248036
-3.6834515907530343
-3.664988174258033
-3.6772971185880525
-3.7080694794130453
-3.664988174258033
-3.6465247577630313
-3.652679229928041
-3.578825563948035
-3.381882454668
-3.437272704153005
-3.6465247577630313
-3.640370285598049
-3.5911345082780266
-3.609597924773028
-3.597288980443037
-3.8311589227130742
-3.8988581165280705
-3.6834515907530343
-3.6711426464230414
-3.640370285598049
-3.615752396938038
-3.609597924773028
-3.5911345082780266
-3.609597924773028
-3.5911345082780266
-3.578825563948035
-3.5726710917830253
-3.5726710917830253
-3.5665166196180156
-3.560362147453033
-3.5418987309580316
-3.449581648482997
-3.504971897968029
-3.517280842298021
-3.5418987309580316
-3.554207675288024
-3.548053203123014
-3.529589786628012
-3.5234353144630304
-3.504971897968029
-3.517280842298021
-3.517280842298021
-3.517280842298021
-3.5234353144630304
-3.4865084814730274
-3.554207675288024
-3.5849800361130173
-3.5418987309580316
-3.529589786628012
-3.511126370133011
-3.4988174258030194
-3.4988174258030194
-3.4865084814730274
-3.468045064977998
-3.492662953638009
-3.4865084814730274
-3.492662953638009
-3.461890592813016
-3.474199537143008
-3.4803540093080176
-3.529589786628012
-3.4988174258030194
-3.504971897968029
-3.511126370133011
-3.4988174258030194
-3.468045064977998
-3.4803540093080176
-3.4865084814730274
-3.4865084814730274
-3.474199537143008
-3.492662953638009
-3.381882454668
-3.461890592813016
-3.529589786628012
-3.468045064977998
-3.511126370133011
-3.474199537143008
-3.4865084814730274
-3.2711019556979917
-3.548053203123014
-3.5418987309580316
-3.4865084814730274
-3.468045064977998
-3.468045064977998
-3.468045064977998
-3.4803540093080176
-3.4803540093080176
-3.437272704153005
-3.474199537143008
-3.492662953638009
-3.4865084814730274
-3.461890592813016
-3.4803540093080176
-3.474199537143008
-3.369573510338009
-3.1972482897179852
-3.338801149512988
-3.400345871163002
-3.4126548154929934
-3.424963759823013
-3.4188092876580036
-3.4311182319879947
-3.634215813433039
-3.652679229928041
-3.504971897968029
-3.4865084814730274
-3.437272704153005
-3.4434271763180146
-3.449581648482997
-3.4311182319879947
-3.4188092876580036
-3.4557361206480066
-3.449581648482997
-3.4434271763180146
-3.4311182319879947
-3.4434271763180146
-3.449581648482997
-3.449581648482997
-3.4557361206480066
-3.424963759823013
-3.4557361206480066
-3.4311182319879947
-3.424963759823013
-3.4311182319879947
-3.406500343328012
-3.184939345387966
-3.24648406703798
-3.726532895908047
-3.4434271763180146
-3.4126548154929934
-3.437272704153005
-3.468045064977998
-3.4434271763180146
-3.4311182319879947
-3.406500343328012
-3.4188092876580036
-3.406500343328012
-3.4126548154929934
-3.400345871163002
-3.4188092876580036
-3.38803692683301
-3.400345871163002
-3.400345871163002
-3.406500343328012
-3.394191398997992
-3.38803692683301
-3.400345871163002
-3.375727982502991
-3.406500343328012
-3.25263853920299
-3.437272704153005
-3.4434271763180146
-3.406500343328012
-3.394191398997992
-3.4434271763180146
-3.357264566007989
-3.375727982502991
-3.369573510338009
-3.394191398997992
-3.369573510338009
-3.4188092876580036
-3.38803692683301
-3.369573510338009
-3.38803692683301
-3.394191398997992
-3.38803692683301
-3.381882454668
-3.394191398997992
-3.394191398997992
-3.38803692683301
-3.381882454668
-3.375727982502991
-3.357264566007989
-3.3511100938430074
-3.394191398997992
-3.3511100938430074
-3.3141832608529764
-3.301874316522985
-3.301874316522985
-3.258793011367972
-3.277256427862973
-3.326492205182996
-3.369573510338009
-3.394191398997992
-3.406500343328012
-3.424963759823013
-3.4311182319879947
-3.406500343328012
-3.437272704153005
-3.424963759823013
-3.394191398997992
-3.375727982502991
-3.381882454668
-3.4126548154929934
-3.344955621677997
-3.369573510338009
-3.3511100938430074
-3.338801149512988
-3.344955621677997
-3.363419038172999
-3.363419038172999
-3.3326466773480057
-3.344955621677997
-3.3511100938430074
-3.357264566007989
-3.363419038172999
-3.363419038172999
-3.363419038172999
-3.357264566007989
-3.344955621677997
-3.3511100938430074
-3.3511100938430074
-3.3511100938430074
-3.3511100938430074
-3.357264566007989
-3.2403295948729705
-3.1664759288929645
-3.141858040232953
-3.258793011367972
-3.2834109000279827
-3.4311182319879947
-3.6772971185880525
-3.424963759823013
-3.381882454668
-3.381882454668
-3.357264566007989
-3.363419038172999
-3.3511100938430074
-3.363419038172999
-3.381882454668
-3.375727982502991
-3.4188092876580036
-3.38803692683301
-3.381882454668
-3.3203377330179857
-3.3511100938430074
-3.344955621677997
-3.3511100938430074
-3.3326466773480057
-3.3326466773480057
-3.3326466773480057
-3.344955621677997
-3.3326466773480057
-3.3203377330179857
-3.308028788687994
-3.338801149512988
-3.3326466773480057
-3.338801149512988
-3.338801149512988
-3.344955621677997
-3.3511100938430074
-3.3326466773480057
-3.3326466773480057
-3.3511100938430074
-3.357264566007989
-3.357264566007989
-3.357264566007989
-3.357264566007989
-3.3511100938430074
-3.369573510338009
-3.357264566007989
-3.363419038172999
-3.363419038172999
-3.375727982502991
-3.363419038172999
-3.369573510338009
-3.369573510338009
-3.357264566007989
-3.357264566007989
-3.3511100938430074
-3.3511100938430074
-3.357264566007989
-3.326492205182996
-3.400345871163002
-3.338801149512988
-3.338801149512988
-3.3141832608529764
-3.3326466773480057
-3.3203377330179857
-3.308028788687994
-3.2218661783779687
-3.344955621677997
-3.38803692683301
-3.3141832608529764
-3.308028788687994
-3.308028788687994
-3.289565372192993
-3.2403295948729705
-3.357264566007989
-3.326492205182996
-3.289565372192993
-3.326492205182996
-3.3141832608529764
-3.308028788687994
-3.3141832608529764
-3.308028788687994
-3.301874316522985
-3.2957198443579747
-3.301874316522985
-3.301874316522985
-3.308028788687994
-3.2403295948729705
-3.2957198443579747
-3.2957198443579747
-3.2957198443579747
-3.301874316522985
-3.308028788687994
-3.289565372192993
-3.2957198443579747
-3.2957198443579747
-3.2957198443579747
-3.308028788687994
-3.308028788687994
-3.3203377330179857
-3.289565372192993
-3.2711019556979917
-3.3203377330179857
-3.2957198443579747
-3.2957198443579747
-3.301874316522985
-3.289565372192993
-3.301874316522985
-3.289565372192993
-3.154166984562973
-3.0987767350779407
-3.154166984562973
-3.2280206505429785
-3.25263853920299
-3.264947483532982
-3.24648406703798
-3.2834109000279827
-3.6219068691030203
-3.492662953638009
-3.338801149512988
-3.3326466773480057
-3.3203377330179857
-3.308028788687994
-3.3141832608529764
-3.2218661783779687
-3.043386485592936
-3.191093817552976
-3.2403295948729705
-3.2834109000279827
-3.264947483532982
-3.277256427862973
-3.308028788687994
-3.357264566007989
-3.6834515907530343
-3.4557361206480066
-3.3326466773480057
-3.3326466773480057
-3.3326466773480057
-3.326492205182996
-3.3511100938430074
-3.264947483532982
-3.2834109000279827
-3.301874316522985
-3.2834109000279827
-3.2095572340479768
-3.258793011367972
-3.2957198443579747
-3.2834109000279827
-3.277256427862973
-3.277256427862973
-3.264947483532982
-3.24648406703798
-3.2218661783779687
-3.2034027618829675
-3.178784873222984
-3.1726304010579747
-3.0249230690979347
-3.289565372192993
-3.3203377330179857
-3.2834109000279827
-3.3326466773480057
-3.3326466773480057
-3.326492205182996
-3.326492205182996
-3.289565372192993
-3.308028788687994
-3.301874316522985
-3.2957198443579747
-3.301874316522985
-3.2957198443579747
-3.2957198443579747
-3.2834109000279827
-3.3203377330179857
-3.4434271763180146
-3.363419038172999
-3.344955621677997
-3.326492205182996
-3.3203377330179857
-3.363419038172999
-3.277256427862973
-3.289565372192993
-3.326492205182996
-3.3141832608529764
-3.308028788687994
-3.3141832608529764
-3.308028788687994
-3.277256427862973
-3.277256427862973
-3.2403295948729705
-3.3326466773480057
-3.394191398997992
-3.3326466773480057
-3.3203377330179857
-3.3141832608529764
-3.3141832608529764
-3.3141832608529764
-3.308028788687994
-3.308028788687994
-3.301874316522985
-3.301874316522985
-3.264947483532982
-3.258793011367972
-3.344955621677997
-3.3141832608529764
-3.2957198443579747
-3.277256427862973
-3.2834109000279827
-3.2711019556979917
-3.2834109000279827
-3.2834109000279827
-3.277256427862973
-3.264947483532982
-3.2711019556979917
-3.2711019556979917
-3.2711019556979917
-3.2095572340479768
-3.289565372192993
-3.308028788687994
-3.2341751227079882
-3.25263853920299
-3.258793011367972
-3.2834109000279827
-3.277256427862973
-3.277256427862973
-3.2711019556979917
-3.2834109000279827
-3.289565372192993
-3.308028788687994
-3.2834109000279827
-3.2834109000279827
-3.289565372192993
-3.289565372192993
-3.308028788687994
-3.301874316522985
-3.289565372192993
-3.2957198443579747
-3.3141832608529764
-3.3141832608529764
-3.301874316522985
-3.301874316522985
-3.2957198443579747
-3.2957198443579747
-3.301874316522985
-3.2834109000279827
-3.2711019556979917
-3.308028788687994
-3.1664759288929645
-2.9510694031179288
-3.289565372192993
-3.24648406703798
-3.258793011367972
-3.554207675288024
-3.578825563948035
-3.3511100938430074
-3.3326466773480057
-3.3203377330179857
-3.326492205182996
-3.3326466773480057
-3.289565372192993
-3.338801149512988
-3.3203377330179857
-3.2957198443579747
-3.308028788687994
-3.326492205182996
-3.3203377330179857
-3.326492205182996
-3.2957198443579747
-3.301874316522985
-3.3326466773480057
-3.3141832608529764
-3.3141832608529764
-3.2957198443579747
-3.24648406703798
-3.357264566007989
-3.326492205182996
-3.301874316522985
-3.3203377330179857
-3.2957198443579747
-3.3141832608529764
-3.301874316522985
-3.2957198443579747
-3.301874316522985
-3.301874316522985
-3.301874316522985
-3.308028788687994
-3.301874316522985
-3.2034027618829675
-3.160321456727955
-3.277256427862973
-3.289565372192993
-3.2957198443579747
-3.2957198443579747
-3.308028788687994
-3.308028788687994
-3.301874316522985
-3.308028788687994
-3.338801149512988
-3.264947483532982
-3.289565372192993
-3.25263853920299
-3.338801149512988
-3.492662953638009
-3.357264566007989
-3.308028788687994
-3.2957198443579747
-3.2957198443579747
-3.301874316522985
-3.308028788687994
-3.289565372192993
-3.2834109000279827
-3.178784873222984
-3.2957198443579747
-3.357264566007989
-3.289565372192993
-3.2834109000279827
-3.264947483532982
-3.301874316522985
-3.289565372192993
-3.301874316522985
-3.2834109000279827
-3.301874316522985
-3.301874316522985
-3.277256427862973
-3.3141832608529764
-3.3141832608529764
-3.301874316522985
-3.301874316522985
-3.301874316522985
-3.289565372192993
-3.1295490959029335
-3.1664759288929645
-3.2834109000279827
-3.277256427862973
-3.2957198443579747
-3.289565372192993
-3.289565372192993
-3.289565372192993
-3.184939345387966
-3.178784873222984
-3.1972482897179852
-3.178784873222984
-3.215711706212987
-3.25263853920299
-3.4434271763180146
-3.5418987309580316
-3.424963759823013
-3.381882454668
-3.375727982502991
-3.3511100938430074
-3.338801149512988
-3.3203377330179857
-3.326492205182996
-3.326492205182996
-3.3203377330179857
-3.2957198443579747
-3.308028788687994
-3.308028788687994
-3.2834109000279827
-3.2957198443579747
-3.308028788687994
-3.301874316522985
-3.289565372192993
-3.2957198443579747
-3.277256427862973
-3.277256427862973
-3.2834109000279827
-3.277256427862973
-3.277256427862973
-3.1480125123979352
-3.0680043742529195
-3.640370285598049
-3.3141832608529764
-3.2403295948729705
-3.2957198443579747
-3.3203377330179857
-3.264947483532982
-3.264947483532982
-3.258793011367972
-3.289565372192993
-3.277256427862973
-3.258793011367972
-3.264947483532982
-3.2711019556979917
-3.277256427862973
-3.264947483532982
-3.2403295948729705
-3.2711019556979917
-3.2957198443579747
-3.258793011367972
-3.258793011367972
-3.264947483532982
-3.258793011367972
-3.258793011367972
-3.24648406703798
-3.258793011367972
-3.24648406703798
-3.25263853920299
-3.2218661783779687
-3.24648406703798
-3.2403295948729705
-3.2095572340479768
-3.2711019556979917
-3.264947483532982
-3.25263853920299
-3.24648406703798
-3.25263853920299
-3.258793011367972
-3.264947483532982
-3.258793011367972
-3.2711019556979917
-3.2834109000279827
-3.277256427862973
-3.2834109000279827
-3.264947483532982
-3.289565372192993
-3.2341751227079882
-3.25263853920299
-3.2834109000279827
-3.277256427862973
-3.2834109000279827
-3.2957198443579747
-3.301874316522985
-3.289565372192993
-3.277256427862973
-3.264947483532982
-3.0618499020879373
-3.0372320134279267
-3.2711019556979917
-3.289565372192993
-3.2834109000279827
-3.289565372192993
-3.277256427862973
-3.3511100938430074
-3.6280613412680296
-3.406500343328012
-3.338801149512988
-3.2957198443579747
-3.2957198443579747
-3.2711019556979917
-3.264947483532982
-3.2834109000279827
-3.277256427862973
-3.24648406703798
-3.24648406703798
-3.301874316522985
-3.258793011367972
-3.25263853920299
-3.258793011367972
-3.2957198443579747
-3.258793011367972
-3.24648406703798
-3.25263853920299
-3.24648406703798
-3.25263853920299
-3.301874316522985
-3.258793011367972
-3.2403295948729705
-3.2403295948729705
-3.308028788687994
-3.277256427862973
-3.2711019556979917
-3.25263853920299
-3.264947483532982
-3.264947483532982
-3.2341751227079882
-3.277256427862973
-3.264947483532982
-3.264947483532982
-3.264947483532982
-3.258793011367972
-3.264947483532982
-3.2218661783779687
-3.264947483532982
-3.277256427862973
-3.264947483532982
-3.264947483532982
-3.2711019556979917
-3.277256427862973
-3.2711019556979917
-3.258793011367972
-3.2711019556979917
-3.277256427862973
-3.25263853920299
-3.24648406703798
-3.264947483532982
-3.2403295948729705
-3.264947483532982
-3.258793011367972
-3.184939345387966
-3.2341751227079882
-3.2034027618829675
-2.9202970422929075
-3.2403295948729705
-3.25263853920299
-3.2095572340479768
-3.264947483532982
-3.615752396938038
-3.424963759823013
-3.3203377330179857
-3.277256427862973
-3.289565372192993
-3.3203377330179857
-3.3203377330179857
-3.289565372192993
-3.2957198443579747
-3.2957198443579747
-3.2834109000279827
-3.277256427862973
-3.289565372192993
-3.2957198443579747
-3.289565372192993
-3.277256427862973
-3.2834109000279827
-3.264947483532982
-3.258793011367972
-3.301874316522985
-3.2957198443579747
-3.289565372192993
-3.289565372192993
-3.289565372192993
-3.24648406703798
-3.2280206505429785
-3.191093817552976
-3.1664759288929645
-3.154166984562973
-3.160321456727955
-3.2095572340479768
-3.25263853920299
-3.258793011367972
-3.3203377330179857
-3.3326466773480057
-3.3203377330179857
-3.357264566007989
-3.2711019556979917
-3.2711019556979917
-3.258793011367972
-3.277256427862973
-3.277256427862973
-3.2957198443579747
-3.2711019556979917
-3.289565372192993
-3.277256427862973
-3.1357035680679433
-3.049540957757918
-3.2280206505429785
-3.24648406703798
-3.264947483532982
-3.2711019556979917
-3.277256427862973
-3.2834109000279827
-3.289565372192993
-3.277256427862973
-3.289565372192993
-3.277256427862973
-3.1664759288929645
-3.289565372192993
-3.437272704153005
-3.5726710917830253
-3.375727982502991
-3.344955621677997
-3.3203377330179857
-3.3141832608529764
-3.2957198443579747
-3.308028788687994
-3.2957198443579747
-3.2957198443579747
-3.2957198443579747
-3.2834109000279827
-3.2834109000279827
-3.2834109000279827
-3.25263853920299
-3.264947483532982
-3.326492205182996
-3.2341751227079882
-3.25263853920299
-3.25263853920299
-3.264947483532982
-3.24648406703798
-3.25263853920299
-3.258793011367972
-3.264947483532982
-3.264947483532982
-3.264947483532982
-3.258793011367972
-3.24648406703798
-3.215711706212987
-3.2834109000279827
-3.25263853920299
-3.25263853920299
-3.2711019556979917
-3.277256427862973
-3.2403295948729705
-3.258793011367972
-3.25263853920299
-3.258793011367972
-3.264947483532982
-3.264947483532982
-3.2711019556979917
-3.2834109000279827
-3.25263853920299
-3.3141832608529764
-3.289565372192993
-3.2834109000279827
-3.2957198443579747
-3.301874316522985
-3.277256427862973
-3.2834109000279827
-3.308028788687994
-3.2834109000279827
-3.24648406703798
-3.0680043742529195
-2.8279799598179
-2.446402685587851
-2.138679077337807
-2.8156710154879088
-2.8402889041478923
-2.618727906207874
-2.5941100175478624
-2.5941100175478624
-2.6002644897128726
-2.581801073217871
-2.5694921288878514
-2.563337656722869
-2.5694921288878514
-2.587955545382853
-2.587955545382853
-2.6002644897128726
-2.5694921288878514
-2.55102871239285
-2.618727906207874
-2.6002644897128726
-2.624882378372884
-2.618727906207874
-2.631036850537866
-2.631036850537866
-2.618727906207874
-2.655654739197877
-2.655654739197877
-2.649500267032867
-2.667963683527869
-2.680272627857888
-2.667963683527869
-2.667963683527869
-2.711044988682881
-2.674118155692878
-2.68642710002287
-2.6987360443528896
-2.704890516517872
-2.711044988682881
-2.711044988682881
-2.723353933012873
-2.729508405177883
-2.754126293837894
-2.6925815721878803
-2.754126293837894
-2.735662877342893
-2.704890516517872
-2.772589710332896
-2.760280766002876
-2.747971821672884
-2.754126293837894
-2.797207598992907
-2.797207598992907
-2.7848986546628876
-2.7910531268278973
-2.7848986546628876
-2.8033620711578893
-2.8095165433228986
-2.8095165433228986
-2.661809211362886
-2.8218254876528905
-2.8279799598179
-2.8156710154879088
-2.83413443198291
-2.8464433763129016
-2.83413443198291
-2.729508405177883
-2.858752320642893
-2.9202970422929075
-2.877215737137895
-2.8649067928079033
-2.8464433763129016
-2.8649067928079033
-2.8649067928079033
-2.877215737137895
-2.9879962361079313
-2.944914930952919
-2.9141425701278982
-2.901833625797906
-2.8895246814679143
-2.901833625797906
-2.944914930952919
-2.8525978484779113
-2.8895246814679143
-2.901833625797906
-2.9141425701278982
-2.9202970422929075
-2.9387604587879093
-2.907988097962916
-2.895679153632896
-2.944914930952919
-2.9141425701278982
-2.944914930952919
-2.9572238752829105
-2.9510694031179288
-2.9572238752829105
-2.9572238752829105
-2.9510694031179288
-2.9202970422929075
-2.8895246814679143
-2.871061264972913
-2.8402889041478923
-2.8033620711578893
-2.8033620711578893
-2.9202970422929075
-2.944914930952919
-2.994150708272913
-3.018768596932925
-3.0249230690979347
-3.043386485592936
-3.043386485592936
-3.0249230690979347
-3.0003051804379233
-3.006459652602933
-3.018768596932925
-3.006459652602933
-3.0003051804379233
-2.9818417639429216
-3.0003051804379233
-3.0310775412629165
-3.018768596932925
-3.055695429922928
-3.006459652602933
-3.018768596932925
-2.9141425701278982
-2.7910531268278973
-2.9264515144579173
-2.9572238752829105
-2.994150708272913
-3.018768596932925
-3.055695429922928
-3.0987767350779407
-2.9572238752829105
-3.0987767350779407
-3.0310775412629165
-3.0310775412629165
-3.0249230690979347
-3.0249230690979347
-3.2095572340479768
-3.363419038172999
-3.1110856794079322
-3.092622262912931
-3.074158846417929
-3.0618499020879373
-3.0372320134279267
-3.018768596932925
-3.043386485592936
-3.0680043742529195
-3.043386485592936
-3.043386485592936
-3.043386485592936
-3.0310775412629165
-3.0310775412629165
-3.0310775412629165
-3.0310775412629165
-3.049540957757918
-3.0249230690979347
-3.0310775412629165
-3.043386485592936
-3.043386485592936
-3.0310775412629165
-3.0864677907479487
-3.0126141247679152
-3.049540957757918
-3.055695429922928
-3.043386485592936
-3.049540957757918
-3.055695429922928
-3.055695429922928
-3.043386485592936
-3.055695429922928
-3.0680043742529195
-3.0864677907479487
-3.0618499020879373
-3.0249230690979347
-3.1295490959029335
-3.092622262912931
-3.074158846417929
-3.092622262912931
-3.0680043742529195
-3.0864677907479487
-3.0864677907479487
-3.080313318582939
-3.092622262912931
-3.092622262912931
-3.1049312072429505
-3.1233946237379517
-3.0987767350779407
-2.9879962361079313
-2.932605986622927
-3.055695429922928
-3.080313318582939
-3.092622262912931
-3.0680043742529195
-2.9818417639429216
-3.1110856794079322
-3.1664759288929645
-3.092622262912931
-3.092622262912931
-3.1233946237379517
-3.055695429922928
-3.0864677907479487
-3.1233946237379517
-3.277256427862973
-3.154166984562973
-3.117240151572942
-3.0987767350779407
-3.1049312072429505
-3.0987767350779407
-3.092622262912931
-3.1049312072429505
-3.0864677907479487
-3.1049312072429505
-3.0987767350779407
-3.0864677907479487
-3.074158846417929
-3.0618499020879373
-3.0987767350779407
-3.1295490959029335
-3.074158846417929
-3.0680043742529195
-3.0864677907479487
-3.0680043742529195
-3.092622262912931
-3.074158846417929
-3.0987767350779407
-3.0987767350779407
-3.0987767350779407
-3.0987767350779407
-3.117240151572942
-3.092622262912931
-3.0618499020879373
-3.1233946237379517
-3.0987767350779407
-3.117240151572942
-3.1233946237379517
-3.117240151572942
-3.1295490959029335
-3.1664759288929645
-3.092622262912931
-3.141858040232953
-3.160321456727955
-3.141858040232953
-3.1480125123979352
-3.154166984562973
-3.1233946237379517
-3.0618499020879373
-2.8156710154879088
-3.1972482897179852
-3.4988174258030194
-3.3326466773480057
-3.2095572340479768
-3.191093817552976
-3.1972482897179852
-3.160321456727955
-3.1664759288929645
-3.1726304010579747
-3.1726304010579747
-3.1726304010579747
-3.154166984562973
-3.184939345387966
-3.1664759288929645
-3.160321456727955
-3.184939345387966
-3.1726304010579747
-3.1726304010579747
-3.1726304010579747
-3.184939345387966
-3.178784873222984
-3.178784873222984
-3.184939345387966
-3.1726304010579747
-3.184939345387966
-3.1480125123979352
-3.184939345387966
-3.2095572340479768
-3.191093817552976
-3.184939345387966
-3.2341751227079882
-3.160321456727955
-3.178784873222984
-3.191093817552976
-3.1664759288929645
-3.184939345387966
-3.1726304010579747
-3.191093817552976
-3.191093817552976
-3.154166984562973
-3.1664759288929645
-3.2403295948729705
-3.2218661783779687
-3.191093817552976
-3.178784873222984
-3.154166984562973
-3.1049312072429505
-3.0680043742529195
-3.0618499020879373
-3.055695429922928
-3.0618499020879373
-3.117240151572942
-3.191093817552976
-3.1972482897179852
-3.1972482897179852
-3.264947483532982
-3.2280206505429785
-3.2218661783779687
-3.2218661783779687
-3.215711706212987
-3.1972482897179852
-3.178784873222984
-3.0864677907479487
-3.1972482897179852
-3.264947483532982
-3.24648406703798
-3.2403295948729705
-3.264947483532982
-3.277256427862973
-3.4311182319879947
-3.634215813433039
-3.806541034053063
-3.8188499783830547
-3.800386561888053
-3.6896060629180436
-3.578825563948035
-3.4434271763180146
-3.289565372192993
-3.2034027618829675
-3.141858040232953
-3.1049312072429505
-3.1110856794079322
-3.141858040232953
-3.301874316522985
-3.184939345387966
-3.1357035680679433
-3.1233946237379517
-3.117240151572942
-3.1233946237379517
-3.1233946237379517
-3.1295490959029335
-3.1295490959029335
-3.1295490959029335
-3.1110856794079322
-3.1233946237379517
-3.1233946237379517
-3.092622262912931
-2.907988097962916
-3.018768596932925
-3.080313318582939
-3.1049312072429505
-3.1233946237379517
-3.117240151572942
-2.975687291777912
-3.1972482897179852
-3.215711706212987
-3.160321456727955
-3.154166984562973
-3.1972482897179852
-3.141858040232953
-3.1295490959029335
-3.1049312072429505
-3.0987767350779407
-3.1480125123979352
-3.1480125123979352
-3.160321456727955
-3.160321456727955
-3.1664759288929645
-3.1664759288929645
-3.1664759288929645
-3.049540957757918
-2.8218254876528905
-3.178784873222984
-3.1480125123979352
-3.1480125123979352
-3.3511100938430074
-3.511126370133011
-3.554207675288024
-3.492662953638009
-3.3141832608529764
-3.258793011367972
-3.25263853920299
-3.24648406703798
-3.24648406703798
-3.24648406703798
-3.25263853920299
-3.258793011367972
-3.2403295948729705
-3.2280206505429785
-3.160321456727955
-3.154166984562973
-3.2280206505429785
-3.2218661783779687
-3.2218661783779687
-3.2341751227079882
-3.2218661783779687
-3.2341751227079882
-3.258793011367972
-3.191093817552976
-3.2095572340479768
-3.2095572340479768
-3.2095572340479768
-3.2341751227079882
-3.2095572340479768
-3.215711706212987
-3.24648406703798
-3.2280206505429785
-3.2341751227079882
-3.215711706212987
-3.2280206505429785
-3.2280206505429785
-3.215711706212987
-3.2280206505429785
-3.2280206505429785
-3.2280206505429785
-3.215711706212987
-3.215711706212987
-3.2034027618829675
-3.191093817552976
-3.25263853920299
-3.2034027618829675
-3.2095572340479768
-3.2034027618829675
-3.1972482897179852
-3.2218661783779687
-3.184939345387966
-3.184939345387966
-3.1972482897179852
-3.191093817552976
-3.178784873222984
-3.184939345387966
-3.1972482897179852
-3.215711706212987
-3.24648406703798
-3.1049312072429505
-3.2280206505429785
-3.3141832608529764
-3.178784873222984
-3.1972482897179852
-3.1972482897179852
-3.215711706212987
-3.2095572340479768
-3.1972482897179852
-3.1972482897179852
-3.2095572340479768
-3.1972482897179852
-3.092622262912931
-3.074158846417929
-2.96953281961293
-2.9387604587879093
-3.1480125123979352
-3.141858040232953
-3.160321456727955
-3.184939345387966
-3.264947483532982
-3.474199537143008
-4.114264642303106
-4.366598001068144
-4.305053279418131
-4.280435390758119
-4.255817502098136
-4.28658986292313
-4.200427252613103
-4.132728058798108
-4.108110170138096
-4.0958012258081045
-4.071183337148093
-4.0465654484880815
-4.009638615498079
-3.9973296711680866
-3.972711782508076
-3.9604028381780845
-3.9604028381780845
-3.9296304773530633
-3.9296304773530633
-3.9050125886930798
-3.868085755703077
-3.8927036443630603
-3.8803947000330687
-3.849622339208075
-3.738841840238039
-3.381882454668
-3.1233946237379517
-3.0003051804379233
-2.975687291777912
-2.944914930952919
-2.9387604587879093
-2.9387604587879093
-2.932605986622927
-2.9387604587879093
-2.944914930952919
-2.8649067928079033
-2.723353933012873
-2.581801073217871
-2.6925815721878803
-2.8649067928079033
-3.178784873222984
-3.018768596932925
-3.0249230690979347
-3.0372320134279267
-3.043386485592936
-3.043386485592936
-3.0249230690979347
-2.9879962361079313
-3.0249230690979347
-3.0126141247679152
-3.018768596932925
-3.0249230690979347
-3.0249230690979347
-3.0372320134279267
-3.0249230690979347
-3.0126141247679152
-3.0372320134279267
-3.049540957757918
-3.0864677907479487
-3.043386485592936
-3.1480125123979352
-3.3511100938430074
-3.6034434526080172
-3.855776811373057
-4.003484143333097
-4.003484143333097
-3.9850207268380964
-3.9419394216830828
-3.8988581165280705
-3.8988581165280705
-3.8988581165280705
-3.868085755703077
-3.8311589227130742
-3.75730525673304
-3.738841840238039
-3.732687368073057
-3.75730525673304
-3.7511507845680576
-3.7449963124030474
-3.738841840238039
-3.726532895908047
-3.720378423743037
-3.720378423743037
-3.726532895908047
-3.726532895908047
-3.726532895908047
-3.738841840238039
-3.7696142010630598
-3.7634597288980496
-3.732687368073057
-3.75730525673304
-3.7634597288980496
-3.7449963124030474
-3.720378423743037
-3.7080694794130453
-3.7080694794130453
-3.726532895908047
-3.658833702093051
-3.652679229928041
-3.658833702093051
-3.5418987309580316
-3.6711426464230414
-3.701915007248036
-3.6219068691030203
-3.6280613412680296
-3.652679229928041
-3.6280613412680296
-3.615752396938038
-3.634215813433039
-3.6219068691030203
-3.634215813433039
-3.615752396938038
-3.615752396938038
-3.6034434526080172
-3.597288980443037
-3.5911345082780266
-3.597288980443037
-3.5911345082780266
-3.560362147453033
-3.560362147453033
-3.535744258793022
-3.369573510338009
-3.2034027618829675
-3.049540957757918
-2.975687291777912
-2.858752320642893
-2.735662877342893
-2.7171994608478913
-2.7171994608478913
-2.7171994608478913
-2.711044988682881
-2.6987360443528896
-2.6925815721878803
-2.772589710332896
-2.766435238167886
-2.772589710332896
-2.7418173495078744
-2.747971821672884
-2.772589710332896
-2.778744182497905
-2.7910531268278973
-2.797207598992907
-2.8033620711578893
-2.8156710154879088
-2.8218254876528905
-2.8279799598179
-2.8218254876528905
-2.8402889041478923
-2.877215737137895
-2.877215737137895
-2.877215737137895
-2.8895246814679143
-2.895679153632896
-2.877215737137895
-2.895679153632896
-2.901833625797906
-2.9141425701278982
-2.932605986622927
-2.8279799598179
-2.674118155692878
-2.8218254876528905
-2.83413443198291
-2.9141425701278982
-2.907988097962916
-2.9141425701278982
-2.9879962361079313
-3.308028788687994
-3.1233946237379517
-3.0126141247679152
-2.975687291777912
-3.0003051804379233
-2.994150708272913
-2.975687291777912
-3.0249230690979347
-2.9818417639429216
-3.0003051804379233
-3.0249230690979347
-3.006459652602933
-2.994150708272913
-2.994150708272913
-3.0003051804379233
-3.006459652602933
-3.006459652602933
-3.0126141247679152
-3.0003051804379233
-3.018768596932925
-3.0126141247679152
-3.006459652602933
-3.0126141247679152
-2.8218254876528905
-3.006459652602933
-3.080313318582939
-3.0310775412629165
-3.0126141247679152
-3.0310775412629165
-3.0372320134279267
-3.0372320134279267
-3.043386485592936
-3.049540957757918
-3.049540957757918
-3.0618499020879373
-3.0618499020879373
-3.055695429922928
-3.0680043742529195
-3.154166984562973
-3.117240151572942
-3.0864677907479487
-3.074158846417929
-3.0618499020879373
-3.080313318582939
-3.080313318582939
-3.080313318582939
-3.074158846417929
-3.1110856794079322
-3.1233946237379517
-3.074158846417929
-3.092622262912931
-3.074158846417929
-2.883370209302905
-2.994150708272913
-3.0680043742529195
-3.0864677907479487
-2.994150708272913
-3.1295490959029335
-3.178784873222984
-3.1357035680679433
-3.141858040232953
-3.1295490959029335
-3.1233946237379517
-3.1295490959029335
-3.117240151572942
-3.0864677907479487
-3.2280206505429785
-3.215711706212987
-3.0618499020879373
-3.018768596932925
-3.043386485592936
-3.0987767350779407
-3.1726304010579747
-3.184939345387966
-3.2034027618829675
-3.2280206505429785
-3.2280206505429785
-3.1972482897179852
-3.178784873222984
-3.178784873222984
-3.1357035680679433
-3.215711706212987
-3.184939345387966
-3.178784873222984
-3.1664759288929645
-3.178784873222984
-3.1726304010579747
-3.184939345387966
-3.154166984562973
-3.160321456727955
-3.160321456727955
-3.1726304010579747
-3.1726304010579747
-3.178784873222984
-3.1972482897179852
-3.178784873222984
-3.184939345387966
-3.178784873222984
-3.1726304010579747
-3.191093817552976
-3.184939345387966
-3.191093817552976
-3.178784873222984
-3.184939345387966
-3.1726304010579747
-3.184939345387966
-3.1972482897179852
-3.191093817552976
-3.1664759288929645
-3.1972482897179852
-3.369573510338009
-3.6219068691030203
-3.9911751990030773
-4.255817502098136
-4.16965489178811
-3.9665573103430942
-4.083492281478085
-4.071183337148093
-4.354289056738125
-4.329671168078142
-4.101955697973114
-4.058874392818101
-4.003484143333097
-3.9850207268380964
-4.0219475598280985
-4.009638615498079
-3.9173215330230713
-3.935784949518073
-3.9111670608580615
-3.9050125886930798
-3.8988581165280705
-3.861931283538067
-3.868085755703077
-3.8434678670430653
-3.837313394878056
-3.8434678670430653
-3.8188499783830547
-3.7634597288980496
-3.855776811373057
-3.800386561888053
-3.781923145393051
-3.75730525673304
-3.5234353144630304
-3.511126370133011
-3.726532895908047
-3.7634597288980496
-3.720378423743037
-3.726532895908047
-3.726532895908047
-3.7942320897230712
-4.083492281478085
-3.652679229928041
-3.154166984562973
-3.0003051804379233
-2.907988097962916
-2.877215737137895
-2.8464433763129016
-2.8218254876528905
-2.8402889041478923
-2.8525978484779113
-2.8402889041478923
-2.858752320642893
-2.8649067928079033
-2.9264515144579173
-2.9387604587879093
-2.96953281961293
-3.074158846417929
-3.0249230690979347
-2.9818417639429216
-2.9572238752829105
-2.9264515144579173
-2.944914930952919
-2.9264515144579173
-2.9264515144579173
-2.932605986622927
-2.9387604587879093
-2.9387604587879093
-2.9202970422929075
-2.944914930952919
-2.9264515144579173
-2.932605986622927
-2.9879962361079313
-2.975687291777912
-2.9818417639429216
-2.975687291777912
-2.96953281961293
-2.9879962361079313
-2.9879962361079313
-3.0003051804379233
-2.9818417639429216
-3.0003051804379233
-3.0126141247679152
-3.0126141247679152
-3.0126141247679152
-3.0003051804379233
-3.055695429922928
-3.0310775412629165
-3.0310775412629165
-3.0310775412629165
-3.049540957757918
-3.0310775412629165
-3.0372320134279267
