4.181963836118102
4.188118308283084
4.181963836118102
4.188118308283084
4.1942727804480935
4.188118308283084
4.1942727804480935
4.1942727804480935
4.1942727804480935
4.188118308283084
4.188118308283084
4.188118308283084
4.1942727804480935
4.188118308283084
4.1942727804480935
4.188118308283084
4.1942727804480935
4.1942727804480935
4.188118308283084
4.181963836118102
4.12657358663307
4.200427252613103
4.2065817247780855
4.200427252613103
4.200427252613103
4.188118308283084
4.1758093639530935
4.181963836118102
4.188118308283084
4.188118308283084
4.188118308283084
4.1942727804480935
4.1942727804480935
4.1942727804480935
4.200427252613103
4.1942727804480935
4.200427252613103
4.2065817247780855
4.2065817247780855
4.2065817247780855
4.200427252613103
4.200427252613103
4.2065817247780855
4.200427252613103
4.200427252613103
4.2065817247780855
4.1942727804480935
4.1942727804480935
4.1942727804480935
4.188118308283084
4.188118308283084
4.188118308283084
4.181963836118102
4.1758093639530935
4.1758093639530935
4.169654891788083
4.169654891788083
4.163500419623101
4.169654891788083
4.169654891788083
4.163500419623101
4.169654891788083
4.169654891788083
4.163500419623101
4.163500419623101
4.169654891788083
4.163500419623101
4.169654891788083
4.163500419623101
4.157345947458091
4.163500419623101
4.169654891788083
4.157345947458091
4.157345947458091
4.169654891788083
4.163500419623101
4.163500419623101
4.169654891788083
4.163500419623101
4.169654891788083
4.145037003128072
4.101955697973087
4.169654891788083
4.1758093639530935
4.181963836118102
4.181963836118102
4.1758093639530935
4.181963836118102
4.157345947458091
4.151191475293081
4.151191475293081
4.157345947458091
4.163500419623101
4.157345947458091
4.163500419623101
4.169654891788083
4.163500419623101
4.169654891788083
4.169654891788083
4.163500419623101
4.169654891788083
4.169654891788083
4.1758093639530935
4.163500419623101
4.163500419623101
4.169654891788083
4.163500419623101
4.1758093639530935
4.1758093639530935
4.1758093639530935
4.169654891788083
4.169654891788083
4.169654891788083
4.169654891788083
4.169654891788083
4.169654891788083
4.169654891788083
4.169654891788083
4.1758093639530935
4.1758093639530935
4.181963836118102
4.188118308283084
4.1758093639530935
4.1758093639530935
4.169654891788083
4.1758093639530935
4.188118308283084
4.188118308283084
4.188118308283084
4.1942727804480935
4.188118308283084
4.188118308283084
4.188118308283084
4.181963836118102
4.181963836118102
4.181963836118102
4.1758093639530935
4.1758093639530935
4.181963836118102
4.1758093639530935
4.169654891788083
4.157345947458091
4.101955697973087
4.163500419623101
4.157345947458091
4.163500419623101
4.169654891788083
4.1758093639530935
4.163500419623101
4.163500419623101
4.169654891788083
4.163500419623101
4.169654891788083
4.163500419623101
4.163500419623101
4.169654891788083
4.163500419623101
4.169654891788083
4.169654891788083
4.163500419623101
4.151191475293081
4.163500419623101
4.169654891788083
4.1942727804480935
4.249663029933098
4.3173622237481215
4.385061417563119
4.391215889728128
4.3112077515831135
4.200427252613103
4.12657358663307
4.095801225808078
4.089646753643067
4.095801225808078
4.120419114468088
4.138882530963089
4.157345947458091
4.163500419623101
4.169654891788083
4.163500419623101
4.163500419623101
4.169654891788083
4.169654891788083
4.169654891788083
4.169654891788083
4.169654891788083
4.169654891788083
4.169654891788083
4.163500419623101
4.163500419623101
4.169654891788083
4.169654891788083
4.1758093639530935
4.169654891788083
4.1758093639530935
4.1758093639530935
4.1758093639530935
4.1758093639530935
4.1758093639530935
4.181963836118102
4.181963836118102
4.1758093639530935
4.181963836118102
4.181963836118102
4.1758093639530935
4.181963836118102
4.181963836118102
4.188118308283084
4.188118308283084
4.188118308283084
4.188118308283084
4.181963836118102
4.181963836118102
4.188118308283084
4.181963836118102
4.188118308283084
4.1942727804480935
4.188118308283084
4.188118308283084
4.1942727804480935
4.188118308283084
4.188118308283084
4.188118308283084
4.1942727804480935
4.1942727804480935
4.188118308283084
4.188118308283084
4.188118308283084
4.188118308283084
4.188118308283084
4.1942727804480935
4.1942727804480935
4.200427252613103
4.200427252613103
4.1942727804480935
4.2065817247780855
4.200427252613103
4.2065817247780855
4.212736196943095
4.212736196943095
4.2065817247780855
4.2065817247780855
4.2065817247780855
4.2065817247780855
4.212736196943095
4.200427252613103
4.200427252613103
4.1942727804480935
4.1942727804480935
4.1942727804480935
4.188118308283084
4.188118308283084
4.188118308283084
4.1758093639530935
4.1758093639530935
4.1758093639530935
4.1758093639530935
4.169654891788083
4.169654891788083
4.1758093639530935
4.1758093639530935
4.163500419623101
4.169654891788083
4.157345947458091
4.108110170138069
4.181963836118102
4.188118308283084
4.1758093639530935
4.181963836118102
4.151191475293081
4.157345947458091
4.169654891788083
4.169654891788083
4.169654891788083
4.169654891788083
4.1758093639530935
4.169654891788083
4.169654891788083
4.169654891788083
4.1758093639530935
4.1758093639530935
4.1758093639530935
4.169654891788083
4.1758093639530935
4.163500419623101
4.163500419623101
4.169654891788083
4.169654891788083
4.1758093639530935
4.1758093639530935
4.181963836118102
4.169654891788083
4.169654891788083
4.1758093639530935
4.169654891788083
4.1758093639530935
4.169654891788083
4.1758093639530935
4.1758093639530935
4.1758093639530935
4.163500419623101
4.163500419623101
4.169654891788083
4.163500419623101
4.163500419623101
4.163500419623101
4.169654891788083
4.169654891788083
4.163500419623101
4.157345947458091
4.163500419623101
4.157345947458091
4.157345947458091
4.163500419623101
4.163500419623101
4.157345947458091
4.163500419623101
4.157345947458091
4.157345947458091
4.157345947458091
4.163500419623101
4.163500419623101
4.163500419623101
4.163500419623101
4.163500419623101
4.157345947458091
4.157345947458091
4.157345947458091
4.163500419623101
4.169654891788083
4.181963836118102
4.1758093639530935
4.1758093639530935
4.169654891788083
4.1758093639530935
4.169654891788083
4.169654891788083
4.163500419623101
4.157345947458091
4.157345947458091
4.151191475293081
4.157345947458091
4.157345947458091
4.151191475293081
4.157345947458091
4.151191475293081
4.151191475293081
4.151191475293081
4.157345947458091
4.157345947458091
4.151191475293081
4.151191475293081
4.157345947458091
4.151191475293081
4.151191475293081
4.145037003128072
4.157345947458091
4.151191475293081
4.151191475293081
4.151191475293081
4.157345947458091
4.151191475293081
4.138882530963089
4.138882530963089
4.151191475293081
4.1758093639530935
4.212736196943095
4.27428091859311
4.348134584573115
4.40967930622313
4.37890694539811
4.2681264464281
4.163500419623101
4.114264642303079
4.095801225808078
4.089646753643067
4.108110170138069
4.1327280587980795
4.145037003128072
4.138882530963089
4.138882530963089
4.145037003128072
4.138882530963089
4.145037003128072
4.145037003128072
4.1327280587980795
4.077337809313075
4.1327280587980795
4.138882530963089
4.145037003128072
4.145037003128072
4.151191475293081
4.151191475293081
4.151191475293081
4.1327280587980795
4.077337809313075
4.157345947458091
4.169654891788083
4.163500419623101
4.163500419623101
4.169654891788083
4.157345947458091
4.145037003128072
4.1327280587980795
4.145037003128072
4.145037003128072
4.145037003128072
4.151191475293081
4.157345947458091
4.151191475293081
4.145037003128072
4.157345947458091
4.151191475293081
4.151191475293081
4.163500419623101
4.163500419623101
4.157345947458091
4.157345947458091
4.151191475293081
4.163500419623101
4.151191475293081
4.151191475293081
4.163500419623101
4.163500419623101
4.163500419623101
4.163500419623101
4.163500419623101
4.163500419623101
4.169654891788083
4.169654891788083
4.163500419623101
4.163500419623101
4.169654891788083
4.163500419623101
4.163500419623101
4.1758093639530935
4.181963836118102
4.181963836118102
4.1758093639530935
4.188118308283084
4.181963836118102
4.188118308283084
4.188118308283084
4.1942727804480935
4.1942727804480935
4.188118308283084
4.181963836118102
4.188118308283084
4.181963836118102
4.169654891788083
4.1758093639530935
4.169654891788083
4.163500419623101
4.163500419623101
4.163500419623101
4.163500419623101
4.163500419623101
4.151191475293081
4.157345947458091
4.157345947458091
4.157345947458091
4.163500419623101
4.163500419623101
4.163500419623101
4.163500419623101
4.157345947458091
4.163500419623101
4.157345947458091
4.163500419623101
4.163500419623101
4.163500419623101
4.163500419623101
4.169654891788083
4.163500419623101
4.157345947458091
4.163500419623101
4.169654891788083
4.1758093639530935
4.169654891788083
4.169654891788083
4.169654891788083
4.163500419623101
4.169654891788083
4.1758093639530935
4.169654891788083
4.1758093639530935
4.163500419623101
4.1758093639530935
4.1758093639530935
4.169654891788083
4.163500419623101
4.163500419623101
4.169654891788083
4.163500419623101
4.169654891788083
4.1758093639530935
4.1758093639530935
4.169654891788083
4.163500419623101
4.169654891788083
4.169654891788083
4.163500419623101
4.1758093639530935
4.169654891788083
4.169654891788083
4.169654891788083
4.163500419623101
4.151191475293081
4.101955697973087
4.1758093639530935
4.181963836118102
4.181963836118102
4.157345947458091
4.157345947458091
4.163500419623101
4.163500419623101
4.169654891788083
4.163500419623101
4.163500419623101
4.163500419623101
4.163500419623101
4.163500419623101
4.163500419623101
4.163500419623101
4.169654891788083
4.169654891788083
4.163500419623101
4.169654891788083
4.163500419623101
4.169654891788083
4.163500419623101
4.1758093639530935
4.169654891788083
4.163500419623101
4.1758093639530935
4.169654891788083
4.157345947458091
4.163500419623101
4.1758093639530935
4.1758093639530935
4.181963836118102
4.188118308283084
4.181963836118102
4.188118308283084
4.181963836118102
4.181963836118102
4.1758093639530935
4.181963836118102
4.169654891788083
4.169654891788083
4.163500419623101
4.163500419623101
4.163500419623101
4.163500419623101
4.169654891788083
4.163500419623101
4.163500419623101
4.157345947458091
4.163500419623101
4.157345947458091
4.157345947458091
4.163500419623101
4.163500419623101
4.157345947458091
4.151191475293081
4.157345947458091
4.157345947458091
4.151191475293081
4.151191475293081
4.157345947458091
4.157345947458091
4.151191475293081
4.151191475293081
4.145037003128072
4.145037003128072
4.151191475293081
4.188118308283084
4.243508557768089
4.323516695913104
4.397370361893111
4.428142722718132
4.360443528903107
4.231199613438097
4.1327280587980795
4.108110170138069
4.095801225808078
4.101955697973087
4.120419114468088
4.138882530963089
4.138882530963089
4.138882530963089
4.138882530963089
4.138882530963089
4.145037003128072
4.145037003128072
4.145037003128072
4.145037003128072
4.138882530963089
4.145037003128072
4.138882530963089
4.145037003128072
4.151191475293081
4.151191475293081
4.151191475293081
4.145037003128072
4.145037003128072
4.145037003128072
4.145037003128072
4.157345947458091
4.151191475293081
4.157345947458091
4.151191475293081
4.157345947458091
4.151191475293081
4.145037003128072
4.151191475293081
4.151191475293081
4.163500419623101
4.157345947458091
4.157345947458091
4.157345947458091
4.157345947458091
4.151191475293081
4.163500419623101
4.163500419623101
4.157345947458091
4.157345947458091
4.163500419623101
4.163500419623101
4.145037003128072
4.077337809313075
4.163500419623101
4.169654891788083
4.169654891788083
4.163500419623101
4.163500419623101
4.163500419623101
4.157345947458091
4.145037003128072
4.138882530963089
4.151191475293081
4.151191475293081
4.151191475293081
4.157345947458091
4.157345947458091
4.163500419623101
4.163500419623101
4.169654891788083
4.163500419623101
4.1758093639530935
4.1758093639530935
4.181963836118102
4.181963836118102
4.188118308283084
4.181963836118102
4.188118308283084
4.181963836118102
4.181963836118102
4.188118308283084
4.188118308283084
4.181963836118102
4.1758093639530935
4.1758093639530935
4.1758093639530935
4.169654891788083
4.1758093639530935
4.163500419623101
4.169654891788083
4.163500419623101
4.163500419623101
4.163500419623101
4.163500419623101
4.163500419623101
4.157345947458091
4.163500419623101
4.163500419623101
4.157345947458091
4.157345947458091
4.163500419623101
4.163500419623101
4.163500419623101
4.163500419623101
4.163500419623101
4.163500419623101
4.163500419623101
4.157345947458091
4.169654891788083
4.163500419623101
4.163500419623101
4.163500419623101
4.169654891788083
4.163500419623101
4.169654891788083
4.157345947458091
4.169654891788083
4.169654891788083
4.163500419623101
4.169654891788083
4.169654891788083
4.1758093639530935
4.163500419623101
4.163500419623101
4.1758093639530935
4.169654891788083
4.1758093639530935
4.1758093639530935
4.1758093639530935
4.1758093639530935
4.145037003128072
4.095801225808078
4.169654891788083
4.188118308283084
4.1758093639530935
4.1758093639530935
4.1758093639530935
4.169654891788083
4.163500419623101
4.151191475293081
4.157345947458091
4.163500419623101
4.163500419623101
4.157345947458091
4.163500419623101
4.163500419623101
4.151191475293081
4.157345947458091
4.163500419623101
4.163500419623101
4.163500419623101
4.157345947458091
4.163500419623101
4.157345947458091
4.157345947458091
4.157345947458091
4.157345947458091
4.157345947458091
4.157345947458091
4.157345947458091
4.163500419623101
4.157345947458091
4.151191475293081
4.157345947458091
4.151191475293081
4.157345947458091
4.157345947458091
4.151191475293081
4.151191475293081
4.157345947458091
4.151191475293081
4.157345947458091
4.151191475293081
4.138882530963089
4.077337809313075
4.163500419623101
4.1758093639530935
4.163500419623101
4.138882530963089
4.151191475293081
4.157345947458091
4.169654891788083
4.1758093639530935
4.169654891788083
4.169654891788083
4.163500419623101
4.169654891788083
4.1758093639530935
4.163500419623101
4.169654891788083
4.163500419623101
4.163500419623101
4.151191475293081
4.151191475293081
4.151191475293081
4.157345947458091
4.157345947458091
4.151191475293081
4.157345947458091
4.151191475293081
4.151191475293081
4.145037003128072
4.138882530963089
4.145037003128072
4.138882530963089
4.138882530963089
4.138882530963089
4.138882530963089
4.145037003128072
4.138882530963089
4.145037003128072
4.138882530963089
4.145037003128072
4.145037003128072
4.1327280587980795
4.12657358663307
4.138882530963089
4.145037003128072
4.1758093639530935
4.243508557768089
4.323516695913104
4.40967930622313
4.415833778388112
4.323516695913104
4.188118308283084
4.101955697973087
4.077337809313075
4.077337809313075
4.095801225808078
4.120419114468088
4.12657358663307
4.138882530963089
4.12657358663307
4.1327280587980795
4.1327280587980795
4.138882530963089
4.145037003128072
4.1327280587980795
4.145037003128072
4.145037003128072
4.145037003128072
4.138882530963089
4.145037003128072
4.145037003128072
4.151191475293081
4.145037003128072
4.151191475293081
4.145037003128072
4.138882530963089
4.151191475293081
4.151191475293081
4.145037003128072
4.151191475293081
4.145037003128072
4.145037003128072
4.145037003128072
4.138882530963089
4.138882530963089
4.151191475293081
4.145037003128072
4.151191475293081
4.145037003128072
4.145037003128072
4.145037003128072
4.145037003128072
4.145037003128072
4.145037003128072
4.145037003128072
4.145037003128072
4.145037003128072
4.145037003128072
4.145037003128072
4.138882530963089
4.151191475293081
4.145037003128072
4.138882530963089
4.138882530963089
4.145037003128072
4.145037003128072
4.138882530963089
4.1327280587980795
4.138882530963089
4.145037003128072
4.151191475293081
4.151191475293081
4.151191475293081
4.145037003128072
4.138882530963089
4.151191475293081
4.151191475293081
4.151191475293081
4.151191475293081
4.163500419623101
4.163500419623101
4.163500419623101
4.145037003128072
4.089646753643067
4.169654891788083
4.181963836118102
4.1758093639530935
4.169654891788083
4.169654891788083
4.169654891788083
4.145037003128072
4.138882530963089
4.1327280587980795
4.138882530963089
4.138882530963089
4.138882530963089
4.138882530963089
4.138882530963089
4.138882530963089
4.138882530963089
4.138882530963089
4.145037003128072
4.138882530963089
4.138882530963089
4.138882530963089
4.145037003128072
4.138882530963089
4.138882530963089
4.145037003128072
4.138882530963089
4.145037003128072
4.138882530963089
4.1327280587980795
4.138882530963089
4.1327280587980795
4.1327280587980795
4.138882530963089
4.145037003128072
4.138882530963089
4.145037003128072
4.138882530963089
4.138882530963089
4.1327280587980795
4.138882530963089
4.145037003128072
4.138882530963089
4.138882530963089
4.145037003128072
4.145037003128072
4.138882530963089
4.138882530963089
4.138882530963089
4.1327280587980795
4.1327280587980795
4.1327280587980795
4.138882530963089
4.138882530963089
4.12657358663307
4.138882530963089
4.138882530963089
4.1327280587980795
4.1327280587980795
4.1327280587980795
4.138882530963089
4.12657358663307
4.1327280587980795
4.1327280587980795
4.138882530963089
4.1327280587980795
4.138882530963089
4.138882530963089
4.138882530963089
4.138882530963089
4.1327280587980795
4.1327280587980795
4.138882530963089
4.1327280587980795
4.1327280587980795
4.138882530963089
4.1327280587980795
4.12657358663307
4.1327280587980795
4.138882530963089
4.138882530963089
4.138882530963089
4.138882530963089
4.145037003128072
4.138882530963089
4.138882530963089
4.1327280587980795
4.138882530963089
4.138882530963089
4.138882530963089
4.1327280587980795
4.138882530963089
4.138882530963089
4.1327280587980795
4.1327280587980795
4.138882530963089
4.138882530963089
4.138882530963089
4.1327280587980795
4.138882530963089
4.145037003128072
4.138882530963089
4.138882530963089
4.138882530963089
4.151191475293081
4.151191475293081
4.151191475293081
4.151191475293081
4.145037003128072
4.151191475293081
4.157345947458091
4.163500419623101
4.163500419623101
4.169654891788083
4.163500419623101
4.163500419623101
4.163500419623101
4.157345947458091
4.157345947458091
4.151191475293081
4.151191475293081
4.1327280587980795
4.077337809313075
4.151191475293081
4.151191475293081
4.1327280587980795
4.1327280587980795
4.1327280587980795
4.138882530963089
4.138882530963089
4.138882530963089
4.138882530963089
4.145037003128072
4.138882530963089
4.138882530963089
4.138882530963089
4.145037003128072
4.138882530963089
4.151191475293081
4.145037003128072
4.138882530963089
4.145037003128072
4.138882530963089
4.138882530963089
4.1327280587980795
4.1327280587980795
4.145037003128072
4.1758093639530935
4.212736196943095
4.237354085603107
4.385061417563119
4.415833778388112
4.329671168078114
4.200427252613103
4.120419114468088
4.0711833371480655
4.052719920653064
4.052719920653064
4.089646753643067
4.120419114468088
4.1327280587980795
4.1327280587980795
4.12657358663307
4.1327280587980795
4.1327280587980795
4.1327280587980795
4.1327280587980795
4.138882530963089
4.1327280587980795
4.1327280587980795
4.145037003128072
4.145037003128072
4.1327280587980795
4.145037003128072
4.145037003128072
4.138882530963089
4.145037003128072
4.138882530963089
4.151191475293081
4.151191475293081
4.145037003128072
4.151191475293081
4.145037003128072
4.145037003128072
4.145037003128072
4.145037003128072
4.138882530963089
4.145037003128072
4.145037003128072
4.151191475293081
4.138882530963089
4.138882530963089
4.138882530963089
4.1327280587980795
4.138882530963089
4.145037003128072
4.145037003128072
4.145037003128072
4.138882530963089
4.145037003128072
4.145037003128072
4.138882530963089
4.145037003128072
4.138882530963089
4.138882530963089
4.138882530963089
4.145037003128072
4.151191475293081
4.145037003128072
4.145037003128072
4.151191475293081
4.138882530963089
4.138882530963089
4.151191475293081
4.151191475293081
4.151191475293081
4.151191475293081
4.157345947458091
4.157345947458091
4.157345947458091
4.157345947458091
4.163500419623101
4.169654891788083
4.163500419623101
4.169654891788083
4.163500419623101
4.163500419623101
4.157345947458091
4.163500419623101
4.163500419623101
4.163500419623101
4.151191475293081
4.145037003128072
4.145037003128072
4.138882530963089
4.138882530963089
4.145037003128072
4.145037003128072
4.138882530963089
4.145037003128072
4.145037003128072
4.138882530963089
4.1327280587980795
4.114264642303079
4.065028864983084
4.138882530963089
4.145037003128072
4.151191475293081
4.151191475293081
4.145037003128072
4.145037003128072
4.120419114468088
4.12657358663307
4.138882530963089
4.138882530963089
4.145037003128072
4.145037003128072
4.145037003128072
4.145037003128072
4.138882530963089
4.151191475293081
4.145037003128072
4.151191475293081
4.151191475293081
4.145037003128072
4.145037003128072
4.138882530963089
4.145037003128072
4.151191475293081
4.151191475293081
4.157345947458091
4.151191475293081
4.151191475293081
4.157345947458091
4.151191475293081
4.163500419623101
4.163500419623101
4.163500419623101
4.157345947458091
4.163500419623101
4.157345947458091
4.163500419623101
4.151191475293081
4.157345947458091
4.163500419623101
4.163500419623101
4.163500419623101
4.157345947458091
4.151191475293081
4.151191475293081
4.157345947458091
4.157345947458091
4.151191475293081
4.151191475293081
4.151191475293081
4.157345947458091
4.151191475293081
4.157345947458091
4.157345947458091
4.151191475293081
4.151191475293081
4.157345947458091
4.163500419623101
4.157345947458091
4.157345947458091
4.157345947458091
4.151191475293081
4.151191475293081
4.157345947458091
4.157345947458091
4.163500419623101
4.163500419623101
4.157345947458091
4.157345947458091
4.151191475293081
4.157345947458091
4.145037003128072
4.151191475293081
4.157345947458091
4.151191475293081
4.151191475293081
4.145037003128072
4.145037003128072
4.145037003128072
4.151191475293081
4.151191475293081
4.151191475293081
4.151191475293081
4.163500419623101
4.151191475293081
4.157345947458091
4.163500419623101
4.163500419623101
4.1758093639530935
4.1758093639530935
4.1758093639530935
4.1758093639530935
4.1758093639530935
4.1758093639530935
4.1758093639530935
4.169654891788083
4.169654891788083
4.163500419623101
4.157345947458091
4.151191475293081
4.145037003128072
4.151191475293081
4.157345947458091
4.157345947458091
4.151191475293081
4.151191475293081
4.151191475293081
4.151191475293081
4.151191475293081
4.145037003128072
4.151191475293081
4.157345947458091
4.151191475293081
4.151191475293081
4.157345947458091
4.145037003128072
4.151191475293081
4.151191475293081
4.157345947458091
4.157345947458091
4.12657358663307
4.065028864983084
4.138882530963089
4.151191475293081
4.157345947458091
4.200427252613103
4.2681264464281
4.348134584573115
4.40967930622313
4.391215889728128
4.280435390758092
4.163500419623101
4.108110170138069
4.077337809313075
4.083492281478085
4.101955697973087
4.1327280587980795
4.138882530963089
4.138882530963089
4.1327280587980795
4.138882530963089
4.138882530963089
4.145037003128072
4.145037003128072
4.138882530963089
4.138882530963089
4.145037003128072
4.145037003128072
4.151191475293081
4.151191475293081
4.145037003128072
4.145037003128072
4.151191475293081
4.145037003128072
4.151191475293081
4.145037003128072
4.151191475293081
4.145037003128072
4.145037003128072
4.151191475293081
4.151191475293081
4.151191475293081
4.145037003128072
4.145037003128072
4.151191475293081
4.151191475293081
4.151191475293081
4.145037003128072
4.138882530963089
4.151191475293081
4.145037003128072
4.145037003128072
4.151191475293081
4.151191475293081
4.145037003128072
4.145037003128072
4.145037003128072
4.151191475293081
4.145037003128072
4.138882530963089
4.138882530963089
4.145037003128072
4.145037003128072
4.138882530963089
4.138882530963089
4.145037003128072
4.138882530963089
4.1327280587980795
4.138882530963089
4.145037003128072
4.145037003128072
4.138882530963089
4.138882530963089
4.138882530963089
4.145037003128072
4.151191475293081
4.157345947458091
4.151191475293081
4.157345947458091
4.157345947458091
4.163500419623101
4.169654891788083
4.163500419623101
4.163500419623101
4.163500419623101
4.163500419623101
4.169654891788083
4.163500419623101
4.157345947458091
4.145037003128072
4.138882530963089
4.145037003128072
4.145037003128072
4.145037003128072
4.1327280587980795
4.138882530963089
4.138882530963089
4.114264642303079
4.0465654484880815
4.138882530963089
4.151191475293081
4.145037003128072
4.138882530963089
4.1327280587980795
4.1327280587980795
4.12657358663307
4.101955697973087
4.114264642303079
4.114264642303079
4.114264642303079
4.114264642303079
4.120419114468088
4.12657358663307
4.120419114468088
4.12657358663307
4.120419114468088
4.120419114468088
4.12657358663307
4.120419114468088
4.12657358663307
4.12657358663307
4.120419114468088
4.101955697973087
4.058874392818074
4.12657358663307
4.1327280587980795
4.1327280587980795
4.12657358663307
4.120419114468088
4.108110170138069
4.101955697973087
4.114264642303079
4.120419114468088
4.108110170138069
4.114264642303079
4.108110170138069
4.114264642303079
4.108110170138069
4.108110170138069
4.120419114468088
4.114264642303079
4.114264642303079
4.114264642303079
4.108110170138069
4.108110170138069
4.101955697973087
4.114264642303079
4.108110170138069
4.108110170138069
4.114264642303079
4.114264642303079
4.108110170138069
4.114264642303079
4.114264642303079
4.108110170138069
4.108110170138069
4.108110170138069
4.108110170138069
4.108110170138069
4.108110170138069
4.108110170138069
4.108110170138069
4.114264642303079
4.108110170138069
4.114264642303079
4.108110170138069
4.108110170138069
4.108110170138069
4.108110170138069
4.108110170138069
4.120419114468088
4.120419114468088
4.120419114468088
4.114264642303079
4.114264642303079
4.114264642303079
4.120419114468088
4.120419114468088
4.114264642303079
4.114264642303079
4.120419114468088
4.114264642303079
4.120419114468088
4.114264642303079
4.120419114468088
4.120419114468088
4.114264642303079
4.12657358663307
4.120419114468088
4.12657358663307
4.120419114468088
4.120419114468088
4.108110170138069
4.114264642303079
4.1327280587980795
4.138882530963089
4.138882530963089
4.145037003128072
4.138882530963089
4.1327280587980795
4.1327280587980795
4.1327280587980795
4.138882530963089
4.1327280587980795
4.120419114468088
4.120419114468088
4.12657358663307
4.114264642303079
4.120419114468088
4.114264642303079
4.114264642303079
4.12657358663307
4.120419114468088
4.114264642303079
4.120419114468088
4.120419114468088
4.120419114468088
4.114264642303079
4.114264642303079
4.114264642303079
4.114264642303079
4.120419114468088
4.114264642303079
4.108110170138069
4.120419114468088
4.120419114468088
4.114264642303079
4.108110170138069
4.101955697973087
4.101955697973087
4.114264642303079
4.1327280587980795
4.1758093639530935
4.255817502098108
4.341980112408105
4.397370361893111
4.366598001068117
4.243508557768089
4.12657358663307
4.058874392818074
4.0465654484880815
4.0465654484880815
4.0711833371480655
4.089646753643067
4.083492281478085
4.028102031993082
4.095801225808078
4.089646753643067
4.089646753643067
4.095801225808078
4.095801225808078
4.101955697973087
4.095801225808078
4.095801225808078
4.095801225808078
4.101955697973087
4.095801225808078
4.095801225808078
4.108110170138069
4.108110170138069
4.108110170138069
4.101955697973087
4.095801225808078
4.095801225808078
4.108110170138069
4.101955697973087
4.095801225808078
4.095801225808078
4.101955697973087
4.101955697973087
4.095801225808078
4.101955697973087
4.101955697973087
4.101955697973087
4.108110170138069
4.101955697973087
4.108110170138069
4.101955697973087
4.095801225808078
4.101955697973087
4.108110170138069
4.101955697973087
4.101955697973087
4.101955697973087
4.108110170138069
4.108110170138069
4.095801225808078
4.095801225808078
4.101955697973087
4.095801225808078
4.095801225808078
4.095801225808078
4.101955697973087
4.095801225808078
4.101955697973087
4.101955697973087
4.108110170138069
4.101955697973087
4.108110170138069
4.095801225808078
4.095801225808078
4.101955697973087
4.095801225808078
4.101955697973087
4.108110170138069
4.114264642303079
4.120419114468088
4.120419114468088
4.114264642303079
4.114264642303079
4.120419114468088
4.120419114468088
4.120419114468088
4.120419114468088
4.114264642303079
4.120419114468088
4.108110170138069
4.101955697973087
4.101955697973087
4.108110170138069
4.108110170138069
4.108110170138069
4.101955697973087
4.095801225808078
4.095801225808078
4.095801225808078
4.101955697973087
4.101955697973087
4.095801225808078
4.089646753643067
4.095801225808078
4.095801225808078
4.089646753643067
4.089646753643067
4.089646753643067
4.101955697973087
4.101955697973087
4.101955697973087
4.101955697973087
4.101955697973087
4.095801225808078
4.089646753643067
4.095801225808078
4.095801225808078
4.095801225808078
4.095801225808078
4.101955697973087
4.095801225808078
4.095801225808078
4.089646753643067
4.095801225808078
4.095801225808078
4.095801225808078
4.101955697973087
4.101955697973087
4.095801225808078
4.101955697973087
4.095801225808078
4.095801225808078
4.095801225808078
4.095801225808078
4.095801225808078
4.095801225808078
4.101955697973087
4.101955697973087
4.101955697973087
4.077337809313075
4.021947559828071
4.108110170138069
4.114264642303079
4.101955697973087
4.108110170138069
4.095801225808078
4.077337809313075
4.089646753643067
4.089646753643067
4.095801225808078
4.089646753643067
4.089646753643067
4.095801225808078
4.089646753643067
4.095801225808078
4.095801225808078
4.089646753643067
4.095801225808078
4.095801225808078
4.101955697973087
4.095801225808078
4.095801225808078
4.101955697973087
4.101955697973087
4.089646753643067
4.095801225808078
4.095801225808078
4.095801225808078
4.089646753643067
4.095801225808078
4.101955697973087
4.095801225808078
4.101955697973087
4.101955697973087
4.095801225808078
4.101955697973087
4.089646753643067
4.089646753643067
4.101955697973087
4.095801225808078
4.101955697973087
4.095801225808078
4.095801225808078
4.095801225808078
4.083492281478085
4.009638615498079
4.101955697973087
4.114264642303079
4.114264642303079
4.101955697973087
4.108110170138069
4.108110170138069
4.089646753643067
4.077337809313075
4.089646753643067
4.095801225808078
4.089646753643067
4.101955697973087
4.089646753643067
4.089646753643067
4.089646753643067
4.101955697973087
4.114264642303079
4.120419114468088
4.12657358663307
4.114264642303079
4.114264642303079
4.114264642303079
4.101955697973087
4.108110170138069
4.101955697973087
4.095801225808078
4.095801225808078
4.101955697973087
4.101955697973087
4.101955697973087
4.089646753643067
4.101955697973087
4.101955697973087
4.095801225808078
4.095801225808078
4.095801225808078
4.101955697973087
4.095801225808078
4.089646753643067
4.095801225808078
4.101955697973087
4.101955697973087
4.101955697973087
4.101955697973087
4.101955697973087
4.095801225808078
4.101955697973087
4.101955697973087
4.095801225808078
4.083492281478085
4.089646753643067
4.089646753643067
4.114264642303079
4.1758093639530935
4.255817502098108
4.341980112408105
4.385061417563119
4.335825640243124
4.200427252613103
4.095801225808078
4.040410976323072
4.015793087663061
4.028102031993082
4.065028864983084
4.077337809313075
4.083492281478085
4.089646753643067
4.083492281478085
4.095801225808078
4.095801225808078
4.101955697973087
4.095801225808078
4.095801225808078
4.101955697973087
4.101955697973087
4.077337809313075
4.028102031993082
4.089646753643067
4.089646753643067
4.095801225808078
4.095801225808078
4.101955697973087
4.101955697973087
4.101955697973087
4.101955697973087
4.095801225808078
4.095801225808078
4.101955697973087
4.101955697973087
4.095801225808078
4.095801225808078
4.101955697973087
4.101955697973087
4.095801225808078
4.095801225808078
4.101955697973087
4.095801225808078
4.108110170138069
4.108110170138069
4.101955697973087
4.108110170138069
4.101955697973087
4.108110170138069
4.108110170138069
4.095801225808078
4.101955697973087
4.095801225808078
4.095801225808078
4.095801225808078
4.095801225808078
4.101955697973087
4.095801225808078
4.089646753643067
4.095801225808078
4.095801225808078
4.095801225808078
4.089646753643067
4.089646753643067
4.089646753643067
4.089646753643067
4.095801225808078
4.095801225808078
4.095801225808078
4.101955697973087
4.101955697973087
4.108110170138069
4.108110170138069
4.108110170138069
4.114264642303079
4.120419114468088
4.120419114468088
4.120419114468088
4.108110170138069
4.114264642303079
4.108110170138069
4.108110170138069
4.114264642303079
4.101955697973087
4.101955697973087
4.095801225808078
4.095801225808078
4.101955697973087
4.095801225808078
4.095801225808078
4.089646753643067
4.089646753643067
4.095801225808078
4.089646753643067
4.089646753643067
4.089646753643067
4.089646753643067
4.089646753643067
4.089646753643067
4.089646753643067
4.083492281478085
4.083492281478085
4.083492281478085
4.095801225808078
4.089646753643067
4.095801225808078
4.089646753643067
4.089646753643067
4.095801225808078
4.077337809313075
4.089646753643067
4.083492281478085
4.083492281478085
4.089646753643067
4.083492281478085
4.077337809313075
4.077337809313075
4.077337809313075
4.083492281478085
4.083492281478085
4.083492281478085
4.089646753643067
4.083492281478085
4.089646753643067
4.083492281478085
4.083492281478085
4.083492281478085
4.083492281478085
4.083492281478085
4.089646753643067
4.083492281478085
4.083492281478085
4.083492281478085
4.083492281478085
4.083492281478085
4.083492281478085
4.077337809313075
4.083492281478085
4.077337809313075
4.077337809313075
4.077337809313075
4.0711833371480655
4.083492281478085
4.065028864983084
4.003484143333068
4.095801225808078
4.101955697973087
4.095801225808078
4.083492281478085
4.065028864983084
4.077337809313075
4.077337809313075
4.077337809313075
4.077337809313075
4.083492281478085
4.083492281478085
4.083492281478085
4.083492281478085
4.077337809313075
4.089646753643067
4.083492281478085
4.089646753643067
4.083492281478085
4.089646753643067
4.083492281478085
4.089646753643067
4.083492281478085
4.083492281478085
4.083492281478085
4.083492281478085
4.095801225808078
4.101955697973087
4.089646753643067
4.095801225808078
4.089646753643067
4.095801225808078
4.095801225808078
4.089646753643067
4.095801225808078
4.089646753643067
4.089646753643067
4.089646753643067
4.089646753643067
4.089646753643067
4.083492281478085
4.083492281478085
4.089646753643067
4.089646753643067
4.089646753643067
4.089646753643067
4.083492281478085
4.089646753643067
4.108110170138069
4.114264642303079
4.114264642303079
4.114264642303079
4.101955697973087
4.108110170138069
4.114264642303079
4.101955697973087
4.108110170138069
4.101955697973087
4.101955697973087
4.089646753643067
4.089646753643067
4.101955697973087
4.101955697973087
4.089646753643067
4.095801225808078
4.101955697973087
4.095801225808078
4.089646753643067
4.089646753643067
4.089646753643067
4.089646753643067
4.083492281478085
4.095801225808078
4.083492281478085
4.083492281478085
4.083492281478085
4.089646753643067
4.089646753643067
4.095801225808078
4.089646753643067
4.083492281478085
4.083492281478085
4.065028864983084
4.065028864983084
4.077337809313075
4.101955697973087
4.157345947458091
4.231199613438097
4.305053279418103
4.341980112408105
4.2681264464281
4.138882530963089
4.052719920653064
4.015793087663061
3.9973296711680604
4.003484143333068
4.034256504158063
4.058874392818074
4.065028864983084
4.0711833371480655
4.0711833371480655
4.0711833371480655
4.077337809313075
4.0711833371480655
4.077337809313075
4.077337809313075
4.077337809313075
4.077337809313075
4.089646753643067
4.089646753643067
4.089646753643067
4.083492281478085
4.089646753643067
4.083492281478085
4.0711833371480655
4.015793087663061
4.089646753643067
4.095801225808078
4.101955697973087
4.095801225808078
4.101955697973087
4.0711833371480655
3.9788662546730578
4.052719920653064
4.077337809313075
4.077337809313075
4.077337809313075
4.077337809313075
4.083492281478085
4.089646753643067
4.083492281478085
4.089646753643067
4.089646753643067
4.083492281478085
4.089646753643067
4.095801225808078
4.095801225808078
4.095801225808078
4.089646753643067
4.089646753643067
4.095801225808078
4.095801225808078
4.095801225808078
4.095801225808078
4.095801225808078
4.095801225808078
4.095801225808078
4.089646753643067
4.101955697973087
4.089646753643067
4.089646753643067
4.095801225808078
4.095801225808078
4.095801225808078
4.101955697973087
4.101955697973087
4.101955697973087
4.108110170138069
4.108110170138069
4.108110170138069
4.120419114468088
4.114264642303079
4.108110170138069
4.120419114468088
4.12657358663307
4.12657358663307
4.120419114468088
4.114264642303079
4.108110170138069
4.114264642303079
4.101955697973087
4.101955697973087
4.095801225808078
4.095801225808078
4.095801225808078
4.095801225808078
4.089646753643067
4.083492281478085
4.089646753643067
4.083492281478085
4.089646753643067
4.089646753643067
4.083492281478085
4.089646753643067
4.083492281478085
4.083492281478085
4.083492281478085
4.083492281478085
4.083492281478085
4.089646753643067
4.089646753643067
4.095801225808078
4.095801225808078
4.083492281478085
4.089646753643067
4.095801225808078
4.101955697973087
4.089646753643067
4.095801225808078
4.101955697973087
4.12657358663307
4.138882530963089
4.163500419623101
4.1758093639530935
4.181963836118102
4.181963836118102
4.188118308283084
4.1942727804480935
4.200427252613103
4.1942727804480935
4.200427252613103
4.200427252613103
4.200427252613103
4.2065817247780855
4.2065817247780855
4.200427252613103
4.2065817247780855
4.2065817247780855
4.200427252613103
4.200427252613103
4.200427252613103
4.2065817247780855
4.2065817247780855
4.200427252613103
4.1942727804480935
4.1942727804480935
4.200427252613103
4.1942727804480935
4.1942727804480935
4.1942727804480935
4.188118308283084
4.188118308283084
4.188118308283084
4.188118308283084
4.188118308283084
4.188118308283084
4.1942727804480935
4.1942727804480935
4.188118308283084
4.181963836118102
4.1758093639530935
4.188118308283084
4.188118308283084
4.169654891788083
4.114264642303079
4.1942727804480935
4.200427252613103
4.1942727804480935
4.1758093639530935
4.169654891788083
4.181963836118102
4.181963836118102
4.1758093639530935
4.181963836118102
4.181963836118102
4.1758093639530935
4.1758093639530935
4.169654891788083
4.169654891788083
4.169654891788083
4.181963836118102
4.169654891788083
4.169654891788083
4.169654891788083
4.169654891788083
4.1758093639530935
4.163500419623101
4.169654891788083
4.169654891788083
4.169654891788083
4.169654891788083
4.169654891788083
4.163500419623101
4.169654891788083
4.1758093639530935
4.181963836118102
4.188118308283084
4.1942727804480935
4.188118308283084
4.181963836118102
4.181963836118102
4.1758093639530935
4.169654891788083
4.169654891788083
4.1758093639530935
4.169654891788083
4.163500419623101
4.145037003128072
4.151191475293081
4.157345947458091
4.151191475293081
4.145037003128072
4.151191475293081
4.151191475293081
4.145037003128072
4.145037003128072
4.145037003128072
4.145037003128072
4.138882530963089
4.1327280587980795
4.1327280587980795
4.138882530963089
4.138882530963089
4.1327280587980795
4.138882530963089
4.138882530963089
4.1327280587980795
4.1327280587980795
4.1327280587980795
4.114264642303079
4.120419114468088
4.120419114468088
4.151191475293081
4.2065817247780855
4.2865898629231
4.366598001068117
4.415833778388112
4.348134584573115
4.225045141273086
4.114264642303079
4.077337809313075
4.058874392818074
4.0711833371480655
4.095801225808078
4.114264642303079
4.120419114468088
4.120419114468088
4.120419114468088
4.108110170138069
4.114264642303079
4.120419114468088
4.114264642303079
4.120419114468088
4.120419114468088
4.120419114468088
4.114264642303079
4.12657358663307
4.12657358663307
4.12657358663307
4.120419114468088
4.12657358663307
4.120419114468088
4.114264642303079
4.120419114468088
4.120419114468088
4.12657358663307
4.12657358663307
4.120419114468088
4.12657358663307
4.12657358663307
4.114264642303079
4.12657358663307
4.12657358663307
4.1327280587980795
4.12657358663307
4.1327280587980795
4.1327280587980795
4.12657358663307
4.12657358663307
4.12657358663307
4.138882530963089
4.1327280587980795
4.12657358663307
4.12657358663307
4.1327280587980795
4.108110170138069
4.0465654484880815
4.1327280587980795
4.145037003128072
4.145037003128072
4.138882530963089
4.1327280587980795
4.12657358663307
4.120419114468088
4.108110170138069
4.108110170138069
4.114264642303079
4.114264642303079
4.114264642303079
4.120419114468088
4.120419114468088
4.114264642303079
4.120419114468088
4.1327280587980795
4.12657358663307
4.1327280587980795
4.138882530963089
4.138882530963089
4.145037003128072
4.145037003128072
4.145037003128072
4.145037003128072
4.157345947458091
4.151191475293081
4.157345947458091
4.151191475293081
4.151191475293081
4.138882530963089
4.145037003128072
4.138882530963089
4.1327280587980795
4.1327280587980795
4.138882530963089
4.12657358663307
4.1327280587980795
4.120419114468088
4.12657358663307
4.12657358663307
4.114264642303079
4.120419114468088
4.120419114468088
4.12657358663307
4.120419114468088
4.120419114468088
4.114264642303079
4.120419114468088
4.120419114468088
4.114264642303079
4.114264642303079
4.114264642303079
4.108110170138069
4.108110170138069
4.114264642303079
4.108110170138069
4.108110170138069
4.101955697973087
4.114264642303079
4.108110170138069
4.089646753643067
4.028102031993082
4.114264642303079
4.1327280587980795
4.120419114468088
4.120419114468088
4.114264642303079
4.114264642303079
4.108110170138069
4.083492281478085
4.101955697973087
4.101955697973087
4.108110170138069
4.101955697973087
4.101955697973087
4.108110170138069
4.095801225808078
4.108110170138069
4.108110170138069
4.108110170138069
4.108110170138069
4.108110170138069
4.101955697973087
4.101955697973087
4.101955697973087
4.101955697973087
4.108110170138069
4.108110170138069
4.108110170138069
4.108110170138069
4.101955697973087
4.101955697973087
4.095801225808078
4.108110170138069
4.101955697973087
4.108110170138069
4.108110170138069
4.108110170138069
4.101955697973087
4.101955697973087
4.101955697973087
4.101955697973087
4.108110170138069
4.101955697973087
4.101955697973087
4.101955697973087
4.108110170138069
4.108110170138069
4.101955697973087
4.108110170138069
4.101955697973087
4.108110170138069
4.108110170138069
4.108110170138069
4.108110170138069
4.114264642303079
4.108110170138069
4.101955697973087
4.108110170138069
4.089646753643067
4.034256504158063
4.108110170138069
4.120419114468088
4.101955697973087
4.089646753643067
4.101955697973087
4.095801225808078
4.101955697973087
4.108110170138069
4.114264642303079
4.101955697973087
4.095801225808078
4.101955697973087
4.114264642303079
4.12657358663307
4.12657358663307
4.1327280587980795
4.12657358663307
4.12657358663307
4.12657358663307
4.120419114468088
4.12657358663307
4.114264642303079
4.114264642303079
4.120419114468088
4.108110170138069
4.108110170138069
4.108110170138069
4.108110170138069
4.108110170138069
4.108110170138069
4.114264642303079
4.095801225808078
4.101955697973087
4.101955697973087
4.095801225808078
4.101955697973087
4.101955697973087
4.108110170138069
4.101955697973087
4.114264642303079
4.114264642303079
4.114264642303079
4.101955697973087
4.114264642303079
4.114264642303079
4.114264642303079
4.101955697973087
4.101955697973087
4.108110170138069
4.120419114468088
4.157345947458091
4.231199613438097
4.323516695913104
4.391215889728128
4.385061417563119
4.280435390758092
4.145037003128072
4.065028864983084
4.040410976323072
4.040410976323072
4.0711833371480655
4.089646753643067
4.095801225808078
4.108110170138069
4.108110170138069
4.095801225808078
4.101955697973087
4.095801225808078
4.101955697973087
4.108110170138069
4.101955697973087
4.101955697973087
4.114264642303079
4.101955697973087
4.101955697973087
4.108110170138069
4.108110170138069
4.114264642303079
4.108110170138069
4.108110170138069
4.114264642303079
4.108110170138069
4.114264642303079
4.108110170138069
4.114264642303079
4.114264642303079
4.114264642303079
4.108110170138069
4.108110170138069
4.108110170138069
4.114264642303079
4.114264642303079
4.108110170138069
4.120419114468088
4.108110170138069
4.114264642303079
4.114264642303079
4.114264642303079
4.114264642303079
4.114264642303079
4.108110170138069
4.108110170138069
4.108110170138069
4.108110170138069
4.101955697973087
4.095801225808078
4.108110170138069
4.108110170138069
4.101955697973087
4.108110170138069
4.101955697973087
4.101955697973087
4.089646753643067
4.095801225808078
4.095801225808078
4.101955697973087
4.108110170138069
4.108110170138069
4.108110170138069
4.108110170138069
4.083492281478085
4.040410976323072
4.120419114468088
4.120419114468088
4.120419114468088
4.1327280587980795
4.12657358663307
4.1327280587980795
4.114264642303079
4.114264642303079
4.108110170138069
4.114264642303079
4.114264642303079
4.114264642303079
4.114264642303079
4.108110170138069
4.101955697973087
4.108110170138069
4.101955697973087
4.101955697973087
4.101955697973087
4.095801225808078
4.095801225808078
4.089646753643067
4.083492281478085
4.083492281478085
4.083492281478085
4.083492281478085
4.095801225808078
4.083492281478085
4.089646753643067
4.089646753643067
4.077337809313075
4.089646753643067
4.089646753643067
4.089646753643067
4.083492281478085
4.089646753643067
4.083492281478085
4.0711833371480655
4.077337809313075
4.083492281478085
4.077337809313075
4.089646753643067
4.077337809313075
4.083492281478085
4.077337809313075
4.0711833371480655
4.083492281478085
4.083492281478085
4.083492281478085
4.083492281478085
4.083492281478085
4.077337809313075
4.089646753643067
4.083492281478085
4.083492281478085
4.083492281478085
4.083492281478085
4.089646753643067
4.089646753643067
4.089646753643067
4.089646753643067
4.083492281478085
4.077337809313075
4.089646753643067
4.089646753643067
4.089646753643067
4.089646753643067
4.083492281478085
4.077337809313075
4.077337809313075
4.083492281478085
4.077337809313075
4.083492281478085
4.083492281478085
4.077337809313075
4.089646753643067
4.083492281478085
4.083492281478085
4.083492281478085
4.083492281478085
4.083492281478085
4.077337809313075
4.083492281478085
4.077337809313075
4.077337809313075
4.0711833371480655
4.077337809313075
4.077337809313075
4.077337809313075
4.077337809313075
4.083492281478085
4.077337809313075
4.077337809313075
4.083492281478085
4.077337809313075
4.083492281478085
4.089646753643067
4.077337809313075
4.077337809313075
4.083492281478085
4.077337809313075
4.077337809313075
4.077337809313075
4.083492281478085
4.077337809313075
4.083492281478085
4.077337809313075
4.0711833371480655
4.0711833371480655
4.077337809313075
4.083492281478085
4.089646753643067
4.083492281478085
4.083492281478085
4.089646753643067
4.089646753643067
4.083492281478085
4.095801225808078
4.108110170138069
4.108110170138069
4.083492281478085
4.028102031993082
4.101955697973087
4.114264642303079
4.089646753643067
4.089646753643067
4.083492281478085
4.083492281478085
4.089646753643067
4.089646753643067
4.083492281478085
4.0711833371480655
3.9973296711680604
4.083492281478085
4.108110170138069
4.095801225808078
4.089646753643067
4.089646753643067
4.083492281478085
4.0711833371480655
4.065028864983084
4.0711833371480655
4.0711833371480655
4.0711833371480655
4.077337809313075
4.077337809313075
4.0711833371480655
4.0711833371480655
4.077337809313075
4.077337809313075
4.0711833371480655
4.065028864983084
4.065028864983084
4.077337809313075
4.101955697973087
4.151191475293081
4.225045141273086
4.298898807253093
4.348134584573115
4.280435390758092
4.157345947458091
4.058874392818074
4.003484143333068
3.9911751990030497
4.003484143333068
4.021947559828071
4.0465654484880815
4.058874392818074
4.065028864983084
4.065028864983084
4.077337809313075
4.065028864983084
4.077337809313075
4.077337809313075
4.077337809313075
4.077337809313075
4.077337809313075
4.0711833371480655
4.077337809313075
4.0711833371480655
4.083492281478085
4.083492281478085
4.077337809313075
4.0711833371480655
4.0711833371480655
4.077337809313075
4.077337809313075
4.083492281478085
4.077337809313075
4.077337809313075
4.083492281478085
4.089646753643067
4.083492281478085
4.089646753643067
4.089646753643067
4.083492281478085
4.089646753643067
4.101955697973087
4.095801225808078
4.101955697973087
4.101955697973087
4.101955697973087
4.101955697973087
4.101955697973087
4.101955697973087
4.101955697973087
4.101955697973087
4.101955697973087
4.095801225808078
4.095801225808078
4.095801225808078
4.101955697973087
4.095801225808078
4.101955697973087
4.101955697973087
4.101955697973087
4.095801225808078
4.101955697973087
4.095801225808078
4.101955697973087
4.108110170138069
4.108110170138069
4.114264642303079
4.114264642303079
4.114264642303079
4.120419114468088
4.108110170138069
4.120419114468088
4.12657358663307
4.12657358663307
4.12657358663307
4.1327280587980795
4.138882530963089
4.1327280587980795
4.1327280587980795
4.12657358663307
4.1327280587980795
4.120419114468088
4.120419114468088
4.114264642303079
4.120419114468088
4.114264642303079
4.083492281478085
4.040410976323072
4.120419114468088
4.120419114468088
4.120419114468088
4.114264642303079
4.114264642303079
4.089646753643067
4.083492281478085
4.083492281478085
4.095801225808078
4.095801225808078
4.095801225808078
4.095801225808078
4.095801225808078
4.089646753643067
4.089646753643067
4.101955697973087
4.095801225808078
4.095801225808078
4.108110170138069
4.108110170138069
4.101955697973087
4.108110170138069
4.114264642303079
4.120419114468088
4.120419114468088
4.120419114468088
4.120419114468088
4.108110170138069
4.114264642303079
4.108110170138069
4.114264642303079
4.120419114468088
4.120419114468088
4.114264642303079
4.120419114468088
4.114264642303079
4.101955697973087
4.114264642303079
4.108110170138069
4.120419114468088
4.120419114468088
4.120419114468088
4.114264642303079
4.114264642303079
4.114264642303079
4.114264642303079
4.12657358663307
4.114264642303079
4.12657358663307
4.120419114468088
4.12657358663307
4.120419114468088
4.114264642303079
4.12657358663307
4.12657358663307
4.1327280587980795
4.1327280587980795
4.1327280587980795
4.12657358663307
4.12657358663307
4.120419114468088
4.120419114468088
4.12657358663307
4.12657358663307
4.12657358663307
4.12657358663307
4.12657358663307
4.12657358663307
4.12657358663307
4.12657358663307
4.12657358663307
4.1327280587980795
4.1327280587980795
4.12657358663307
4.12657358663307
4.12657358663307
4.12657358663307
4.1327280587980795
4.1327280587980795
4.138882530963089
4.1327280587980795
4.1327280587980795
4.138882530963089
4.138882530963089
4.12657358663307
4.1327280587980795
4.1327280587980795
4.1327280587980795
4.1327280587980795
4.138882530963089
4.138882530963089
4.1327280587980795
4.12657358663307
4.1327280587980795
4.138882530963089
4.12657358663307
4.1327280587980795
4.138882530963089
4.151191475293081
4.151191475293081
4.157345947458091
4.157345947458091
4.151191475293081
4.151191475293081
4.145037003128072
4.145037003128072
4.145037003128072
4.138882530963089
4.138882530963089
4.1327280587980795
4.138882530963089
4.1327280587980795
4.1327280587980795
4.1327280587980795
4.1327280587980795
4.12657358663307
4.1327280587980795
4.12657358663307
4.12657358663307
4.12657358663307
4.114264642303079
4.065028864983084
4.1327280587980795
4.114264642303079
4.114264642303079
4.120419114468088
4.12657358663307
4.120419114468088
4.120419114468088
4.12657358663307
4.12657358663307
4.101955697973087
4.108110170138069
4.114264642303079
4.138882530963089
4.181963836118102
4.255817502098108
4.329671168078114
4.37890694539811
4.335825640243124
4.218890669108104
4.114264642303079
4.058874392818074
4.034256504158063
4.0465654484880815
4.0711833371480655
4.089646753643067
4.101955697973087
4.114264642303079
4.108110170138069
4.114264642303079
4.114264642303079
4.114264642303079
4.114264642303079
4.108110170138069
4.108110170138069
4.120419114468088
4.114264642303079
4.120419114468088
4.108110170138069
4.114264642303079
4.120419114468088
4.108110170138069
4.114264642303079
4.120419114468088
4.114264642303079
4.114264642303079
4.120419114468088
4.114264642303079
4.114264642303079
4.108110170138069
4.114264642303079
4.114264642303079
4.114264642303079
4.120419114468088
4.120419114468088
4.120419114468088
4.120419114468088
4.120419114468088
4.114264642303079
4.114264642303079
4.120419114468088
4.12657358663307
4.114264642303079
4.120419114468088
4.12657358663307
4.120419114468088
4.120419114468088
4.12657358663307
4.120419114468088
4.120419114468088
4.120419114468088
4.120419114468088
4.120419114468088
4.114264642303079
4.120419114468088
4.12657358663307
4.120419114468088
4.12657358663307
4.120419114468088
4.12657358663307
4.114264642303079
4.0465654484880815
4.120419114468088
4.1327280587980795
4.1327280587980795
4.1327280587980795
4.138882530963089
4.138882530963089
4.1327280587980795
4.120419114468088
4.12657358663307
4.1327280587980795
4.138882530963089
4.12657358663307
4.1327280587980795
4.12657358663307
4.12657358663307
4.12657358663307
4.114264642303079
4.114264642303079
4.108110170138069
4.108110170138069
4.114264642303079
4.101955697973087
4.108110170138069
4.108110170138069
4.101955697973087
4.108110170138069
4.108110170138069
4.101955697973087
4.108110170138069
4.101955697973087
4.089646753643067
4.095801225808078
4.095801225808078
4.101955697973087
4.101955697973087
4.101955697973087
4.108110170138069
4.101955697973087
4.095801225808078
4.077337809313075
4.034256504158063
4.108110170138069
4.108110170138069
4.108110170138069
4.108110170138069
4.108110170138069
4.083492281478085
4.083492281478085
4.095801225808078
4.101955697973087
4.095801225808078
4.095801225808078
4.095801225808078
4.101955697973087
4.095801225808078
4.095801225808078
4.101955697973087
4.101955697973087
4.101955697973087
4.101955697973087
4.101955697973087
4.089646753643067
4.095801225808078
4.101955697973087
4.095801225808078
4.095801225808078
4.101955697973087
4.101955697973087
4.089646753643067
4.089646753643067
4.089646753643067
4.089646753643067
4.089646753643067
4.089646753643067
4.095801225808078
4.089646753643067
4.095801225808078
4.083492281478085
4.089646753643067
4.095801225808078
4.089646753643067
4.089646753643067
4.095801225808078
4.095801225808078
4.083492281478085
4.089646753643067
4.083492281478085
4.089646753643067
4.089646753643067
4.083492281478085
4.083492281478085
4.089646753643067
4.083492281478085
4.083492281478085
4.083492281478085
4.089646753643067
4.089646753643067
4.083492281478085
4.083492281478085
4.089646753643067
4.077337809313075
4.077337809313075
4.077337809313075
4.077337809313075
4.083492281478085
4.077337809313075
4.077337809313075
4.077337809313075
4.077337809313075
4.0711833371480655
4.0711833371480655
4.077337809313075
4.0711833371480655
4.077337809313075
4.077337809313075
4.077337809313075
4.065028864983084
4.065028864983084
4.0711833371480655
4.077337809313075
4.0711833371480655
4.0711833371480655
4.0711833371480655
4.077337809313075
4.077337809313075
4.089646753643067
4.095801225808078
4.095801225808078
4.095801225808078
4.095801225808078
4.101955697973087
4.089646753643067
4.083492281478085
4.089646753643067
4.089646753643067
4.089646753643067
4.083492281478085
4.083492281478085
4.083492281478085
4.077337809313075
4.083492281478085
4.077337809313075
4.077337809313075
4.077337809313075
4.077337809313075
4.077337809313075
4.083492281478085
4.0711833371480655
4.0711833371480655
4.077337809313075
4.0711833371480655
4.077337809313075
4.077337809313075
4.077337809313075
4.077337809313075
4.077337809313075
4.0711833371480655
4.077337809313075
4.0711833371480655
4.065028864983084
4.0711833371480655
4.058874392818074
4.034256504158063
4.1758093639530935
4.249663029933098
4.329671168078114
4.354289056738125
4.280435390758092
4.145037003128072
4.052719920653064
4.021947559828071
3.9973296711680604
4.015793087663061
4.052719920653064
4.058874392818074
4.065028864983084
4.065028864983084
4.065028864983084
4.058874392818074
4.058874392818074
4.058874392818074
4.0711833371480655
4.0711833371480655
4.065028864983084
4.0711833371480655
4.0711833371480655
4.0711833371480655
4.065028864983084
4.065028864983084
4.077337809313075
4.077337809313075
4.065028864983084
4.077337809313075
4.077337809313075
4.077337809313075
4.065028864983084
4.077337809313075
4.077337809313075
4.077337809313075
4.0711833371480655
4.0711833371480655
4.0711833371480655
4.0711833371480655
4.077337809313075
4.077337809313075
4.077337809313075
4.083492281478085
4.077337809313075
4.083492281478085
4.077337809313075
4.077337809313075
4.077337809313075
4.077337809313075
4.083492281478085
4.077337809313075
4.077337809313075
4.077337809313075
4.083492281478085
4.077337809313075
4.077337809313075
4.083492281478085
4.083492281478085
4.077337809313075
4.077337809313075
4.0711833371480655
4.0711833371480655
4.0711833371480655
4.077337809313075
4.077337809313075
4.077337809313075
4.0711833371480655
4.0711833371480655
4.0711833371480655
4.077337809313075
4.083492281478085
4.089646753643067
4.089646753643067
4.095801225808078
4.108110170138069
4.101955697973087
4.108110170138069
4.108110170138069
4.108110170138069
4.108110170138069
4.120419114468088
4.114264642303079
4.114264642303079
4.101955697973087
4.108110170138069
4.101955697973087
4.089646753643067
4.095801225808078
4.089646753643067
4.095801225808078
4.095801225808078
4.089646753643067
4.095801225808078
4.095801225808078
4.083492281478085
4.089646753643067
4.083492281478085
4.089646753643067
4.089646753643067
4.089646753643067
4.083492281478085
4.083492281478085
4.065028864983084
4.083492281478085
4.083492281478085
4.077337809313075
4.0711833371480655
4.058874392818074
4.021947559828071
3.9604028381780574
4.040410976323072
4.077337809313075
4.089646753643067
4.114264642303079
4.089646753643067
4.052719920653064
4.095801225808078
4.114264642303079
4.083492281478085
4.058874392818074
4.028102031993082
4.108110170138069
4.065028864983084
4.021947559828071
4.015793087663061
4.052719920653064
4.120419114468088
4.151191475293081
4.1327280587980795
4.120419114468088
4.114264642303079
4.108110170138069
4.101955697973087
4.089646753643067
4.095801225808078
4.108110170138069
4.101955697973087
4.101955697973087
4.114264642303079
4.120419114468088
4.114264642303079
4.089646753643067
4.0711833371480655
4.0711833371480655
4.089646753643067
4.114264642303079
4.12657358663307
4.114264642303079
4.065028864983084
3.9665573103430654
4.077337809313075
4.101955697973087
4.089646753643067
4.114264642303079
4.120419114468088
4.101955697973087
4.089646753643067
4.052719920653064
4.028102031993082
4.052719920653064
4.0711833371480655
4.058874392818074
4.028102031993082
4.034256504158063
4.089646753643067
4.101955697973087
4.083492281478085
4.058874392818074
4.058874392818074
4.0465654484880815
4.052719920653064
4.058874392818074
4.065028864983084
4.065028864983084
4.034256504158063
3.9911751990030497
3.9665573103430654
4.015793087663061
4.083492281478085
4.089646753643067
4.034256504158063
4.028102031993082
4.052719920653064
4.052719920653064
4.052719920653064
4.028102031993082
4.015793087663061
4.021947559828071
3.9973296711680604
4.003484143333068
4.040410976323072
4.0465654484880815
4.021947559828071
3.9911751990030497
4.003484143333068
4.058874392818074
4.015793087663061
4.028102031993082
4.095801225808078
4.028102031993082
3.8927036443630603
3.9850207268380675
4.181963836118102
4.181963836118102
4.138882530963089
4.138882530963089
4.145037003128072
4.151191475293081
4.188118308283084
4.212736196943095
4.225045141273086
4.218890669108104
4.231199613438097
4.2681264464281
4.280435390758092
4.305053279418103
4.329671168078114
4.440451667048122
4.5327687495231315
4.563541110348153
4.717402914473173
4.840492357773174
4.8651102464331855
4.9389639124131905
5.037435467053208
5.031280994888199
5.018972050558207
5.018972050558207
5.0497444113832
5.080516772208221
5.043589939218219
5.043589939218219
5.172833854683229
5.277459881488256
5.2220696320032225
5.000508634063205
4.877419190763177
4.963581801073202
5.018972050558207
4.994354161898196
4.969736273238212
4.877419190763177
4.686630553648152
4.785102108288171
4.809719996948181
4.797411052618189
4.7912565804531795
4.797411052618189
4.785102108288171
4.772793163958178
4.754329747463175
4.748175275298167
4.772793163958178
4.766638691793168
4.754329747463175
4.760484219628157
4.766638691793168
4.760484219628157
4.754329747463175
4.754329747463175
4.754329747463175
4.748175275298167
4.7420208031331565
4.7420208031331565
4.785102108288171
4.785102108288171
4.760484219628157
4.754329747463175
4.735866330968175
4.692785025813162
4.698939497978172
4.772793163958178
4.772793163958178
4.760484219628157
4.723557386638155
4.7297118588031655
4.735866330968175
4.692785025813162
4.686630553648152
4.7297118588031655
4.698939497978172
4.668167137153151
4.686630553648152
4.7420208031331565
4.705093970143154
4.67432160931816
4.668167137153151
4.692785025813162
4.760484219628157
4.797411052618189
4.772793163958178
4.772793163958178
4.7420208031331565
4.649703720658149
4.637394776328158
4.797411052618189
4.8528013021031935
4.803565524783171
4.760484219628157
4.748175275298167
4.7297118588031655
4.692785025813162
4.67432160931816
4.735866330968175
4.766638691793168
4.766638691793168
4.754329747463175
4.717402914473173
4.662012664988168
4.625085831998166
4.649703720658149
4.705093970143154
4.7420208031331565
4.711248442308165
4.698939497978172
4.668167137153151
4.649703720658149
4.618931359833156
4.5820045268431535
4.588158999008135
4.618931359833156
4.618931359833156
4.631240304163148
4.625085831998166
4.618931359833156
4.588158999008135
4.508150860863147
4.557386638183142
4.6435492484931675
4.618931359833156
4.575850054678144
4.563541110348153
4.588158999008135
4.5820045268431535
4.569695582513134
4.551232166018132
4.538923221688139
4.452760611378115
4.465069555708134
4.6004679433381535
4.6004679433381535
4.551232166018132
4.495841916533128
4.489687444368147
4.557386638183142
4.575850054678144
4.551232166018132
4.520459805193139
4.526614277358149
4.508150860863147
4.508150860863147
4.54507769385315
4.54507769385315
4.520459805193139
4.508150860863147
4.508150860863147
4.501996388698137
4.495841916533128
4.489687444368147
4.458915083543125
4.434297194883113
4.508150860863147
4.520459805193139
4.446606139213133
4.261971974263091
4.446606139213133
4.520459805193139
4.483532972203136
4.434297194883113
4.428142722718132
4.452760611378115
4.465069555708134
4.465069555708134
4.452760611378115
4.446606139213133
4.428142722718132
4.40967930622313
4.421988250553122
4.421988250553122
4.421988250553122
4.415833778388112
4.415833778388112
4.397370361893111
4.40352483405812
4.397370361893111
4.40352483405812
4.40352483405812
4.397370361893111
4.397370361893111
4.385061417563119
4.360443528903107
4.354289056738125
4.385061417563119
4.415833778388112
4.391215889728128
4.385061417563119
4.37890694539811
4.385061417563119
4.3727524732331275
4.360443528903107
4.360443528903107
4.3727524732331275
4.366598001068117
4.385061417563119
4.40352483405812
4.391215889728128
4.385061417563119
4.37890694539811
4.366598001068117
4.37890694539811
4.348134584573115
4.366598001068117
4.385061417563119
4.354289056738125
4.366598001068117
4.341980112408105
4.3173622237481215
4.354289056738125
4.3727524732331275
4.366598001068117
4.354289056738125
4.329671168078114
4.3112077515831135
4.3173622237481215
4.3173622237481215
4.3112077515831135
4.3173622237481215
4.305053279418103
4.341980112408105
4.348134584573115
4.329671168078114
4.255817502098108
4.249663029933098
4.305053279418103
4.360443528903107
4.348134584573115
4.3173622237481215
4.298898807253093
4.2865898629231
4.2681264464281
4.3112077515831135
4.385061417563119
4.440451667048122
4.465069555708134
4.465069555708134
4.391215889728128
4.305053279418103
4.249663029933098
4.212736196943095
4.200427252613103
4.1942727804480935
4.188118308283084
4.231199613438097
4.2681264464281
4.231199613438097
4.188118308283084
4.261971974263091
4.3112077515831135
4.305053279418103
4.292744335088111
4.27428091859311
4.243508557768089
4.169654891788083
4.052719920653064
4.261971974263091
4.292744335088111
4.280435390758092
4.261971974263091
4.243508557768089
4.231199613438097
4.2065817247780855
4.181963836118102
4.188118308283084
4.200427252613103
4.225045141273086
4.225045141273086
4.218890669108104
4.212736196943095
4.188118308283084
4.181963836118102
4.151191475293081
4.145037003128072
4.225045141273086
4.280435390758092
4.2681264464281
4.1942727804480935
4.0465654484880815
4.200427252613103
4.218890669108104
4.218890669108104
4.212736196943095
4.218890669108104
4.212736196943095
4.200427252613103
4.181963836118102
4.181963836118102
4.200427252613103
4.200427252613103
4.212736196943095
4.212736196943095
4.200427252613103
4.200427252613103
4.188118308283084
4.2065817247780855
4.225045141273086
4.231199613438097
4.225045141273086
4.231199613438097
4.218890669108104
4.212736196943095
4.212736196943095
4.225045141273086
4.225045141273086
4.231199613438097
4.243508557768089
4.237354085603107
4.237354085603107
4.225045141273086
4.212736196943095
4.225045141273086
4.231199613438097
4.225045141273086
4.218890669108104
4.212736196943095
4.2065817247780855
4.188118308283084
4.1942727804480935
4.200427252613103
4.1942727804480935
4.1942727804480935
4.1942727804480935
4.188118308283084
4.181963836118102
4.151191475293081
4.169654891788083
4.188118308283084
4.188118308283084
4.181963836118102
4.1942727804480935
4.188118308283084
4.181963836118102
4.169654891788083
4.169654891788083
4.1758093639530935
4.1758093639530935
4.188118308283084
4.181963836118102
4.188118308283084
4.1758093639530935
4.157345947458091
4.157345947458091
4.138882530963089
4.12657358663307
4.120419114468088
4.181963836118102
4.212736196943095
4.188118308283084
4.145037003128072
4.169654891788083
4.145037003128072
4.021947559828071
4.052719920653064
4.225045141273086
4.200427252613103
4.003484143333068
4.009638615498079
4.212736196943095
4.1942727804480935
4.145037003128072
4.151191475293081
4.1942727804480935
4.169654891788083
4.138882530963089
4.101955697973087
4.138882530963089
4.1942727804480935
4.157345947458091
4.169654891788083
4.218890669108104
4.169654891788083
4.120419114468088
4.1327280587980795
4.108110170138069
4.015793087663061
3.8803947000330408
3.800386561888025
3.9111670608580615
4.329671168078114
4.440451667048122
4.255817502098108
4.138882530963089
4.237354085603107
4.231199613438097
4.157345947458091
4.2065817247780855
4.231199613438097
4.181963836118102
4.089646753643067
4.065028864983084
4.028102031993082
3.8680857557030492
3.825004450548036
3.9542483660130467
3.9604028381780574
3.825004450548036
3.5972889804430093
3.7265328959080186
3.800386561888025
3.75115078456803
4.0465654484880815
4.0711833371480655
3.9357849495180455
3.75115078456803
3.825004450548036
3.886549172198051
3.886549172198051
3.788077617558033
2.901833625797906
1.830955469087764
1.9786628010477763
1.9417359680577726
1.892500190737778
2.1817603824928202
2.391012436102846
2.5141018794028467
2.6987360443528896
2.7418173495078744
2.704890516517872
2.6987360443528896
2.772589710332896
2.895679153632896
2.8649067928079033
2.7418173495078744
2.760280766002876
2.96953281961293
3.1233946237379517
3.332646677347978
3.166475928892937
3.3449556216779697
3.8126955062180454
3.886549172198051
3.6219068691030203
3.9111670608580615
4.37890694539811
4.366598001068117
4.329671168078114
4.360443528903107
4.625085831998166
4.711248442308165
4.785102108288171
4.692785025813162
4.705093970143154
4.834337885608192
4.822028941278172
4.754329747463175
4.68047608148317
4.766638691793168
5.2405330484982535
5.160524910353237
5.0497444113832
5.0743623000432105
4.9266549680832
5.025126522723218
5.437476157778259
5.425167213448267
5.086671244373231
5.468248518603279
5.763663182523304
5.6590371557183055
5.419012741283257
5.289768825818246
5.529793240253267
5.4620940464382715
5.511329823758264
5.714427405203311
5.683655044378289
5.929833930978346
5.702118460873318
5.677500572213306
6.120622568093371
6.249866483558382
6.040614429948354
6.028305485618364
6.403728287683458
6.496045370158464
6.391419343353438
6.243712011393371
6.169858345413365
6.028305485618364
6.157549401083372
6.502199842323475
6.428346176343441
6.2252485948983685
6.3544925103634355
6.163703873248383
6.059077846443356
5.966760763968348
6.126777040258352
6.323720149538442
5.572874545408279
5.7328908216983105
6.8960860608835155
6.816077922738501
6.379110399023446
6.120622568093371
6.059077846443356
6.028305485618364
5.954451819638329
5.929833930978346
5.84367132066832
5.628264794893284
5.911370514483344
6.206785178403368
5.905216042318334
5.751354238193313
5.819053432008309
5.84367132066832
5.775972126853325
5.868289209328331
5.775972126853325
5.517484295923275
5.689809516543297
5.757508710358322
5.523638768088285
5.597492434068291
5.905216042318334
5.7451997660283025
5.7082729330383
5.634419267058294
5.554411128913278
5.425167213448267
5.375931436128245
5.455939574273261
5.560565601078289
5.412858269118276
5.19745174334324
5.357468019633243
5.523638768088285
5.357468019633243
5.3143867144782595
5.271305409323245
5.345159075303252
5.3390046031382425
5.295923297983257
5.203606215508222
5.0497444113832
5.19129727117823
5.277459881488256
5.308232242313249
5.295923297983257
5.111289133033214
5.012817578393197
5.19745174334324
5.092825716538213
5.000508634063205
5.178988326848239
5.234378576333243
5.117443605198224
5.012817578393197
5.000508634063205
5.000508634063205
5.178988326848239
5.160524910353237
5.086671244373231
4.9389639124131905
4.871264718598195
5.043589939218219
5.025126522723218
4.889728135093197
4.945118384578201
5.092825716538213
5.031280994888199
4.9389639124131905
4.9881996897332135
5.000508634063205
4.9266549680832
4.8651102464331855
4.772793163958178
4.778947636123188
4.822028941278172
4.846646829938185
4.705093970143154
5.043589939218219
5.21591515983824
5.018972050558207
4.871264718598195
4.908191551588198
4.871264718598195
4.7297118588031655
4.7912565804531795
4.895882607258178
4.871264718598195
4.692785025813162
4.8528013021031935
5.043589939218219
4.951272856743211
4.840492357773174
4.803565524783171
4.705093970143154
4.625085831998166
5.05589888354821
5.018972050558207
4.840492357773174
4.588158999008135
4.526614277358149
4.975890745403193
5.105134660868233
4.9389639124131905
4.778947636123188
4.91434602375318
4.871264718598195
4.7297118588031655
4.803565524783171
4.822028941278172
4.760484219628157
4.877419190763177
4.778947636123188
4.908191551588198
4.883573662928187
4.81587446911319
4.908191551588198
4.834337885608192
4.828183413443182
4.803565524783171
4.772793163958178
4.809719996948181
4.846646829938185
4.803565524783171
4.945118384578201
4.969736273238212
4.846646829938185
4.81587446911319
4.766638691793168
4.828183413443182
4.92050049591819
4.877419190763177
4.797411052618189
4.81587446911319
4.828183413443182
4.846646829938185
4.778947636123188
4.803565524783171
4.883573662928187
4.871264718598195
4.797411052618189
4.834337885608192
4.871264718598195
4.7297118588031655
4.748175275298167
4.877419190763177
4.9389639124131905
4.834337885608192
4.7420208031331565
4.846646829938185
4.846646829938185
4.822028941278172
4.778947636123188
4.797411052618189
4.889728135093197
4.902037079423188
4.9266549680832
4.9266549680832
4.969736273238212
5.012817578393197
4.969736273238212
4.883573662928187
4.81587446911319
4.834337885608192
4.828183413443182
4.8528013021031935
4.8528013021031935
4.846646829938185
4.846646829938185
4.828183413443182
4.785102108288171
4.754329747463175
4.785102108288171
4.963581801073202
4.92050049591819
4.883573662928187
4.877419190763177
4.8651102464331855
4.8528013021031935
4.822028941278172
4.8651102464331855
4.889728135093197
4.8651102464331855
4.877419190763177
4.877419190763177
4.877419190763177
4.871264718598195
4.871264718598195
4.8651102464331855
4.828183413443182
4.834337885608192
4.8651102464331855
4.895882607258178
4.877419190763177
4.871264718598195
4.871264718598195
4.81587446911319
4.785102108288171
4.723557386638155
3.9111670608580615
2.3110042979578305
1.7140204979527454
1.7201749701177547
1.7447928587777384
1.7755652196027594
1.8432644134177558
1.8863457185727683
2.003280689707787
2.471020574247862
2.9387604587879093
3.191093817552948
3.375727982502963
3.529589786627985
3.652679229928013
3.7449963124030208
3.855776811373057
3.9234760051880535
3.9973296711680604
4.0711833371480655
4.114264642303079
4.138882530963089
4.231199613438097
4.3173622237481215
4.341980112408105
4.360443528903107
4.40967930622313
4.440451667048122
4.483532972203136
4.508150860863147
4.520459805193139
4.5327687495231315
4.557386638183142
4.612776887668146
4.655858192823159
4.637394776328158
4.6435492484931675
4.6435492484931675
4.6435492484931675
4.655858192823159
4.686630553648152
4.67432160931816
4.686630553648152
4.705093970143154
4.711248442308165
4.717402914473173
4.717402914473173
4.735866330968175
4.748175275298167
4.7297118588031655
4.717402914473173
4.717402914473173
4.717402914473173
4.7297118588031655
4.717402914473173
4.7420208031331565
4.754329747463175
4.766638691793168
4.760484219628157
4.766638691793168
4.778947636123188
4.760484219628157
4.748175275298167
4.772793163958178
4.778947636123188
4.785102108288171
4.785102108288171
4.797411052618189
4.797411052618189
4.797411052618189
4.7297118588031655
4.538923221688139
4.637394776328158
4.551232166018132
4.243508557768089
2.655654739197877
0.9754838381526297
0.6000610360875902
0.02154065257750637
0.7600773123775938
0.7723862567076134
0.6739147020675963
0.901630172172624
1.0616464484626553
1.4124513618677115
2.261768520637808
3.283410900027955
3.9911751990030497
4.945118384578201
5.812898959843327
6.366801454693455
6.569899036138471
7.160728363978547
8.231606520688716
8.588565906258754
8.902443986673807
7.923882912438673
5.812898959843327
4.68047608148317
3.9911751990030497
3.406500343327984
3.018768596932925
2.7848986546628876
2.563337656722869
2.6433457948678853
2.9572238752829105
3.332646677347978
3.781923145393024
4.163500419623101
4.760484219628157
5.006663106228215
4.668167137153151
4.421988250553122
3.9911751990030497
3.529589786627985
3.1726304010579467
2.612573434042864
2.1079067165127863
2.55718318455786
2.723353933012873
3.0249230690979347
3.394191398997992
3.2403295948729705
2.9264515144579173
2.9879962361079313
3.1849393453879378
3.258793011367972
3.375727982502963
3.2526385392029624
2.932605986622927
2.723353933012873
2.735662877342893
2.772589710332896
2.624882378372884
2.4894839907428636
2.6433457948678853
2.6987360443528896
2.8402889041478923
2.8402889041478923
2.9264515144579173
2.895679153632896
2.907988097962916
2.9202970422929075
2.975687291777912
3.0003051804379233
2.975687291777912
2.975687291777912
3.0003051804379233
2.9879962361079313
2.9202970422929075
2.907988097962916
3.074158846417929
3.166475928892937
3.154166984562945
3.1726304010579467
3.178784873222956
3.1972482897179573
3.215711706212959
3.221866178377941
3.215711706212959
3.1110856794079322
2.735662877342893
3.0003051804379233
3.394191398997992
3.640370285598021
3.7142239515780275
3.7696142010630322
3.800386561888025
3.800386561888025
3.8619312835380395
3.948093893848065
3.9727117825080476
4.034256504158063
3.9604028381780574
3.5972889804430093
3.554207675287996
3.572671091782997
3.572671091782997
3.609597924773
3.640370285598021
3.5234353144630024
3.0618499020879373
2.563337656722869
2.372549019607845
2.3356221866178415
2.329467714452832
2.347931130947833
2.360240075277825
2.255614048472826
2.409475852597848
2.4402482134228407
2.446402685587851
2.4402482134228407
2.255614048472826
2.4156303247628297
2.4156303247628297
2.378703491772827
2.477175046412844
2.4894839907428636
2.507947407237865
2.526410823732866
2.5387197680628577
2.55718318455786
2.563337656722869
2.575646601052861
2.606418961877855
2.6433457948678853
2.704890516517872
2.9202970422929075
3.1049312072429505
3.2403295948729705
3.3388011495129604
3.424963759822985
3.486508481473
3.560362147453006
3.640370285598021
3.7142239515780275
3.7696142010630322
3.837313394878028
3.855776811373057
3.886549172198051
3.9665573103430654
4.015793087663061
4.058874392818074
4.083492281478085
4.108110170138069
4.145037003128072
4.151191475293081
4.1758093639530935
4.1942727804480935
4.1942727804480935
4.212736196943095
4.225045141273086
4.243508557768089
4.2681264464281
4.27428091859311
4.298898807253093
4.3112077515831135
4.323516695913104
4.329671168078114
4.335825640243124
4.348134584573115
4.360443528903107
4.3727524732331275
4.385061417563119
4.397370361893111
4.415833778388112
4.465069555708134
4.458915083543125
4.458915083543125
4.6004679433381535
4.778947636123188
4.785102108288171
4.7912565804531795
4.7912565804531795
4.7912565804531795
4.7912565804531795
4.797411052618189
4.785102108288171
4.7912565804531795
4.803565524783171
4.803565524783171
4.803565524783171
4.803565524783171
4.803565524783171
4.809719996948181
4.803565524783171
4.81587446911319
4.81587446911319
4.81587446911319
4.809719996948181
4.81587446911319
4.81587446911319
4.81587446911319
4.803565524783171
4.81587446911319
4.822028941278172
4.809719996948181
4.822028941278172
4.81587446911319
4.81587446911319
4.803565524783171
4.797411052618189
4.803565524783171
4.803565524783171
4.803565524783171
4.803565524783171
4.803565524783171
4.803565524783171
4.797411052618189
4.785102108288171
4.7912565804531795
4.797411052618189
4.785102108288171
4.785102108288171
4.785102108288171
4.785102108288171
4.778947636123188
4.766638691793168
4.772793163958178
4.772793163958178
4.772793163958178
4.760484219628157
4.760484219628157
4.760484219628157
4.7420208031331565
4.748175275298167
4.760484219628157
4.785102108288171
4.785102108288171
4.785102108288171
4.785102108288171
4.778947636123188
4.760484219628157
4.735866330968175
4.618931359833156
4.772793163958178
4.785102108288171
4.778947636123188
4.766638691793168
4.760484219628157
4.7297118588031655
4.723557386638155
4.735866330968175
4.7420208031331565
4.735866330968175
4.7420208031331565
4.735866330968175
4.7297118588031655
4.7297118588031655
4.7420208031331565
4.748175275298167
4.748175275298167
4.735866330968175
4.735866330968175
4.735866330968175
4.717402914473173
4.705093970143154
4.717402914473173
4.705093970143154
4.705093970143154
4.698939497978172
4.698939497978172
4.686630553648152
4.68047608148317
4.68047608148317
4.68047608148317
4.67432160931816
4.668167137153151
4.668167137153151
4.662012664988168
4.662012664988168
4.649703720658149
4.6435492484931675
4.6435492484931675
4.637394776328158
4.6435492484931675
4.637394776328158
4.637394776328158
4.631240304163148
4.618931359833156
4.618931359833156
4.612776887668146
4.606622415503137
4.6004679433381535
4.606622415503137
4.625085831998166
4.655858192823159
4.717402914473173
4.803565524783171
4.8528013021031935
4.81587446911319
4.705093970143154
4.5943134711731455
4.5327687495231315
4.501996388698137
4.489687444368147
4.508150860863147
4.5327687495231315
4.551232166018132
4.551232166018132
4.551232166018132
4.54507769385315
4.54507769385315
4.526614277358149
4.538923221688139
4.5327687495231315
4.5327687495231315
4.538923221688139
4.5327687495231315
4.5327687495231315
4.520459805193139
4.514305333028129
4.520459805193139
4.520459805193139
4.526614277358149
4.526614277358149
4.520459805193139
4.526614277358149
4.520459805193139
4.508150860863147
4.520459805193139
4.520459805193139
4.508150860863147
4.514305333028129
4.508150860863147
4.514305333028129
4.501996388698137
4.501996388698137
4.501996388698137
4.501996388698137
4.501996388698137
4.489687444368147
4.489687444368147
4.483532972203136
4.471224027873144
4.483532972203136
4.483532972203136
4.477378500038126
4.477378500038126
4.471224027873144
4.471224027873144
4.471224027873144
4.452760611378115
4.465069555708134
4.458915083543125
4.465069555708134
4.465069555708134
4.452760611378115
4.458915083543125
4.452760611378115
4.452760611378115
4.452760611378115
4.458915083543125
4.452760611378115
4.452760611378115
4.421988250553122
4.305053279418103
4.446606139213133
4.434297194883113
4.434297194883113
4.452760611378115
4.452760611378115
4.452760611378115
4.458915083543125
4.452760611378115
4.440451667048122
4.428142722718132
4.440451667048122
4.434297194883113
4.434297194883113
4.421988250553122
4.428142722718132
4.421988250553122
4.40967930622313
4.397370361893111
4.40967930622313
4.40967930622313
4.397370361893111
4.397370361893111
4.391215889728128
4.391215889728128
4.385061417563119
4.385061417563119
4.385061417563119
4.391215889728128
4.385061417563119
4.385061417563119
4.391215889728128
4.385061417563119
4.37890694539811
4.3727524732331275
4.37890694539811
4.385061417563119
4.37890694539811
4.37890694539811
4.37890694539811
4.385061417563119
4.366598001068117
4.3727524732331275
4.37890694539811
4.37890694539811
4.37890694539811
4.37890694539811
4.37890694539811
4.37890694539811
4.366598001068117
4.3727524732331275
4.37890694539811
4.37890694539811
4.37890694539811
4.37890694539811
4.37890694539811
4.3727524732331275
4.360443528903107
4.3727524732331275
4.37890694539811
4.37890694539811
4.3727524732331275
4.366598001068117
4.366598001068117
4.341980112408105
4.1942727804480935
4.360443528903107
4.37890694539811
4.385061417563119
4.3727524732331275
4.3727524732331275
4.37890694539811
4.354289056738125
4.329671168078114
4.348134584573115
4.348134584573115
4.354289056738125
4.354289056738125
4.348134584573115
4.354289056738125
4.341980112408105
4.341980112408105
4.354289056738125
4.360443528903107
4.348134584573115
4.348134584573115
4.341980112408105
4.341980112408105
4.335825640243124
4.335825640243124
4.348134584573115
4.341980112408105
4.348134584573115
4.348134584573115
4.348134584573115
4.348134584573115
4.335825640243124
4.341980112408105
4.341980112408105
4.348134584573115
4.341980112408105
4.348134584573115
4.348134584573115
4.341980112408105
4.329671168078114
4.335825640243124
4.335825640243124
4.354289056738125
4.354289056738125
4.366598001068117
4.366598001068117
4.354289056738125
4.341980112408105
4.348134584573115
4.348134584573115
4.348134584573115
4.341980112408105
4.341980112408105
4.335825640243124
4.329671168078114
4.323516695913104
4.292744335088111
4.181963836118102
4.329671168078114
4.348134584573115
4.348134584573115
4.348134584573115
4.323516695913104
4.298898807253093
4.3173622237481215
4.3173622237481215
4.329671168078114
4.323516695913104
4.3173622237481215
4.3173622237481215
4.3112077515831135
4.3173622237481215
4.329671168078114
4.329671168078114
4.323516695913104
4.323516695913104
4.3173622237481215
4.305053279418103
4.305053279418103
4.329671168078114
4.366598001068117
4.428142722718132
4.508150860863147
4.5943134711731455
4.606622415503137
4.514305333028129
4.3727524732331275
4.3112077515831135
4.2681264464281
4.261971974263091
4.27428091859311
4.305053279418103
4.3173622237481215
4.3112077515831135
4.3112077515831135
4.3173622237481215
4.3173622237481215
4.329671168078114
4.329671168078114
4.323516695913104
4.329671168078114
4.323516695913104
4.323516695913104
4.335825640243124
4.341980112408105
4.341980112408105
4.335825640243124
4.335825640243124
4.341980112408105
4.335825640243124
4.335825640243124
4.341980112408105
4.348134584573115
4.341980112408105
4.348134584573115
4.354289056738125
4.348134584573115
4.341980112408105
4.348134584573115
4.354289056738125
4.354289056738125
4.360443528903107
4.360443528903107
4.354289056738125
4.354289056738125
4.348134584573115
4.354289056738125
4.360443528903107
4.366598001068117
4.360443528903107
4.354289056738125
4.354289056738125
4.360443528903107
4.341980112408105
4.348134584573115
4.354289056738125
4.354289056738125
4.354289056738125
4.354289056738125
4.348134584573115
4.354289056738125
4.341980112408105
4.354289056738125
4.360443528903107
4.354289056738125
4.354289056738125
4.354289056738125
4.366598001068117
4.360443528903107
4.354289056738125
4.366598001068117
4.3727524732331275
4.3727524732331275
4.385061417563119
4.391215889728128
4.385061417563119
4.385061417563119
4.37890694539811
4.397370361893111
4.397370361893111
4.397370361893111
4.40352483405812
4.40352483405812
4.391215889728128
4.397370361893111
4.385061417563119
4.37890694539811
4.385061417563119
4.385061417563119
4.37890694539811
4.37890694539811
4.3727524732331275
4.360443528903107
4.3727524732331275
4.3727524732331275
4.3727524732331275
4.3727524732331275
4.37890694539811
4.341980112408105
4.2065817247780855
4.348134584573115
4.360443528903107
4.3727524732331275
4.3727524732331275
4.3727524732331275
4.37890694539811
4.37890694539811
4.366598001068117
4.354289056738125
4.37890694539811
4.37890694539811
4.3727524732331275
4.3727524732331275
4.37890694539811
4.385061417563119
4.3727524732331275
4.360443528903107
4.3727524732331275
4.37890694539811
4.37890694539811
4.3727524732331275
4.37890694539811
4.3727524732331275
4.3727524732331275
4.360443528903107
4.3727524732331275
4.3727524732331275
4.37890694539811
4.37890694539811
4.3727524732331275
4.3727524732331275
4.3727524732331275
4.3727524732331275
4.3727524732331275
4.37890694539811
4.385061417563119
4.37890694539811
4.37890694539811
4.37890694539811
4.3727524732331275
4.366598001068117
4.37890694539811
4.37890694539811
4.37890694539811
4.385061417563119
4.37890694539811
4.37890694539811
4.3727524732331275
4.3727524732331275
4.385061417563119
4.37890694539811
4.385061417563119
4.37890694539811
4.3727524732331275
4.3727524732331275
4.366598001068117
4.3727524732331275
4.3727524732331275
4.3727524732331275
4.3727524732331275
4.366598001068117
4.3727524732331275
4.360443528903107
4.360443528903107
4.3727524732331275
4.3727524732331275
4.366598001068117
4.3727524732331275
4.3727524732331275
4.3727524732331275
4.360443528903107
4.360443528903107
4.366598001068117
4.3727524732331275
4.366598001068117
4.37890694539811
4.37890694539811
4.3727524732331275
4.3727524732331275
4.354289056738125
4.3727524732331275
4.37890694539811
4.3727524732331275
4.3727524732331275
4.366598001068117
4.3727524732331275
4.37890694539811
4.37890694539811
4.391215889728128
4.391215889728128
4.391215889728128
4.391215889728128
4.37890694539811
4.385061417563119
4.366598001068117
4.3727524732331275
4.366598001068117
4.366598001068117
4.366598001068117
4.366598001068117
4.366598001068117
4.37890694539811
4.354289056738125
4.354289056738125
4.354289056738125
4.360443528903107
4.354289056738125
4.354289056738125
4.360443528903107
4.360443528903107
4.341980112408105
4.354289056738125
4.360443528903107
4.360443528903107
4.348134584573115
4.354289056738125
4.354289056738125
4.354289056738125
4.335825640243124
4.348134584573115
4.305053279418103
4.1758093639530935
4.335825640243124
4.366598001068117
4.40352483405812
4.465069555708134
4.520459805193139
4.618931359833156
4.6435492484931675
4.5327687495231315
4.397370361893111
4.3173622237481215
4.280435390758092
4.243508557768089
4.101955697973087
4.280435390758092
4.329671168078114
4.329671168078114
4.329671168078114
4.329671168078114
4.3173622237481215
4.305053279418103
4.2681264464281
4.2865898629231
4.292744335088111
4.292744335088111
4.292744335088111
4.292744335088111
4.292744335088111
4.2865898629231
4.2865898629231
4.2865898629231
4.292744335088111
4.2865898629231
4.292744335088111
4.2865898629231
4.292744335088111
4.27428091859311
4.27428091859311
4.280435390758092
4.280435390758092
4.2865898629231
4.280435390758092
4.2865898629231
4.280435390758092
4.27428091859311
4.280435390758092
4.2865898629231
4.2865898629231
4.292744335088111
4.292744335088111
4.2865898629231
4.292744335088111
4.280435390758092
4.2865898629231
4.2865898629231
4.280435390758092
4.2865898629231
4.2865898629231
4.280435390758092
4.280435390758092
4.27428091859311
4.280435390758092
4.27428091859311
4.27428091859311
4.27428091859311
4.2681264464281
4.261971974263091
4.255817502098108
4.255817502098108
4.2681264464281
4.27428091859311
4.2681264464281
4.2681264464281
4.261971974263091
4.27428091859311
4.2681264464281
4.261971974263091
4.280435390758092
4.292744335088111
4.292744335088111
4.305053279418103
4.298898807253093
4.305053279418103
4.298898807253093
4.305053279418103
4.3112077515831135
4.3173622237481215
4.3112077515831135
4.3112077515831135
4.323516695913104
4.329671168078114
4.3173622237481215
4.323516695913104
4.329671168078114
4.329671168078114
4.329671168078114
4.329671168078114
4.323516695913104
4.3173622237481215
4.3112077515831135
4.3173622237481215
4.323516695913104
4.323516695913104
4.305053279418103
4.305053279418103
4.305053279418103
4.3112077515831135
4.298898807253093
4.3112077515831135
4.3112077515831135
4.3112077515831135
4.323516695913104
4.3112077515831135
4.323516695913104
4.3112077515831135
4.3112077515831135
4.3112077515831135
4.3112077515831135
4.3112077515831135
4.3173622237481215
4.3173622237481215
4.2681264464281
4.1327280587980795
4.27428091859311
4.3112077515831135
4.3173622237481215
4.3173622237481215
4.3112077515831135
4.3112077515831135
4.3112077515831135
4.298898807253093
4.292744335088111
4.305053279418103
4.3112077515831135
4.3112077515831135
4.3112077515831135
4.305053279418103
4.3112077515831135
4.298898807253093
4.298898807253093
4.3112077515831135
4.305053279418103
4.305053279418103
4.305053279418103
4.3112077515831135
4.305053279418103
4.292744335088111
4.292744335088111
4.292744335088111
4.292744335088111
4.298898807253093
4.298898807253093
4.2865898629231
4.2865898629231
4.27428091859311
4.2865898629231
4.280435390758092
4.2865898629231
4.292744335088111
4.2865898629231
4.292744335088111
4.2865898629231
4.280435390758092
4.2865898629231
4.292744335088111
4.292744335088111
4.2865898629231
4.298898807253093
4.298898807253093
4.292744335088111
4.2865898629231
4.292744335088111
4.2865898629231
4.2865898629231
4.2865898629231
4.292744335088111
4.2865898629231
4.27428091859311
4.27428091859311
4.2865898629231
4.280435390758092
4.280435390758092
4.2681264464281
4.27428091859311
4.2681264464281
4.255817502098108
4.2681264464281
4.2681264464281
4.2681264464281
4.2681264464281
4.2681264464281
4.2681264464281
4.280435390758092
4.27428091859311
4.280435390758092
4.2865898629231
4.2865898629231
4.292744335088111
4.298898807253093
4.323516695913104
4.323516695913104
4.3173622237481215
4.335825640243124
4.335825640243124
4.341980112408105
4.335825640243124
4.341980112408105
4.335825640243124
4.335825640243124
4.323516695913104
4.329671168078114
4.335825640243124
4.335825640243124
4.341980112408105
4.335825640243124
4.335825640243124
4.329671168078114
4.323516695913104
4.335825640243124
4.341980112408105
4.335825640243124
4.335825640243124
4.335825640243124
4.335825640243124
4.323516695913104
4.3173622237481215
4.329671168078114
4.329671168078114
4.335825640243124
4.329671168078114
4.341980112408105
4.335825640243124
4.323516695913104
4.3173622237481215
4.3173622237481215
4.329671168078114
4.366598001068117
4.434297194883113
4.520459805193139
4.5943134711731455
4.5943134711731455
4.489687444368147
4.366598001068117
4.255817502098108
4.095801225808078
4.243508557768089
4.2681264464281
4.2865898629231
4.280435390758092
4.27428091859311
4.2865898629231
4.2865898629231
4.2865898629231
4.292744335088111
4.298898807253093
4.2865898629231
4.2865898629231
4.298898807253093
4.298898807253093
4.298898807253093
4.3112077515831135
4.305053279418103
4.305053279418103
4.305053279418103
4.292744335088111
4.3112077515831135
4.3112077515831135
4.3173622237481215
4.3173622237481215
4.3112077515831135
4.3173622237481215
4.3112077515831135
4.298898807253093
4.3173622237481215
4.3112077515831135
4.3112077515831135
4.3112077515831135
4.3112077515831135
4.3173622237481215
4.3112077515831135
4.298898807253093
4.3173622237481215
4.323516695913104
4.3173622237481215
4.3173622237481215
4.3173622237481215
4.3173622237481215
4.3112077515831135
4.305053279418103
4.3112077515831135
4.3173622237481215
4.3173622237481215
4.3173622237481215
4.3112077515831135
4.3173622237481215
4.292744335088111
4.292744335088111
4.305053279418103
4.3112077515831135
4.305053279418103
4.305053279418103
4.3112077515831135
4.305053279418103
4.298898807253093
4.305053279418103
4.3112077515831135
4.3173622237481215
4.3112077515831135
4.3173622237481215
4.3173622237481215
4.323516695913104
4.3173622237481215
4.329671168078114
4.329671168078114
4.329671168078114
4.329671168078114
4.329671168078114
4.323516695913104
4.3173622237481215
4.3112077515831135
4.3112077515831135
4.3112077515831135
4.3112077515831135
4.305053279418103
4.298898807253093
4.305053279418103
4.2681264464281
4.138882530963089
4.280435390758092
4.3112077515831135
4.3112077515831135
4.298898807253093
4.292744335088111
4.298898807253093
4.2865898629231
4.261971974263091
4.27428091859311
4.27428091859311
4.27428091859311
4.2681264464281
4.2681264464281
4.27428091859311
4.261971974263091
4.27428091859311
4.280435390758092
4.280435390758092
4.280435390758092
4.280435390758092
4.27428091859311
4.280435390758092
4.27428091859311
4.27428091859311
4.280435390758092
4.280435390758092
4.261971974263091
3.332646677347978
1.972508328882766
1.990971745377768
2.1448335495027893
2.298695353627811
2.4279392690928487
2.544874240227868
2.6371913227028756
2.723353933012873
2.8033620711578893
2.8464433763129016
2.7910531268278973
3.006459652602933
3.080313318582939
3.1233946237379517
3.1726304010579467
3.2280206505429514
3.258793011367972
3.301874316522957
3.3141832608529764
3.357264566007961
3.394191398997992
3.437272704152977
3.4741995371429804
3.504971897968001
3.529589786627985
3.548053203123014
3.5665166196180156
3.609597924773
3.628061341268002
3.652679229928013
3.671142646423015
3.6834515907530063
3.701915007248036
3.720378423743037
3.738841840238039
3.75730525673304
3.7757686732280415
3.781923145393024
3.7942320897230433
3.8065410340530352
3.825004450548036
3.831158922713046
3.8496223392080475
3.8619312835380395
3.874240227868059
3.886549172198051
3.8927036443630603
3.8988581165280416
3.9111670608580615
3.9050125886930522
3.9173215330230438
3.9357849495180455
3.9419394216830552
3.9419394216830552
3.948093893848065
3.9604028381780574
3.9604028381780574
3.9542483660130467
3.9665573103430654
3.9788662546730578
3.9850207268380675
3.9788662546730578
3.9850207268380675
3.9850207268380675
3.9911751990030497
3.9911751990030497
4.015793087663061
4.015793087663061
4.021947559828071
4.028102031993082
4.028102031993082
4.040410976323072
4.058874392818074
4.058874392818074
4.083492281478085
4.077337809313075
4.089646753643067
4.089646753643067
4.089646753643067
4.095801225808078
4.089646753643067
4.089646753643067
4.101955697973087
4.108110170138069
4.101955697973087
4.108110170138069
4.108110170138069
4.108110170138069
4.108110170138069
4.108110170138069
4.114264642303079
4.108110170138069
4.114264642303079
4.114264642303079
4.114264642303079
4.120419114468088
4.120419114468088
4.120419114468088
4.12657358663307
4.138882530963089
4.138882530963089
4.138882530963089
4.145037003128072
4.145037003128072
4.138882530963089
4.138882530963089
4.145037003128072
4.145037003128072
4.157345947458091
4.188118308283084
4.249663029933098
4.329671168078114
4.397370361893111
4.415833778388112
4.335825640243124
4.2065817247780855
4.138882530963089
4.095801225808078
4.095801225808078
4.108110170138069
4.120419114468088
4.151191475293081
4.163500419623101
4.1758093639530935
4.1758093639530935
4.169654891788083
4.181963836118102
4.1758093639530935
4.169654891788083
4.169654891788083
4.169654891788083
4.1327280587980795
4.015793087663061
4.163500419623101
4.1758093639530935
4.157345947458091
4.138882530963089
4.157345947458091
4.163500419623101
4.163500419623101
4.163500419623101
4.169654891788083
4.163500419623101
4.163500419623101
4.163500419623101
4.163500419623101
4.169654891788083
4.1758093639530935
4.169654891788083
4.1758093639530935
4.1758093639530935
4.163500419623101
4.1758093639530935
4.181963836118102
4.1758093639530935
4.181963836118102
4.181963836118102
4.1758093639530935
4.169654891788083
4.163500419623101
4.163500419623101
4.181963836118102
4.181963836118102
4.188118308283084
4.1942727804480935
4.200427252613103
4.200427252613103
4.1942727804480935
4.200427252613103
4.1942727804480935
4.200427252613103
4.2065817247780855
4.212736196943095
4.2065817247780855
4.212736196943095
4.2065817247780855
4.218890669108104
4.218890669108104
4.231199613438097
4.237354085603107
4.231199613438097
4.237354085603107
4.237354085603107
4.231199613438097
4.249663029933098
4.255817502098108
4.27428091859311
4.280435390758092
4.27428091859311
4.2681264464281
4.255817502098108
4.255817502098108
4.2681264464281
4.255817502098108
4.255817502098108
4.249663029933098
4.249663029933098
4.255817502098108
4.237354085603107
4.237354085603107
4.237354085603107
4.237354085603107
4.243508557768089
4.237354085603107
4.231199613438097
4.231199613438097
4.218890669108104
4.212736196943095
4.212736196943095
4.2065817247780855
4.212736196943095
4.212736196943095
4.212736196943095
4.2065817247780855
4.188118308283084
4.188118308283084
4.181963836118102
4.188118308283084
4.1942727804480935
4.188118308283084
4.188118308283084
4.188118308283084
4.169654891788083
4.188118308283084
4.1942727804480935
4.188118308283084
4.188118308283084
4.181963836118102
4.181963836118102
4.1758093639530935
4.1758093639530935
4.169654891788083
4.1758093639530935
4.169654891788083
4.169654891788083
4.163500419623101
4.157345947458091
4.138882530963089
4.1327280587980795
4.138882530963089
4.1327280587980795
4.114264642303079
4.095801225808078
4.034256504158063
3.9665573103430654
3.886549172198051
3.652679229928013
3.018768596932925
2.391012436102846
1.677093664962742
0.4831260649525715
-0.5815976195925888
-0.901630172172624
-0.9324025329976448
-0.9877927824826491
-0.7785407288726233
-0.6985325907276074
-0.6431423412426028
-0.575443147427579
-0.5200528979425745
-0.45850817629256013
-0.4154268711375475
-0.360036621652543
-0.29233742783754685
-0.23079270618753256
-0.1692479845375183
-0.10770326288750408
-0.06462195773251911
0.009231708247514623
0.058467485567509365
0.1261666793825056
0.18771140103251985
0.2738740113425453
0.37850003814754446
0.6000610360875902
1.11088222578265
1.5601586938277234
1.8371099412527454
2.0586709391927913
2.249459576307816
2.403321380432838
2.5387197680628577
2.655654739197877
2.766435238167886
2.8525978484779113
2.7848986546628876
3.006459652602933
3.092622262912931
3.080313318582939
2.655654739197877
1.2647440299076718
0.7723862567076134
0.7539228402126119
0.7662317845426038
0.8093130896976164
0.8523943948526291
0.901630172172624
0.9508659494926462
0.9877927824826491
1.0308740876376343
1.073955392792647
1.104727753617668
1.1539635309376628
1.2031993082576575
1.25243508557768
1.3139798072276945
1.3693700567126987
1.4062968897027015
1.4309147783627132
1.4801505556827075
1.5416952773327222
1.5970855268177266
1.7201749701177547
1.9294270237277809
2.2433051041428067
2.544874240227868
2.729508405177883
2.877215737137895
2.994150708272913
3.0864677907479487
3.160321456727955
3.2095572340479492
3.2526385392029624
3.301874316522957
3.3203377330179586
3.3449556216779697
3.375727982502963
3.357264566007961
3.258793011367972
3.191093817552948
3.2034027618829395
3.1972482897179573
3.1357035680679433
2.9818417639429216
2.8464433763129016
2.655654739197877
2.4587116299178424
2.255614048472826
2.1817603824928202
2.150988021667799
2.187914854657802
2.2433051041428067
2.2679229928028177
2.360240075277825
2.434093741257831
2.507947407237865
2.4402482134228407
2.298695353627811
2.2063782711528033
2.1817603824928202
2.1571424938328088
2.1756059103278105
2.2186872154828228
2.255614048472826
2.2740774649678275
2.2925408814628288
2.323313242287822
2.3417766587828237
2.3663945474428347
2.3971669082678284
2.4217847969278394
2.4402482134228407
2.4525571577528327
2.471020574247862
2.4894839907428636
2.520256351567857
2.5387197680628577
2.563337656722869
2.587955545382853
2.606418961877855
2.624882378372884
2.631036850537866
2.655654739197877
2.680272627857888
2.6987360443528896
2.680272627857888
2.581801073217871
2.754126293837894
2.772589710332896
2.766435238167886
2.7848986546628876
2.8156710154879088
2.8402889041478923
2.8525978484779113
2.871061264972913
2.883370209302905
2.907988097962916
2.907988097962916
2.9387604587879093
2.9510694031179288
2.975687291777912
2.9879962361079313
3.0003051804379233
3.0126141247679152
3.0310775412629165
3.0372320134279267
3.055695429922928
3.074158846417929
3.0864677907479487
3.0987767350779407
3.1110856794079322
3.1233946237379517
3.1357035680679433
3.1357035680679433
3.154166984562945
3.166475928892937
3.166475928892937
3.178784873222956
3.1972482897179573
3.2095572340479492
3.2095572340479492
3.2280206505429514
3.2464840670379527
3.264947483532954
3.271101955697964
3.289565372192965
3.2957198443579747
3.3141832608529764
3.3141832608529764
3.3388011495129604
3.357264566007961
3.363419038172971
3.3695735103379807
3.381882454667973
3.394191398997992
3.394191398997992
3.400345871162974
3.406500343327984
3.4126548154929934
3.424963759822985
3.4311182319879947
3.437272704152977
3.437272704152977
3.4557361206479786
3.449581648482997
3.461890592812989
3.468045064977998
3.48035400930799
3.48035400930799
3.4926629536379816
3.4988174258029914
3.504971897968001
3.4988174258029914
3.5172808422979926
3.5357442587929944
3.529589786627985
3.541898730958004
3.548053203123014
3.560362147453006
3.560362147453006
3.5665166196180156
3.578825563948007
3.578825563948007
3.591134508277999
3.591134508277999
3.6034434526080172
3.6034434526080172
3.6034434526080172
3.61575239693801
3.628061341268002
3.628061341268002
3.628061341268002
3.640370285598021
3.640370285598021
3.6465247577630033
3.652679229928013
3.658833702093023
3.6649881742580046
3.677297118588024
3.6834515907530063
3.6896060629180156
3.6896060629180156
3.695760535083026
3.6834515907530063
3.695760535083026
3.701915007248036
3.701915007248036
3.7142239515780275
3.720378423743037
3.720378423743037
3.720378423743037
3.720378423743037
3.732687368073029
3.7449963124030208
3.738841840238039
3.75115078456803
3.7449963124030208
3.75730525673304
3.763459728898022
3.75730525673304
3.763459728898022
3.7696142010630322
3.781923145393024
3.7757686732280415
3.788077617558033
3.7942320897230433
3.788077617558033
3.7449963124030208
3.640370285598021
3.800386561888025
3.8188499783830263
3.825004450548036
3.825004450548036
3.831158922713046
3.825004450548036
3.800386561888025
3.825004450548036
3.825004450548036
3.831158922713046
3.837313394878028
3.837313394878028
3.8434678670430373
3.837313394878028
3.8496223392080475
3.8619312835380395
3.8619312835380395
3.8680857557030492
3.8680857557030492
3.874240227868059
3.874240227868059
3.874240227868059
3.874240227868059
3.886549172198051
3.886549172198051
3.8803947000330408
3.8927036443630603
3.8927036443630603
3.8988581165280416
3.8803947000330408
3.8988581165280416
3.9050125886930522
3.8988581165280416
3.9111670608580615
3.9234760051880535
3.9419394216830552
3.9357849495180455
3.9296304773530633
3.9357849495180455
3.9419394216830552
3.9357849495180455
3.9419394216830552
3.9542483660130467
3.9604028381780574
3.9604028381780574
3.9604028381780574
3.9911751990030497
4.015793087663061
4.021947559828071
4.0465654484880815
4.052719920653064
4.058874392818074
4.065028864983084
4.089646753643067
4.280435390758092
4.471224027873144
4.606622415503137
4.705093970143154
4.778947636123188
4.840492357773174
4.895882607258178
4.951272856743211
4.9881996897332135
5.037435467053208
5.080516772208221
5.117443605198224
5.142061493858235
5.166679382518219
5.185142799013221
5.2220696320032225
5.265150937158236
5.3390046031382425
5.437476157778259
5.548256656748296
5.622110322728302
5.609801378398282
5.486711935098282
5.4005493247882566
5.363622491798253
5.345159075303252
5.363622491798253
5.394394852623274
5.4005493247882566
5.406703796953265
5.4005493247882566
5.425167213448267
5.425167213448267
5.425167213448267
5.431321685613277
5.443630629943269
5.449785102108279
5.455939574273261
5.449785102108279
5.4620940464382715
5.480557462933272
5.480557462933272
5.480557462933272
5.474402990768262
5.443630629943269
5.394394852623274
5.21591515983824
5.320541186643241
5.252841992828244
5.105134660868233
5.0743623000432105
5.06205335571322
5.043589939218219
5.025126522723218
4.969736273238212
4.957427328908192
4.883573662928187
4.360443528903107
3.948093893848065
3.8065410340530352
3.7080694794130173
3.511126370132983
3.289565372192965
3.277256427862973
3.277256427862973
3.271101955697964
3.2280206505429514
3.1233946237379517
3.308028788687967
3.332646677347978
3.332646677347978
3.35111009384298
3.381882454667973
3.3880369268329824
3.3695735103379807
3.381882454667973
3.4126548154929934
3.5172808422979926
3.572671091782997
3.5972889804430093
3.6219068691030203
3.720378423743037
3.7449963124030208
3.8065410340530352
3.8434678670430373
3.825004450548036
3.732687368073029
3.7080694794130173
3.8126955062180454
4.021947559828071
4.1327280587980795
4.1942727804480935
4.243508557768089
4.27428091859311
4.305053279418103
4.360443528903107
4.40967930622313
4.434297194883113
4.440451667048122
4.471224027873144
4.489687444368147
4.520459805193139
4.5943134711731455
4.705093970143154
4.772793163958178
4.828183413443182
4.871264718598195
4.908191551588198
4.9389639124131905
4.969736273238212
5.006663106228215
5.031280994888199
5.068207827878203
5.080516772208221
5.098980188703223
5.129752549528216
5.135907021693225
5.160524910353237
5.178988326848239
5.203606215508222
5.209760687673231
5.234378576333243
5.246687520663236
5.252841992828244
5.258996464993254
5.277459881488256
5.289768825818246
5.295923297983257
5.308232242313249
5.3143867144782595
5.326695658808251
5.326695658808251
5.326695658808251
5.3390046031382425
5.345159075303252
5.357468019633243
5.363622491798253
5.357468019633243
5.369776963963263
5.369776963963263
5.357468019633243
5.369776963963263
5.375931436128245
5.382085908293255
5.388240380458265
5.388240380458265
5.382085908293255
5.388240380458265
5.375931436128245
5.388240380458265
5.388240380458265
5.388240380458265
5.394394852623274
5.388240380458265
5.388240380458265
5.382085908293255
5.375931436128245
5.382085908293255
5.375931436128245
5.369776963963263
5.375931436128245
5.375931436128245
5.375931436128245
5.357468019633243
5.351313547468262
5.363622491798253
5.357468019633243
5.357468019633243
5.357468019633243
5.351313547468262
5.345159075303252
5.3390046031382425
5.3390046031382425
5.351313547468262
5.357468019633243
5.351313547468262
5.345159075303252
5.3390046031382425
5.326695658808251
5.295923297983257
5.302077770148239
5.308232242313249
5.302077770148239
5.295923297983257
5.302077770148239
5.295923297983257
5.289768825818246
5.277459881488256
5.234378576333243
5.117443605198224
5.277459881488256
5.283614353653238
5.277459881488256
5.277459881488256
5.258996464993254
5.228224104168233
5.234378576333243
5.2405330484982535
5.234378576333243
5.228224104168233
5.234378576333243
5.246687520663236
5.234378576333243
5.228224104168233
5.2405330484982535
5.228224104168233
5.2220696320032225
5.209760687673231
5.209760687673231
5.203606215508222
5.19129727117823
5.178988326848239
5.172833854683229
5.172833854683229
5.160524910353237
5.166679382518219
5.154370438188227
5.154370438188227
5.135907021693225
5.142061493858235
5.135907021693225
5.135907021693225
5.135907021693225
5.123598077363234
5.117443605198224
5.111289133033214
5.105134660868233
5.117443605198224
5.129752549528216
5.111289133033214
5.111289133033214
5.098980188703223
5.080516772208221
5.068207827878203
5.043589939218219
5.0497444113832
5.05589888354821
5.06205335571322
5.098980188703223
5.166679382518219
5.2405330484982535
5.3143867144782595
5.289768825818246
5.185142799013221
5.05589888354821
4.982045217568204
4.951272856743211
4.945118384578201
4.963581801073202
4.982045217568204
4.9881996897332135
4.994354161898196
4.994354161898196
4.982045217568204
4.982045217568204
4.982045217568204
4.982045217568204
4.963581801073202
4.963581801073202
4.969736273238212
4.957427328908192
4.957427328908192
4.951272856743211
4.957427328908192
4.951272856743211
4.9389639124131905
4.9389639124131905
4.932809440248209
4.932809440248209
4.932809440248209
4.932809440248209
4.92050049591819
4.9266549680832
4.908191551588198
4.902037079423188
4.908191551588198
4.908191551588198
4.902037079423188
4.902037079423188
4.902037079423188
4.902037079423188
4.883573662928187
4.877419190763177
4.877419190763177
4.877419190763177
4.877419190763177
4.871264718598195
4.871264718598195
4.8651102464331855
4.858955774268176
4.8651102464331855
4.858955774268176
4.840492357773174
4.846646829938185
4.834337885608192
4.834337885608192
4.834337885608192
4.81587446911319
4.822028941278172
4.828183413443182
4.822028941278172
4.81587446911319
4.81587446911319
4.81587446911319
4.803565524783171
4.797411052618189
4.803565524783171
4.797411052618189
4.797411052618189
4.803565524783171
4.760484219628157
4.649703720658149
4.785102108288171
4.778947636123188
4.785102108288171
4.797411052618189
4.785102108288171
4.7912565804531795
4.785102108288171
4.778947636123188
4.772793163958178
4.760484219628157
4.766638691793168
4.766638691793168
4.760484219628157
4.748175275298167
4.7420208031331565
4.7420208031331565
4.7297118588031655
4.7297118588031655
4.7297118588031655
4.717402914473173
4.717402914473173
4.711248442308165
4.711248442308165
4.711248442308165
4.698939497978172
4.692785025813162
4.698939497978172
4.692785025813162
4.686630553648152
4.686630553648152
4.68047608148317
4.68047608148317
4.67432160931816
4.668167137153151
4.67432160931816
4.67432160931816
4.668167137153151
4.67432160931816
4.668167137153151
4.662012664988168
4.649703720658149
4.662012664988168
4.662012664988168
4.649703720658149
4.655858192823159
4.655858192823159
4.6435492484931675
4.625085831998166
4.489687444368147
4.606622415503137
4.662012664988168
4.655858192823159
4.649703720658149
4.6435492484931675
4.6435492484931675
4.625085831998166
4.6004679433381535
4.612776887668146
4.606622415503137
4.612776887668146
4.606622415503137
4.612776887668146
4.612776887668146
4.606622415503137
4.5943134711731455
4.6004679433381535
4.606622415503137
4.5943134711731455
4.6004679433381535
4.5943134711731455
4.588158999008135
4.575850054678144
4.5820045268431535
4.5820045268431535
4.5820045268431535
4.575850054678144
4.575850054678144
4.5820045268431535
4.569695582513134
4.557386638183142
4.569695582513134
4.569695582513134
4.563541110348153
4.563541110348153
4.569695582513134
4.569695582513134
4.563541110348153
4.557386638183142
4.557386638183142
4.557386638183142
4.569695582513134
4.557386638183142
4.557386638183142
4.557386638183142
4.54507769385315
4.5327687495231315
4.54507769385315
4.551232166018132
4.538923221688139
4.54507769385315
4.5327687495231315
4.5327687495231315
4.5327687495231315
4.514305333028129
4.526614277358149
4.520459805193139
4.514305333028129
4.526614277358149
4.526614277358149
4.5327687495231315
4.526614277358149
4.520459805193139
4.526614277358149
4.526614277358149
4.520459805193139
4.520459805193139
4.520459805193139
4.526614277358149
4.501996388698137
4.508150860863147
4.465069555708134
4.360443528903107
4.495841916533128
4.514305333028129
4.508150860863147
4.501996388698137
4.483532972203136
4.471224027873144
4.471224027873144
4.471224027873144
4.471224027873144
4.465069555708134
4.465069555708134
4.465069555708134
4.458915083543125
4.458915083543125
4.465069555708134
4.465069555708134
4.458915083543125
4.465069555708134
4.458915083543125
4.452760611378115
4.440451667048122
4.446606139213133
4.458915083543125
4.489687444368147
4.5327687495231315
4.606622415503137
4.686630553648152
4.717402914473173
4.625085831998166
4.514305333028129
4.428142722718132
4.37890694539811
4.3727524732331275
4.37890694539811
4.40352483405812
4.421988250553122
4.421988250553122
4.440451667048122
4.440451667048122
4.440451667048122
4.434297194883113
4.434297194883113
4.434297194883113
4.428142722718132
4.421988250553122
4.434297194883113
4.440451667048122
4.434297194883113
4.428142722718132
4.434297194883113
4.440451667048122
4.434297194883113
4.434297194883113
4.440451667048122
4.440451667048122
4.440451667048122
4.434297194883113
4.434297194883113
4.428142722718132
4.428142722718132
4.428142722718132
4.428142722718132
4.421988250553122
4.421988250553122
4.421988250553122
4.415833778388112
4.421988250553122
4.40352483405812
4.415833778388112
4.421988250553122
4.415833778388112
4.415833778388112
4.421988250553122
4.421988250553122
4.40967930622313
4.40352483405812
4.415833778388112
4.415833778388112
4.415833778388112
4.40967930622313
4.415833778388112
4.40352483405812
4.397370361893111
4.385061417563119
4.397370361893111
4.40352483405812
4.391215889728128
4.385061417563119
4.385061417563119
4.37890694539811
4.37890694539811
4.3727524732331275
4.385061417563119
4.3727524732331275
4.3727524732331275
4.3727524732331275
4.3727524732331275
4.3727524732331275
4.360443528903107
4.354289056738125
4.360443528903107
4.348134584573115
4.335825640243124
4.335825640243124
4.323516695913104
4.3112077515831135
4.305053279418103
4.3173622237481215
4.329671168078114
4.335825640243124
4.341980112408105
4.348134584573115
4.341980112408105
4.354289056738125
4.341980112408105
4.348134584573115
4.348134584573115
4.354289056738125
4.360443528903107
4.360443528903107
4.329671168078114
4.2065817247780855
4.335825640243124
4.348134584573115
4.354289056738125
4.360443528903107
4.360443528903107
4.360443528903107
4.354289056738125
4.354289056738125
4.348134584573115
4.366598001068117
4.354289056738125
4.348134584573115
4.354289056738125
4.354289056738125
4.354289056738125
4.354289056738125
4.354289056738125
4.354289056738125
4.360443528903107
4.360443528903107
4.341980112408105
4.335825640243124
4.335825640243124
4.3112077515831135
4.298898807253093
4.305053279418103
4.298898807253093
4.305053279418103
4.298898807253093
4.292744335088111
4.292744335088111
4.280435390758092
4.280435390758092
4.2865898629231
4.280435390758092
4.280435390758092
4.280435390758092
4.27428091859311
4.2681264464281
4.249663029933098
4.261971974263091
4.255817502098108
4.255817502098108
4.255817502098108
4.255817502098108
4.249663029933098
4.249663029933098
4.249663029933098
4.261971974263091
4.261971974263091
4.2681264464281
4.27428091859311
4.280435390758092
4.27428091859311
4.280435390758092
4.2681264464281
4.2865898629231
4.2865898629231
4.280435390758092
4.280435390758092
4.27428091859311
4.2681264464281
4.255817502098108
4.249663029933098
4.243508557768089
4.231199613438097
4.225045141273086
4.2065817247780855
4.181963836118102
4.1758093639530935
4.145037003128072
4.101955697973087
4.065028864983084
4.034256504158063
4.021947559828071
4.009638615498079
3.9111670608580615
3.7696142010630322
3.609597924773
3.2034027618829395
2.772589710332896
1.7940286360977609
-0.1384756237125251
-0.6492968134075848
-0.6862236463975879
-0.6554512855725947
-0.6062155082525723
-0.5508252587675677
-0.47697159278756174
-0.4154268711375475
-0.360036621652543
-0.30464637216753854
-0.2554105948475438
-0.2061748175275213
-0.1692479845375183
-0.10770326288750408
-0.05231301340249961
0.003077236082504875
0.05231301340249961
0.10770326288750408
0.15693904020752658
0.2061748175275213
0.23694717835254234
0.2984919000025288
0.35388214948756097
0.396963454642546
0.44619923196256844
0.49543500928256323
0.5446707866025856
0.5877520917575707
0.6185244525825918
0.6677602299025863
0.7231504793875909
0.7662317845426038
0.8031586175326066
0.8523943948526291
0.889321227842632
0.9200935886676254
0.8154675618626261
0.9816383103176396
1.0308740876376343
0.9139391165026156
1.104727753617668
1.178581419597674
1.2401261412476885
1.3139798072276945
1.4124513618677115
1.5478497494977315
1.6401668319727392
1.6278578876427194
1.5416952773327222
1.4555326670226965
1.4432237226927047
1.4616871391877062
1.4863050278477177
1.5663131659927332
1.615548943312728
1.6524757763027311
1.683248137127724
1.7140204979527454
1.7509473309427481
1.7632562752727399
1.8063375804277528
1.8432644134177558
1.8678823020777668
1.892500190737778
1.9232725515627715
1.954044912387765
1.9848172732127856
1.9971262175427773
2.0278985783677985
2.064825411357801
2.0955977721827947
2.1202156608428053
2.1448335495027893
2.1632969659978185
2.187914854657802
2.212532743317813
2.2433051041428067
2.2679229928028177
2.298695353627811
2.329467714452832
2.347931130947833
2.3663945474428347
2.391012436102846
2.3971669082678284
2.434093741257831
2.4525571577528327
2.471020574247862
2.501792935072855
2.5141018794028467
2.544874240227868
2.55102871239285
2.563337656722869
2.5941100175478624
2.618727906207874
2.6371913227028756
2.655654739197877
2.674118155692878
2.68642710002287
2.704890516517872
2.7171994608478913
2.7418173495078744
2.760280766002876
2.772589710332896
2.797207598992907
2.8033620711578893
2.8279799598179
2.8402889041478923
2.8525978484779113
2.8649067928079033
2.8895246814679143
2.907988097962916
2.9202970422929075
2.932605986622927
2.9572238752829105
2.9633783474479203
2.9818417639429216
3.006459652602933
3.0249230690979347
3.0372320134279267
3.055695429922928
3.074158846417929
3.092622262912931
3.0987767350779407
3.1110856794079322
3.1233946237379517
3.1357035680679433
3.1480125123979352
3.1480125123979352
3.166475928892937
3.1726304010579467
3.1726304010579467
3.191093817552948
3.1972482897179573
3.2034027618829395
3.2095572340479492
3.2095572340479492
3.2280206505429514
3.234175122707961
3.234175122707961
3.258793011367972
3.264947483532954
3.277256427862973
3.277256427862973
3.289565372192965
3.301874316522957
3.301874316522957
3.2957198443579747
3.3203377330179586
3.332646677347978
3.35111009384298
3.357264566007961
3.3695735103379807
3.3695735103379807
3.375727982502963
3.381882454667973
3.394191398997992
3.406500343327984
3.4126548154929934
3.424963759822985
3.424963759822985
3.394191398997992
3.2526385392029624
3.418809287657976
3.449581648482997
3.461890592812989
3.4741995371429804
3.48035400930799
3.486508481473
3.4926629536379816
3.4926629536379816
3.4988174258029914
3.504971897968001
3.5234353144630024
3.529589786627985
3.5357442587929944
3.5357442587929944
3.5357442587929944
3.529589786627985
3.541898730958004
3.560362147453006
3.560362147453006
3.560362147453006
3.5665166196180156
3.578825563948007
3.578825563948007
3.5665166196180156
3.591134508277999
3.591134508277999
3.5972889804430093
3.6034434526080172
3.609597924773
3.609597924773
3.6034434526080172
3.5972889804430093
3.6219068691030203
3.628061341268002
3.6219068691030203
3.628061341268002
3.640370285598021
3.640370285598021
3.634215813433012
3.634215813433012
3.6465247577630033
3.652679229928013
3.658833702093023
3.6649881742580046
3.671142646423015
3.6649881742580046
3.6649881742580046
3.6649881742580046
3.677297118588024
3.6834515907530063
3.6896060629180156
3.6896060629180156
3.695760535083026
3.695760535083026
3.6896060629180156
3.695760535083026
3.701915007248036
3.7080694794130173
3.701915007248036
3.7142239515780275
3.7142239515780275
3.720378423743037
3.701915007248036
3.7142239515780275
3.720378423743037
3.7265328959080186
3.720378423743037
3.720378423743037
3.732687368073029
3.7449963124030208
3.75115078456803
3.763459728898022
3.7757686732280415
3.7696142010630322
3.7696142010630322
3.7696142010630322
3.7696142010630322
3.7757686732280415
3.75730525673304
3.7696142010630322
3.7696142010630322
3.7757686732280415
3.7696142010630322
3.7757686732280415
3.781923145393024
3.781923145393024
3.763459728898022
3.781923145393024
3.7942320897230433
3.788077617558033
3.788077617558033
3.800386561888025
3.800386561888025
3.800386561888025
3.7942320897230433
3.800386561888025
3.8065410340530352
3.8065410340530352
3.8126955062180454
3.8188499783830263
3.8188499783830263
3.8188499783830263
3.8065410340530352
3.8065410340530352
3.8126955062180454
3.831158922713046
3.8619312835380395
3.9357849495180455
4.028102031993082
4.101955697973087
4.12657358663307
4.040410976323072
3.9111670608580615
3.825004450548036
3.7942320897230433
3.788077617558033
3.8188499783830263
3.831158922713046
3.8496223392080475
3.855776811373057
3.8126955062180454
3.677297118588024
3.855776811373057
3.874240227868059
3.8619312835380395
3.8434678670430373
3.8496223392080475
3.8619312835380395
3.8680857557030492
3.8803947000330408
3.8803947000330408
3.886549172198051
3.886549172198051
3.8680857557030492
3.886549172198051
