4.12657358663307
4.12657358663307
4.12657358663307
4.12657358663307
4.12657358663307
4.12657358663307
4.1327280587980795
4.1327280587980795
4.12657358663307
4.12657358663307
4.1327280587980795
4.1327280587980795
4.169654891788083
4.231199613438097
4.305053279418103
4.385061417563119
4.421988250553122
4.341980112408105
4.200427252613103
4.101955697973087
4.0711833371480655
4.058874392818074
4.0711833371480655
4.095801225808078
4.114264642303079
4.114264642303079
4.120419114468088
4.108110170138069
4.120419114468088
4.12657358663307
4.120419114468088
4.12657358663307
4.1327280587980795
4.1327280587980795
4.120419114468088
4.1327280587980795
4.145037003128072
4.138882530963089
4.138882530963089
4.114264642303079
4.052719920653064
4.138882530963089
4.138882530963089
4.120419114468088
4.12657358663307
4.12657358663307
4.12657358663307
4.1327280587980795
4.138882530963089
4.1327280587980795
4.12657358663307
4.1327280587980795
4.1327280587980795
4.138882530963089
4.1327280587980795
4.138882530963089
4.1327280587980795
4.1327280587980795
4.1327280587980795
4.1327280587980795
4.138882530963089
4.1327280587980795
4.138882530963089
4.138882530963089
4.145037003128072
4.145037003128072
4.138882530963089
4.1327280587980795
4.1327280587980795
4.138882530963089
4.138882530963089
4.138882530963089
4.145037003128072
4.138882530963089
4.12657358663307
4.138882530963089
4.145037003128072
4.1327280587980795
4.145037003128072
4.138882530963089
4.138882530963089
4.145037003128072
4.138882530963089
4.145037003128072
4.151191475293081
4.157345947458091
4.163500419623101
4.163500419623101
4.163500419623101
4.169654891788083
4.1758093639530935
4.1758093639530935
4.1758093639530935
4.1758093639530935
4.1758093639530935
4.181963836118102
4.169654891788083
4.163500419623101
4.157345947458091
4.169654891788083
4.157345947458091
4.163500419623101
4.151191475293081
4.151191475293081
4.151191475293081
4.145037003128072
4.138882530963089
4.145037003128072
4.145037003128072
4.138882530963089
4.138882530963089
4.138882530963089
4.145037003128072
4.145037003128072
4.145037003128072
4.138882530963089
4.145037003128072
4.145037003128072
4.145037003128072
4.151191475293081
4.151191475293081
4.145037003128072
4.151191475293081
4.151191475293081
4.151191475293081
4.151191475293081
4.151191475293081
4.151191475293081
4.145037003128072
4.145037003128072
4.157345947458091
4.157345947458091
4.151191475293081
4.151191475293081
4.151191475293081
4.157345947458091
4.145037003128072
4.138882530963089
4.145037003128072
4.151191475293081
4.157345947458091
4.151191475293081
4.145037003128072
4.151191475293081
4.151191475293081
4.157345947458091
4.163500419623101
4.163500419623101
4.163500419623101
4.151191475293081
4.157345947458091
4.157345947458091
4.151191475293081
4.145037003128072
4.145037003128072
4.145037003128072
4.157345947458091
4.157345947458091
4.157345947458091
4.145037003128072
4.145037003128072
4.12657358663307
4.052719920653064
4.145037003128072
4.151191475293081
4.151191475293081
4.157345947458091
4.157345947458091
4.1327280587980795
4.12657358663307
4.138882530963089
4.138882530963089
4.145037003128072
4.151191475293081
4.151191475293081
4.151191475293081
4.145037003128072
4.151191475293081
4.157345947458091
4.151191475293081
4.151191475293081
4.151191475293081
4.157345947458091
4.157345947458091
4.151191475293081
4.157345947458091
4.151191475293081
4.151191475293081
4.157345947458091
4.151191475293081
4.157345947458091
4.151191475293081
4.145037003128072
4.151191475293081
4.157345947458091
4.145037003128072
4.145037003128072
4.145037003128072
4.151191475293081
4.151191475293081
4.145037003128072
4.157345947458091
4.151191475293081
4.151191475293081
4.151191475293081
4.151191475293081
4.151191475293081
4.145037003128072
4.145037003128072
4.157345947458091
4.151191475293081
4.151191475293081
4.151191475293081
4.157345947458091
4.169654891788083
4.138882530963089
4.095801225808078
4.181963836118102
4.181963836118102
4.181963836118102
4.169654891788083
4.169654891788083
4.169654891788083
4.157345947458091
4.145037003128072
4.145037003128072
4.145037003128072
4.145037003128072
4.145037003128072
4.145037003128072
4.138882530963089
4.138882530963089
4.145037003128072
4.138882530963089
4.151191475293081
4.151191475293081
4.151191475293081
4.145037003128072
4.138882530963089
4.138882530963089
4.145037003128072
4.138882530963089
4.138882530963089
4.138882530963089
4.151191475293081
4.151191475293081
4.145037003128072
4.1327280587980795
4.1327280587980795
4.1327280587980795
4.151191475293081
4.1758093639530935
4.237354085603107
4.305053279418103
4.397370361893111
4.434297194883113
4.37890694539811
4.231199613438097
4.12657358663307
4.083492281478085
4.0711833371480655
4.083492281478085
4.101955697973087
4.120419114468088
4.12657358663307
4.1327280587980795
4.1327280587980795
4.12657358663307
4.1327280587980795
4.1327280587980795
4.1327280587980795
4.1327280587980795
4.1327280587980795
4.1327280587980795
4.145037003128072
4.138882530963089
4.145037003128072
4.138882530963089
4.138882530963089
4.1327280587980795
4.145037003128072
4.138882530963089
4.145037003128072
4.120419114468088
4.058874392818074
4.145037003128072
4.1327280587980795
4.138882530963089
4.138882530963089
4.151191475293081
4.157345947458091
4.151191475293081
4.157345947458091
4.157345947458091
4.151191475293081
4.157345947458091
4.157345947458091
4.145037003128072
4.157345947458091
4.157345947458091
4.151191475293081
4.157345947458091
4.145037003128072
4.151191475293081
4.151191475293081
4.157345947458091
4.157345947458091
4.157345947458091
4.151191475293081
4.151191475293081
4.145037003128072
4.163500419623101
4.157345947458091
4.157345947458091
4.151191475293081
4.157345947458091
4.157345947458091
4.157345947458091
4.157345947458091
4.169654891788083
4.163500419623101
4.163500419623101
4.169654891788083
4.1758093639530935
4.1758093639530935
4.1758093639530935
4.181963836118102
4.181963836118102
4.188118308283084
4.181963836118102
4.188118308283084
4.1942727804480935
4.188118308283084
4.1758093639530935
4.1758093639530935
4.181963836118102
4.1758093639530935
4.169654891788083
4.169654891788083
4.169654891788083
4.157345947458091
4.151191475293081
4.157345947458091
4.157345947458091
4.157345947458091
4.151191475293081
4.157345947458091
4.145037003128072
4.145037003128072
4.138882530963089
4.151191475293081
4.145037003128072
4.145037003128072
4.138882530963089
4.138882530963089
4.145037003128072
4.145037003128072
4.138882530963089
4.145037003128072
4.145037003128072
4.145037003128072
4.145037003128072
4.145037003128072
4.145037003128072
4.138882530963089
4.1327280587980795
4.145037003128072
4.145037003128072
4.145037003128072
4.138882530963089
4.138882530963089
4.151191475293081
4.145037003128072
4.138882530963089
4.145037003128072
4.151191475293081
4.151191475293081
4.151191475293081
4.151191475293081
4.145037003128072
4.145037003128072
4.145037003128072
4.145037003128072
4.151191475293081
4.145037003128072
4.145037003128072
4.145037003128072
4.138882530963089
4.138882530963089
4.138882530963089
4.138882530963089
4.114264642303079
4.089646753643067
4.0711833371480655
4.052719920653064
4.021947559828071
4.009638615498079
3.9973296711680604
3.9911751990030497
3.9850207268380675
3.9788662546730578
3.9788662546730578
3.9727117825080476
3.9727117825080476
3.9604028381780574
3.9419394216830552
3.8680857557030492
3.9604028381780574
3.9727117825080476
3.9604028381780574
3.9665573103430654
3.9542483660130467
3.9357849495180455
3.948093893848065
3.948093893848065
3.9604028381780574
3.9604028381780574
3.9604028381780574
3.9604028381780574
3.9604028381780574
3.9542483660130467
3.9665573103430654
3.9788662546730578
3.9788662546730578
3.9788662546730578
3.9850207268380675
3.9973296711680604
4.003484143333068
4.028102031993082
4.0465654484880815
4.058874392818074
4.058874392818074
4.077337809313075
4.077337809313075
4.083492281478085
4.089646753643067
4.095801225808078
4.095801225808078
4.108110170138069
4.114264642303079
4.114264642303079
4.114264642303079
4.12657358663307
4.120419114468088
4.12657358663307
4.12657358663307
4.138882530963089
4.145037003128072
4.151191475293081
4.157345947458091
4.157345947458091
4.145037003128072
4.151191475293081
4.151191475293081
4.151191475293081
4.157345947458091
4.151191475293081
4.157345947458091
4.145037003128072
4.145037003128072
4.145037003128072
4.157345947458091
4.151191475293081
4.151191475293081
4.157345947458091
4.151191475293081
4.145037003128072
4.145037003128072
4.151191475293081
4.157345947458091
4.157345947458091
4.151191475293081
4.151191475293081
4.157345947458091
4.151191475293081
4.157345947458091
4.151191475293081
4.157345947458091
4.157345947458091
4.163500419623101
4.151191475293081
4.151191475293081
4.138882530963089
4.157345947458091
4.169654891788083
4.218890669108104
4.292744335088111
4.3727524732331275
4.421988250553122
4.37890694539811
4.243508557768089
4.145037003128072
4.095801225808078
4.065028864983084
4.077337809313075
4.101955697973087
4.120419114468088
4.1327280587980795
4.138882530963089
4.138882530963089
4.138882530963089
4.151191475293081
4.151191475293081
4.151191475293081
4.145037003128072
4.145037003128072
4.151191475293081
4.151191475293081
4.157345947458091
4.151191475293081
4.157345947458091
4.151191475293081
4.151191475293081
4.151191475293081
4.157345947458091
4.157345947458091
4.163500419623101
4.163500419623101
4.157345947458091
4.163500419623101
4.163500419623101
4.151191475293081
4.157345947458091
4.157345947458091
4.163500419623101
4.163500419623101
4.157345947458091
4.138882530963089
4.065028864983084
4.120419114468088
4.0711833371480655
4.157345947458091
4.169654891788083
4.1758093639530935
4.169654891788083
4.163500419623101
4.163500419623101
4.145037003128072
4.12657358663307
4.120419114468088
4.114264642303079
4.089646753643067
4.0711833371480655
4.0465654484880815
4.034256504158063
4.015793087663061
4.015793087663061
4.009638615498079
4.003484143333068
4.009638615498079
4.003484143333068
4.009638615498079
4.003484143333068
4.003484143333068
4.009638615498079
4.003484143333068
4.015793087663061
4.015793087663061
4.015793087663061
4.015793087663061
4.015793087663061
4.009638615498079
4.021947559828071
4.015793087663061
4.021947559828071
4.021947559828071
4.021947559828071
4.034256504158063
4.040410976323072
4.058874392818074
4.0711833371480655
4.077337809313075
4.0711833371480655
4.077337809313075
4.077337809313075
4.083492281478085
4.089646753643067
4.089646753643067
4.101955697973087
4.095801225808078
4.095801225808078
4.108110170138069
4.108110170138069
4.108110170138069
4.108110170138069
4.108110170138069
4.114264642303079
4.108110170138069
4.114264642303079
4.120419114468088
4.114264642303079
4.12657358663307
4.120419114468088
4.12657358663307
4.1327280587980795
4.1327280587980795
4.1327280587980795
4.138882530963089
4.138882530963089
4.138882530963089
4.1327280587980795
4.1327280587980795
4.138882530963089
4.138882530963089
4.145037003128072
4.145037003128072
4.151191475293081
4.145037003128072
4.145037003128072
4.145037003128072
4.151191475293081
4.145037003128072
4.145037003128072
4.138882530963089
4.145037003128072
4.151191475293081
4.151191475293081
4.145037003128072
4.151191475293081
4.145037003128072
4.151191475293081
4.151191475293081
4.151191475293081
4.151191475293081
4.145037003128072
4.151191475293081
4.163500419623101
4.163500419623101
4.157345947458091
4.157345947458091
4.157345947458091
4.157345947458091
4.145037003128072
4.157345947458091
4.151191475293081
4.151191475293081
4.151191475293081
4.157345947458091
4.157345947458091
4.145037003128072
4.145037003128072
4.145037003128072
4.145037003128072
4.151191475293081
4.151191475293081
4.151191475293081
4.145037003128072
4.145037003128072
4.145037003128072
4.12657358663307
4.0465654484880815
4.151191475293081
4.163500419623101
4.157345947458091
4.157345947458091
4.1327280587980795
4.12657358663307
4.12657358663307
4.1327280587980795
4.1327280587980795
4.138882530963089
4.138882530963089
4.138882530963089
4.138882530963089
4.138882530963089
4.138882530963089
4.1327280587980795
4.145037003128072
4.145037003128072
4.1327280587980795
4.138882530963089
4.1327280587980795
4.138882530963089
4.138882530963089
4.145037003128072
4.145037003128072
4.145037003128072
4.138882530963089
4.1327280587980795
4.1327280587980795
4.145037003128072
4.151191475293081
4.151191475293081
4.151191475293081
4.151191475293081
4.151191475293081
4.145037003128072
4.151191475293081
4.145037003128072
4.138882530963089
4.145037003128072
4.138882530963089
4.138882530963089
4.138882530963089
4.12657358663307
4.1327280587980795
4.1327280587980795
4.12657358663307
4.12657358663307
4.12657358663307
4.1327280587980795
4.1327280587980795
4.120419114468088
4.120419114468088
4.12657358663307
4.120419114468088
4.12657358663307
4.120419114468088
4.1327280587980795
4.12657358663307
4.12657358663307
4.120419114468088
4.120419114468088
4.120419114468088
4.120419114468088
4.108110170138069
4.120419114468088
4.1327280587980795
4.163500419623101
4.237354085603107
4.323516695913104
4.391215889728128
4.391215889728128
4.2865898629231
4.151191475293081
4.065028864983084
4.040410976323072
4.040410976323072
4.065028864983084
4.095801225808078
4.101955697973087
4.101955697973087
4.101955697973087
4.095801225808078
4.101955697973087
4.108110170138069
4.101955697973087
4.101955697973087
4.101955697973087
4.101955697973087
4.101955697973087
4.101955697973087
4.095801225808078
4.108110170138069
4.101955697973087
4.101955697973087
4.101955697973087
4.108110170138069
4.095801225808078
4.095801225808078
4.101955697973087
4.108110170138069
4.095801225808078
4.108110170138069
4.101955697973087
4.108110170138069
4.108110170138069
4.101955697973087
4.095801225808078
4.108110170138069
4.108110170138069
4.101955697973087
4.101955697973087
4.101955697973087
4.108110170138069
4.095801225808078
4.101955697973087
4.101955697973087
4.101955697973087
4.108110170138069
4.108110170138069
4.083492281478085
4.003484143333068
4.077337809313075
4.095801225808078
4.095801225808078
4.095801225808078
4.101955697973087
4.101955697973087
4.101955697973087
4.095801225808078
4.095801225808078
4.095801225808078
4.095801225808078
4.101955697973087
4.095801225808078
4.108110170138069
4.108110170138069
4.095801225808078
4.101955697973087
4.114264642303079
4.101955697973087
4.114264642303079
4.120419114468088
4.120419114468088
4.12657358663307
4.12657358663307
4.120419114468088
4.120419114468088
4.120419114468088
4.120419114468088
4.120419114468088
4.120419114468088
4.120419114468088
4.114264642303079
4.114264642303079
4.108110170138069
4.101955697973087
4.108110170138069
4.108110170138069
4.101955697973087
4.101955697973087
4.095801225808078
4.089646753643067
4.095801225808078
4.101955697973087
4.101955697973087
4.101955697973087
4.089646753643067
4.083492281478085
4.083492281478085
4.089646753643067
4.089646753643067
4.095801225808078
4.095801225808078
4.089646753643067
4.095801225808078
4.089646753643067
4.089646753643067
4.089646753643067
4.089646753643067
4.095801225808078
4.089646753643067
4.095801225808078
4.095801225808078
4.089646753643067
4.083492281478085
4.101955697973087
4.101955697973087
4.095801225808078
4.095801225808078
4.095801225808078
4.101955697973087
4.077337809313075
3.9911751990030497
4.101955697973087
4.114264642303079
4.108110170138069
4.108110170138069
4.108110170138069
4.101955697973087
4.089646753643067
4.077337809313075
4.089646753643067
4.089646753643067
4.089646753643067
4.095801225808078
4.095801225808078
4.095801225808078
4.089646753643067
4.089646753643067
4.095801225808078
4.089646753643067
4.095801225808078
4.089646753643067
4.095801225808078
4.089646753643067
4.089646753643067
4.083492281478085
4.095801225808078
4.095801225808078
4.089646753643067
4.089646753643067
4.089646753643067
4.089646753643067
4.083492281478085
4.083492281478085
4.089646753643067
4.083492281478085
4.089646753643067
4.089646753643067
4.089646753643067
4.083492281478085
4.077337809313075
4.083492281478085
4.077337809313075
4.077337809313075
4.083492281478085
4.083492281478085
4.089646753643067
4.077337809313075
4.0711833371480655
4.083492281478085
4.058874392818074
3.9973296711680604
4.083492281478085
4.089646753643067
4.089646753643067
4.083492281478085
4.058874392818074
4.065028864983084
4.077337809313075
4.077337809313075
4.077337809313075
4.077337809313075
4.077337809313075
4.0711833371480655
4.0711833371480655
4.077337809313075
4.077337809313075
4.077337809313075
4.083492281478085
4.089646753643067
4.077337809313075
4.083492281478085
4.083492281478085
4.095801225808078
4.108110170138069
4.101955697973087
4.101955697973087
4.108110170138069
4.095801225808078
4.095801225808078
4.101955697973087
4.095801225808078
4.095801225808078
4.089646753643067
4.089646753643067
4.083492281478085
4.083492281478085
4.083492281478085
4.089646753643067
4.089646753643067
4.089646753643067
4.083492281478085
4.083492281478085
4.089646753643067
4.089646753643067
4.083492281478085
4.083492281478085
4.083492281478085
4.083492281478085
4.083492281478085
4.083492281478085
4.083492281478085
4.083492281478085
4.077337809313075
4.083492281478085
4.083492281478085
4.083492281478085
4.065028864983084
4.0711833371480655
4.077337809313075
4.095801225808078
4.138882530963089
4.212736196943095
4.298898807253093
4.3727524732331275
4.348134584573115
4.225045141273086
4.095801225808078
4.021947559828071
4.009638615498079
4.015793087663061
4.040410976323072
4.065028864983084
4.0711833371480655
4.0711833371480655
4.065028864983084
4.058874392818074
4.0711833371480655
4.0711833371480655
4.0711833371480655
4.0711833371480655
4.0711833371480655
4.077337809313075
4.077337809313075
4.0711833371480655
4.077337809313075
4.083492281478085
4.077337809313075
4.083492281478085
4.077337809313075
4.077337809313075
4.077337809313075
4.0711833371480655
4.083492281478085
4.083492281478085
4.083492281478085
4.077337809313075
4.089646753643067
4.083492281478085
4.077337809313075
4.077337809313075
4.089646753643067
4.089646753643067
4.083492281478085
4.083492281478085
4.083492281478085
4.089646753643067
4.083492281478085
4.083492281478085
4.089646753643067
4.089646753643067
4.089646753643067
4.089646753643067
4.083492281478085
4.083492281478085
4.089646753643067
4.089646753643067
4.089646753643067
4.083492281478085
4.089646753643067
4.083492281478085
4.083492281478085
4.0711833371480655
3.9788662546730578
4.065028864983084
4.083492281478085
4.089646753643067
4.095801225808078
4.095801225808078
4.089646753643067
4.095801225808078
4.089646753643067
4.095801225808078
4.095801225808078
4.101955697973087
4.108110170138069
4.101955697973087
4.108110170138069
4.114264642303079
4.108110170138069
4.108110170138069
4.108110170138069
4.108110170138069
4.101955697973087
4.101955697973087
4.101955697973087
4.095801225808078
4.089646753643067
4.089646753643067
4.089646753643067
4.077337809313075
4.077337809313075
4.077337809313075
4.083492281478085
4.0711833371480655
4.065028864983084
4.077337809313075
4.077337809313075
4.077337809313075
4.0711833371480655
4.0711833371480655
4.077337809313075
4.077337809313075
4.0711833371480655
4.077337809313075
4.077337809313075
4.077337809313075
4.0711833371480655
4.0711833371480655
4.065028864983084
4.0711833371480655
4.0711833371480655
4.077337809313075
4.083492281478085
4.0711833371480655
4.077337809313075
4.077337809313075
4.077337809313075
4.052719920653064
4.040410976323072
4.021947559828071
4.009638615498079
3.9973296711680604
3.9850207268380675
3.9788662546730578
3.9604028381780574
3.9357849495180455
3.9419394216830552
3.9604028381780574
3.9727117825080476
3.9911751990030497
4.003484143333068
4.009638615498079
4.015793087663061
4.015793087663061
4.034256504158063
4.034256504158063
4.0465654484880815
4.0465654484880815
4.058874392818074
4.065028864983084
4.065028864983084
4.058874392818074
4.0711833371480655
4.0711833371480655
4.0711833371480655
4.0711833371480655
4.077337809313075
4.083492281478085
4.077337809313075
4.077337809313075
4.089646753643067
4.083492281478085
4.089646753643067
4.077337809313075
4.089646753643067
4.083492281478085
4.089646753643067
4.083492281478085
4.089646753643067
4.089646753643067
4.089646753643067
4.089646753643067
4.089646753643067
4.101955697973087
4.089646753643067
4.089646753643067
4.095801225808078
4.101955697973087
4.101955697973087
4.108110170138069
4.101955697973087
4.095801225808078
4.095801225808078
4.095801225808078
4.101955697973087
4.108110170138069
4.095801225808078
4.101955697973087
4.101955697973087
4.101955697973087
4.095801225808078
4.089646753643067
4.101955697973087
4.077337809313075
4.021947559828071
4.101955697973087
4.108110170138069
4.108110170138069
4.095801225808078
4.083492281478085
4.089646753643067
4.095801225808078
4.095801225808078
4.101955697973087
4.120419114468088
4.12657358663307
4.114264642303079
4.120419114468088
4.114264642303079
4.120419114468088
4.114264642303079
4.114264642303079
4.108110170138069
4.101955697973087
4.015793087663061
4.095801225808078
4.114264642303079
4.114264642303079
4.114264642303079
4.108110170138069
4.108110170138069
4.108110170138069
4.077337809313075
4.095801225808078
4.089646753643067
4.101955697973087
4.101955697973087
4.095801225808078
4.095801225808078
4.089646753643067
4.095801225808078
4.101955697973087
4.108110170138069
4.101955697973087
4.101955697973087
4.108110170138069
4.101955697973087
4.089646753643067
4.089646753643067
4.089646753643067
4.101955697973087
4.1327280587980795
4.188118308283084
4.255817502098108
4.335825640243124
4.348134584573115
4.27428091859311
4.138882530963089
4.052719920653064
4.021947559828071
4.009638615498079
4.021947559828071
4.0465654484880815
4.065028864983084
4.077337809313075
4.089646753643067
4.089646753643067
4.089646753643067
4.083492281478085
4.089646753643067
4.089646753643067
4.083492281478085
4.089646753643067
4.089646753643067
4.089646753643067
4.095801225808078
4.095801225808078
4.095801225808078
4.089646753643067
4.089646753643067
4.095801225808078
4.095801225808078
4.101955697973087
4.101955697973087
4.095801225808078
4.101955697973087
4.089646753643067
4.083492281478085
4.101955697973087
4.101955697973087
4.101955697973087
4.108110170138069
4.095801225808078
4.101955697973087
4.089646753643067
4.101955697973087
4.101955697973087
4.108110170138069
4.101955697973087
4.108110170138069
4.095801225808078
4.101955697973087
4.095801225808078
4.095801225808078
4.101955697973087
4.108110170138069
4.101955697973087
4.101955697973087
4.108110170138069
4.108110170138069
4.108110170138069
4.101955697973087
4.108110170138069
4.108110170138069
4.114264642303079
4.108110170138069
4.114264642303079
4.108110170138069
4.114264642303079
4.120419114468088
4.12657358663307
4.12657358663307
4.12657358663307
4.12657358663307
4.1327280587980795
4.108110170138069
4.034256504158063
4.138882530963089
4.151191475293081
4.145037003128072
4.145037003128072
4.145037003128072
4.138882530963089
4.1327280587980795
4.101955697973087
4.108110170138069
4.101955697973087
4.095801225808078
4.089646753643067
4.089646753643067
4.095801225808078
4.077337809313075
4.058874392818074
4.034256504158063
3.9973296711680604
3.9665573103430654
3.9419394216830552
3.9296304773530633
3.9234760051880535
3.9111670608580615
3.8988581165280416
3.8988581165280416
3.8927036443630603
3.8927036443630603
3.886549172198051
3.8927036443630603
3.8927036443630603
3.8988581165280416
3.8988581165280416
3.9050125886930522
3.9234760051880535
3.9357849495180455
3.9542483660130467
3.9727117825080476
3.9850207268380675
3.9973296711680604
4.009638615498079
4.021947559828071
4.028102031993082
4.028102031993082
4.040410976323072
4.0465654484880815
4.0465654484880815
4.0465654484880815
4.052719920653064
4.065028864983084
4.065028864983084
4.065028864983084
4.077337809313075
4.0711833371480655
4.077337809313075
4.0711833371480655
4.089646753643067
4.083492281478085
4.083492281478085
4.089646753643067
4.095801225808078
4.095801225808078
4.089646753643067
4.083492281478085
4.095801225808078
4.101955697973087
4.089646753643067
4.095801225808078
4.095801225808078
4.095801225808078
4.095801225808078
4.101955697973087
4.095801225808078
4.101955697973087
4.108110170138069
4.101955697973087
4.108110170138069
4.114264642303079
4.108110170138069
4.101955697973087
4.108110170138069
4.101955697973087
4.114264642303079
4.114264642303079
4.108110170138069
4.114264642303079
4.108110170138069
4.108110170138069
4.120419114468088
4.108110170138069
4.114264642303079
4.120419114468088
4.114264642303079
4.114264642303079
4.114264642303079
4.114264642303079
4.120419114468088
4.114264642303079
4.114264642303079
4.120419114468088
4.120419114468088
4.108110170138069
4.108110170138069
4.120419114468088
4.114264642303079
4.120419114468088
4.114264642303079
4.114264642303079
4.114264642303079
4.114264642303079
4.108110170138069
4.114264642303079
4.114264642303079
4.120419114468088
4.120419114468088
4.114264642303079
4.120419114468088
4.108110170138069
4.108110170138069
4.120419114468088
4.1327280587980795
4.120419114468088
4.052719920653064
4.1327280587980795
4.138882530963089
4.120419114468088
4.108110170138069
4.114264642303079
4.114264642303079
4.108110170138069
4.114264642303079
4.114264642303079
4.101955697973087
4.108110170138069
4.114264642303079
4.120419114468088
4.114264642303079
4.108110170138069
4.114264642303079
4.114264642303079
4.108110170138069
4.101955697973087
4.101955697973087
4.108110170138069
4.101955697973087
4.101955697973087
4.101955697973087
4.108110170138069
4.108110170138069
4.095801225808078
4.101955697973087
4.095801225808078
4.101955697973087
4.089646753643067
4.077337809313075
4.083492281478085
4.095801225808078
4.12657358663307
4.2065817247780855
4.2865898629231
4.360443528903107
4.366598001068117
4.27428091859311
4.1327280587980795
4.0465654484880815
4.009638615498079
4.015793087663061
4.034256504158063
4.052719920653064
4.065028864983084
4.0711833371480655
4.077337809313075
4.065028864983084
4.065028864983084
4.077337809313075
4.077337809313075
4.0711833371480655
4.0711833371480655
4.077337809313075
4.077337809313075
4.0711833371480655
4.0711833371480655
4.077337809313075
4.077337809313075
4.077337809313075
4.077337809313075
4.077337809313075
4.0711833371480655
4.077337809313075
4.077337809313075
4.083492281478085
4.083492281478085
4.077337809313075
4.077337809313075
4.0711833371480655
4.0711833371480655
4.0711833371480655
4.0711833371480655
4.083492281478085
4.083492281478085
4.083492281478085
4.083492281478085
4.083492281478085
4.077337809313075
4.0711833371480655
4.077337809313075
4.077337809313075
4.077337809313075
4.077337809313075
4.0711833371480655
4.077337809313075
4.0711833371480655
3.9850207268380675
4.058874392818074
4.095801225808078
4.089646753643067
4.083492281478085
4.089646753643067
4.083492281478085
4.083492281478085
4.052719920653064
4.058874392818074
4.065028864983084
4.077337809313075
4.077337809313075
4.083492281478085
4.077337809313075
4.083492281478085
4.083492281478085
4.089646753643067
4.089646753643067
4.095801225808078
4.095801225808078
4.101955697973087
4.101955697973087
4.108110170138069
4.101955697973087
4.108110170138069
4.114264642303079
4.108110170138069
4.101955697973087
4.101955697973087
4.101955697973087
4.0711833371480655
4.003484143333068
4.083492281478085
4.101955697973087
4.095801225808078
4.089646753643067
4.089646753643067
4.083492281478085
4.058874392818074
4.052719920653064
4.065028864983084
4.065028864983084
4.065028864983084
4.0711833371480655
4.0711833371480655
4.0711833371480655
4.052719920653064
4.065028864983084
4.065028864983084
4.0711833371480655
4.065028864983084
4.0711833371480655
4.0711833371480655
4.065028864983084
4.065028864983084
4.0711833371480655
4.065028864983084
4.065028864983084
4.065028864983084
4.065028864983084
4.0711833371480655
4.065028864983084
4.058874392818074
4.0711833371480655
4.065028864983084
4.0711833371480655
4.065028864983084
4.0711833371480655
4.077337809313075
4.0711833371480655
4.0711833371480655
4.077337809313075
4.0711833371480655
4.083492281478085
4.077337809313075
4.077337809313075
4.077337809313075
4.065028864983084
4.0711833371480655
4.077337809313075
4.0711833371480655
4.077337809313075
4.0711833371480655
4.077337809313075
4.0711833371480655
4.065028864983084
4.065028864983084
4.0711833371480655
4.0711833371480655
4.0711833371480655
4.065028864983084
4.077337809313075
4.0711833371480655
4.065028864983084
4.065028864983084
4.077337809313075
4.077337809313075
4.077337809313075
4.0711833371480655
4.077337809313075
4.083492281478085
4.077337809313075
4.083492281478085
4.077337809313075
4.083492281478085
4.083492281478085
4.077337809313075
4.077337809313075
4.077337809313075
4.077337809313075
4.083492281478085
4.083492281478085
4.077337809313075
4.083492281478085
4.077337809313075
4.083492281478085
4.083492281478085
4.083492281478085
4.083492281478085
4.083492281478085
4.077337809313075
4.083492281478085
4.077337809313075
4.083492281478085
4.0711833371480655
4.077337809313075
4.077337809313075
4.083492281478085
4.083492281478085
4.077337809313075
4.083492281478085
4.089646753643067
4.083492281478085
4.083492281478085
4.089646753643067
4.083492281478085
4.077337809313075
4.089646753643067
4.095801225808078
4.108110170138069
4.108110170138069
4.108110170138069
4.108110170138069
4.108110170138069
4.101955697973087
4.108110170138069
4.101955697973087
4.108110170138069
4.089646753643067
4.089646753643067
4.089646753643067
4.089646753643067
4.0711833371480655
3.9973296711680604
4.089646753643067
4.089646753643067
4.065028864983084
4.065028864983084
4.083492281478085
4.077337809313075
4.083492281478085
4.077337809313075
4.083492281478085
4.077337809313075
4.077337809313075
4.077337809313075
4.077337809313075
4.089646753643067
4.083492281478085
4.083492281478085
4.089646753643067
4.083492281478085
4.0711833371480655
4.0711833371480655
4.077337809313075
4.083492281478085
4.1327280587980795
4.1942727804480935
4.2865898629231
4.354289056738125
4.354289056738125
4.261971974263091
4.12657358663307
4.0465654484880815
4.015793087663061
4.015793087663061
4.0465654484880815
4.058874392818074
4.0711833371480655
4.0711833371480655
4.077337809313075
4.0711833371480655
4.077337809313075
4.0711833371480655
4.077337809313075
4.0711833371480655
4.077337809313075
4.083492281478085
4.083492281478085
4.083492281478085
4.077337809313075
4.077337809313075
4.077337809313075
4.077337809313075
4.083492281478085
4.089646753643067
4.083492281478085
4.089646753643067
4.083492281478085
4.089646753643067
4.083492281478085
4.083492281478085
4.089646753643067
4.089646753643067
4.095801225808078
4.095801225808078
4.095801225808078
4.089646753643067
4.089646753643067
4.095801225808078
4.095801225808078
4.095801225808078
4.089646753643067
4.101955697973087
4.095801225808078
4.095801225808078
4.095801225808078
4.095801225808078
4.089646753643067
4.089646753643067
4.089646753643067
4.089646753643067
4.095801225808078
4.095801225808078
4.089646753643067
4.083492281478085
4.095801225808078
4.089646753643067
4.095801225808078
4.101955697973087
4.095801225808078
4.095801225808078
4.095801225808078
4.101955697973087
4.095801225808078
4.101955697973087
4.114264642303079
4.114264642303079
4.114264642303079
4.120419114468088
4.108110170138069
4.120419114468088
4.114264642303079
4.12657358663307
4.120419114468088
4.12657358663307
4.12657358663307
4.12657358663307
4.114264642303079
4.108110170138069
4.114264642303079
4.108110170138069
4.108110170138069
4.101955697973087
4.101955697973087
4.095801225808078
4.083492281478085
4.095801225808078
4.089646753643067
4.095801225808078
4.095801225808078
4.089646753643067
4.089646753643067
4.089646753643067
4.065028864983084
4.003484143333068
4.089646753643067
4.095801225808078
4.095801225808078
4.101955697973087
4.095801225808078
4.089646753643067
4.0711833371480655
4.0711833371480655
4.077337809313075
4.083492281478085
4.083492281478085
4.077337809313075
4.083492281478085
4.077337809313075
4.089646753643067
4.089646753643067
4.089646753643067
4.083492281478085
4.083492281478085
4.089646753643067
4.083492281478085
4.089646753643067
4.089646753643067
4.095801225808078
4.089646753643067
4.095801225808078
4.095801225808078
4.089646753643067
4.095801225808078
4.083492281478085
4.095801225808078
4.101955697973087
4.095801225808078
4.095801225808078
4.095801225808078
4.095801225808078
4.095801225808078
4.009638615498079
4.0711833371480655
4.114264642303079
4.114264642303079
4.101955697973087
4.108110170138069
4.108110170138069
4.095801225808078
4.083492281478085
4.077337809313075
4.089646753643067
4.089646753643067
4.095801225808078
4.095801225808078
4.101955697973087
4.101955697973087
4.089646753643067
4.101955697973087
4.101955697973087
4.095801225808078
4.095801225808078
4.101955697973087
4.095801225808078
4.095801225808078
4.089646753643067
4.095801225808078
4.095801225808078
4.095801225808078
4.101955697973087
4.101955697973087
4.095801225808078
4.089646753643067
4.095801225808078
4.089646753643067
4.101955697973087
4.095801225808078
4.101955697973087
4.101955697973087
4.095801225808078
4.095801225808078
4.095801225808078
4.095801225808078
4.101955697973087
4.095801225808078
4.101955697973087
4.101955697973087
4.095801225808078
4.101955697973087
4.108110170138069
4.101955697973087
4.108110170138069
4.108110170138069
4.108110170138069
4.101955697973087
4.114264642303079
4.108110170138069
4.108110170138069
4.095801225808078
4.0711833371480655
4.040410976323072
4.009638615498079
3.9973296711680604
3.9850207268380675
3.9665573103430654
3.9665573103430654
3.9604028381780574
3.948093893848065
3.9419394216830552
3.9604028381780574
3.9727117825080476
3.9665573103430654
3.9727117825080476
3.9850207268380675
3.9850207268380675
3.9911751990030497
3.9850207268380675
3.9911751990030497
4.009638615498079
4.009638615498079
4.009638615498079
4.009638615498079
4.003484143333068
3.9850207268380675
3.9727117825080476
3.9173215330230438
3.9973296711680604
4.003484143333068
3.9788662546730578
3.9727117825080476
3.9850207268380675
3.9850207268380675
4.003484143333068
4.034256504158063
4.095801225808078
4.157345947458091
4.231199613438097
4.243508557768089
4.145037003128072
4.015793087663061
3.9357849495180455
3.8927036443630603
3.8803947000330408
3.886549172198051
3.9111670608580615
3.948093893848065
3.9788662546730578
3.9973296711680604
4.009638615498079
4.009638615498079
4.021947559828071
4.028102031993082
4.040410976323072
4.040410976323072
4.058874392818074
4.058874392818074
4.058874392818074
4.0711833371480655
4.077337809313075
4.077337809313075
4.083492281478085
4.089646753643067
4.089646753643067
4.089646753643067
4.101955697973087
4.108110170138069
4.108110170138069
4.108110170138069
4.108110170138069
4.120419114468088
4.120419114468088
4.114264642303079
4.12657358663307
4.12657358663307
4.12657358663307
4.12657358663307
4.12657358663307
4.12657358663307
4.138882530963089
4.1327280587980795
4.1327280587980795
4.138882530963089
4.138882530963089
4.138882530963089
4.138882530963089
4.151191475293081
4.145037003128072
4.145037003128072
4.138882530963089
4.145037003128072
4.145037003128072
4.151191475293081
4.151191475293081
4.145037003128072
4.145037003128072
4.151191475293081
4.151191475293081
4.157345947458091
4.145037003128072
4.151191475293081
4.151191475293081
4.157345947458091
4.163500419623101
4.163500419623101
4.163500419623101
4.163500419623101
4.163500419623101
4.169654891788083
4.181963836118102
4.181963836118102
4.188118308283084
4.181963836118102
4.1758093639530935
4.1758093639530935
4.163500419623101
4.1758093639530935
4.169654891788083
4.163500419623101
4.163500419623101
4.157345947458091
4.145037003128072
4.145037003128072
4.145037003128072
4.138882530963089
4.145037003128072
4.145037003128072
4.138882530963089
4.138882530963089
4.1327280587980795
4.12657358663307
4.12657358663307
4.138882530963089
4.138882530963089
4.1327280587980795
4.1327280587980795
4.12657358663307
4.12657358663307
4.12657358663307
4.120419114468088
4.12657358663307
4.120419114468088
4.12657358663307
4.120419114468088
4.120419114468088
4.120419114468088
4.120419114468088
4.095801225808078
4.028102031993082
4.120419114468088
4.138882530963089
4.1327280587980795
4.1327280587980795
4.120419114468088
4.108110170138069
4.108110170138069
4.108110170138069
4.108110170138069
4.120419114468088
4.120419114468088
4.120419114468088
4.114264642303079
4.114264642303079
4.120419114468088
4.120419114468088
4.120419114468088
4.114264642303079
4.120419114468088
4.114264642303079
4.120419114468088
4.114264642303079
4.114264642303079
4.114264642303079
4.114264642303079
4.108110170138069
4.108110170138069
4.114264642303079
4.108110170138069
4.101955697973087
4.114264642303079
4.114264642303079
4.114264642303079
4.108110170138069
4.101955697973087
4.114264642303079
4.101955697973087
4.108110170138069
4.114264642303079
4.108110170138069
4.108110170138069
4.114264642303079
4.114264642303079
4.114264642303079
4.114264642303079
4.114264642303079
4.120419114468088
4.120419114468088
4.120419114468088
4.114264642303079
4.114264642303079
4.114264642303079
4.114264642303079
4.120419114468088
4.120419114468088
4.114264642303079
4.120419114468088
4.120419114468088
4.120419114468088
4.120419114468088
4.108110170138069
4.120419114468088
4.114264642303079
4.120419114468088
4.114264642303079
4.114264642303079
4.114264642303079
4.120419114468088
4.114264642303079
4.114264642303079
4.120419114468088
4.114264642303079
4.120419114468088
4.120419114468088
4.114264642303079
4.101955697973087
4.101955697973087
4.101955697973087
4.114264642303079
4.12657358663307
4.12657358663307
4.12657358663307
4.1327280587980795
4.12657358663307
4.114264642303079
4.12657358663307
4.120419114468088
4.12657358663307
4.12657358663307
4.120419114468088
4.120419114468088
4.108110170138069
4.108110170138069
4.114264642303079
4.101955697973087
4.101955697973087
4.108110170138069
4.108110170138069
4.101955697973087
4.095801225808078
4.101955697973087
4.101955697973087
4.108110170138069
4.101955697973087
4.101955697973087
4.101955697973087
4.108110170138069
4.028102031993082
4.058874392818074
4.120419114468088
4.120419114468088
4.114264642303079
4.101955697973087
4.095801225808078
4.083492281478085
4.077337809313075
4.095801225808078
4.151191475293081
4.218890669108104
4.3112077515831135
4.360443528903107
4.261971974263091
4.237354085603107
4.101955697973087
4.0465654484880815
4.028102031993082
4.021947559828071
4.052719920653064
4.0711833371480655
4.077337809313075
4.077337809313075
4.0711833371480655
4.077337809313075
4.083492281478085
4.083492281478085
4.083492281478085
4.083492281478085
4.089646753643067
4.077337809313075
4.077337809313075
4.089646753643067
4.089646753643067
4.089646753643067
4.095801225808078
4.083492281478085
4.089646753643067
4.083492281478085
4.089646753643067
4.089646753643067
4.095801225808078
4.089646753643067
4.083492281478085
4.083492281478085
4.083492281478085
4.083492281478085
4.083492281478085
4.089646753643067
4.089646753643067
4.089646753643067
4.095801225808078
4.095801225808078
4.089646753643067
4.083492281478085
4.089646753643067
4.083492281478085
4.089646753643067
4.083492281478085
4.089646753643067
4.089646753643067
4.083492281478085
4.0711833371480655
4.077337809313075
4.077337809313075
4.077337809313075
4.0711833371480655
4.077337809313075
4.065028864983084
4.065028864983084
4.065028864983084
4.0711833371480655
4.0711833371480655
4.0711833371480655
4.065028864983084
4.065028864983084
4.0711833371480655
4.0711833371480655
4.0711833371480655
4.0711833371480655
4.077337809313075
4.077337809313075
4.077337809313075
4.089646753643067
4.089646753643067
4.095801225808078
4.089646753643067
4.095801225808078
4.108110170138069
4.101955697973087
4.095801225808078
4.095801225808078
4.089646753643067
4.083492281478085
4.077337809313075
4.083492281478085
4.077337809313075
4.083492281478085
4.077337809313075
4.065028864983084
4.065028864983084
4.058874392818074
4.065028864983084
4.0711833371480655
4.065028864983084
4.0711833371480655
4.065028864983084
4.0711833371480655
4.0711833371480655
4.058874392818074
4.065028864983084
4.0711833371480655
4.0711833371480655
4.0711833371480655
4.065028864983084
4.0711833371480655
4.0711833371480655
4.065028864983084
4.065028864983084
4.0711833371480655
4.065028864983084
4.065028864983084
4.065028864983084
4.065028864983084
4.0711833371480655
4.058874392818074
4.0711833371480655
4.0711833371480655
4.077337809313075
4.077337809313075
4.0711833371480655
4.0711833371480655
4.0711833371480655
4.065028864983084
4.0465654484880815
3.9788662546730578
4.077337809313075
4.089646753643067
4.089646753643067
4.089646753643067
4.077337809313075
4.058874392818074
4.0711833371480655
4.0711833371480655
4.077337809313075
4.083492281478085
4.083492281478085
4.077337809313075
4.083492281478085
4.083492281478085
4.089646753643067
4.083492281478085
4.083492281478085
4.089646753643067
4.083492281478085
4.083492281478085
4.077337809313075
4.089646753643067
4.095801225808078
4.089646753643067
4.089646753643067
4.089646753643067
4.089646753643067
4.095801225808078
4.089646753643067
4.089646753643067
4.095801225808078
4.089646753643067
4.101955697973087
4.095801225808078
4.101955697973087
4.089646753643067
4.095801225808078
4.101955697973087
4.095801225808078
4.101955697973087
4.095801225808078
4.095801225808078
4.095801225808078
4.095801225808078
4.089646753643067
4.101955697973087
4.095801225808078
4.095801225808078
4.095801225808078
4.095801225808078
4.101955697973087
4.095801225808078
4.095801225808078
4.095801225808078
4.101955697973087
4.095801225808078
4.089646753643067
4.101955697973087
4.101955697973087
4.108110170138069
4.114264642303079
4.120419114468088
4.114264642303079
4.108110170138069
4.108110170138069
4.108110170138069
4.108110170138069
4.089646753643067
4.089646753643067
4.095801225808078
4.089646753643067
4.095801225808078
4.089646753643067
4.095801225808078
4.089646753643067
4.083492281478085
4.083492281478085
4.095801225808078
4.101955697973087
4.089646753643067
4.095801225808078
4.089646753643067
4.083492281478085
4.089646753643067
4.083492281478085
4.083492281478085
4.089646753643067
4.089646753643067
4.089646753643067
4.083492281478085
4.083492281478085
4.0711833371480655
4.0711833371480655
4.065028864983084
4.0711833371480655
4.077337809313075
4.083492281478085
4.095801225808078
4.1327280587980795
4.188118308283084
4.1758093639530935
4.065028864983084
3.9357849495180455
3.8496223392080475
3.8126955062180454
3.8126955062180454
3.831158922713046
3.8496223392080475
3.8680857557030492
3.8803947000330408
3.874240227868059
3.8803947000330408
3.8803947000330408
3.886549172198051
3.8803947000330408
3.8803947000330408
3.8803947000330408
3.8927036443630603
3.886549172198051
3.886549172198051
3.874240227868059
3.8065410340530352
3.8803947000330408
3.886549172198051
3.8927036443630603
3.9050125886930522
3.9050125886930522
3.9111670608580615
3.9111670608580615
3.9111670608580615
3.9111670608580615
3.9111670608580615
3.9173215330230438
3.9234760051880535
3.9296304773530633
3.9296304773530633
3.9296304773530633
3.9357849495180455
3.9357849495180455
3.9419394216830552
3.9419394216830552
3.948093893848065
3.948093893848065
3.9542483660130467
3.948093893848065
3.9542483660130467
3.9604028381780574
3.9665573103430654
3.9604028381780574
3.9604028381780574
3.9727117825080476
3.9665573103430654
3.9727117825080476
3.9665573103430654
3.9727117825080476
3.9727117825080476
3.9788662546730578
3.9788662546730578
3.9788662546730578
3.9850207268380675
3.9911751990030497
3.9911751990030497
3.9911751990030497
3.9911751990030497
3.9973296711680604
3.9973296711680604
4.003484143333068
4.009638615498079
4.009638615498079
4.015793087663061
4.015793087663061
4.028102031993082
4.028102031993082
4.028102031993082
4.034256504158063
4.040410976323072
4.034256504158063
3.9727117825080476
3.9727117825080476
4.0465654484880815
4.0465654484880815
4.040410976323072
4.034256504158063
4.034256504158063
4.021947559828071
4.009638615498079
4.003484143333068
4.009638615498079
4.015793087663061
4.015793087663061
4.021947559828071
4.015793087663061
4.015793087663061
4.015793087663061
4.028102031993082
4.021947559828071
4.028102031993082
4.034256504158063
4.034256504158063
4.034256504158063
4.028102031993082
4.021947559828071
4.034256504158063
4.034256504158063
4.034256504158063
4.034256504158063
4.040410976323072
4.040410976323072
4.034256504158063
4.028102031993082
4.034256504158063
4.0465654484880815
4.0465654484880815
4.0465654484880815
4.0465654484880815
4.040410976323072
4.0465654484880815
4.040410976323072
4.0465654484880815
4.052719920653064
4.052719920653064
4.052719920653064
4.058874392818074
4.052719920653064
4.052719920653064
4.058874392818074
4.058874392818074
4.058874392818074
4.0711833371480655
4.065028864983084
4.065028864983084
4.065028864983084
4.065028864983084
4.065028864983084
4.0711833371480655
4.065028864983084
4.065028864983084
4.0711833371480655
4.0711833371480655
4.0711833371480655
4.065028864983084
4.0711833371480655
4.052719920653064
4.003484143333068
4.083492281478085
4.089646753643067
4.083492281478085
4.077337809313075
4.058874392818074
4.058874392818074
4.0711833371480655
4.065028864983084
4.077337809313075
4.0711833371480655
4.077337809313075
4.077337809313075
4.0711833371480655
4.077337809313075
4.0711833371480655
4.0711833371480655
4.077337809313075
4.083492281478085
4.083492281478085
4.0711833371480655
4.077337809313075
4.077337809313075
4.083492281478085
4.083492281478085
4.077337809313075
4.089646753643067
4.089646753643067
4.077337809313075
4.089646753643067
4.095801225808078
4.108110170138069
4.101955697973087
4.101955697973087
4.101955697973087
4.095801225808078
4.095801225808078
4.089646753643067
4.095801225808078
4.095801225808078
4.083492281478085
4.077337809313075
4.083492281478085
4.077337809313075
4.077337809313075
4.083492281478085
4.083492281478085
4.083492281478085
4.077337809313075
4.083492281478085
4.077337809313075
4.083492281478085
4.077337809313075
4.083492281478085
4.089646753643067
4.083492281478085
4.083492281478085
4.083492281478085
4.083492281478085
4.089646753643067
4.083492281478085
4.089646753643067
4.083492281478085
4.083492281478085
4.083492281478085
4.077337809313075
4.101955697973087
4.12657358663307
4.169654891788083
4.243508557768089
4.298898807253093
4.2865898629231
4.1942727804480935
4.089646753643067
4.040410976323072
4.021947559828071
4.021947559828071
4.034256504158063
4.0465654484880815
4.065028864983084
4.077337809313075
4.095801225808078
4.089646753643067
4.089646753643067
4.083492281478085
4.089646753643067
4.089646753643067
4.089646753643067
4.095801225808078
4.089646753643067
4.095801225808078
4.089646753643067
4.089646753643067
4.089646753643067
4.095801225808078
4.095801225808078
4.095801225808078
4.095801225808078
4.095801225808078
4.095801225808078
4.095801225808078
4.095801225808078
4.101955697973087
4.101955697973087
4.095801225808078
4.101955697973087
4.095801225808078
4.089646753643067
4.095801225808078
4.101955697973087
4.095801225808078
4.101955697973087
4.101955697973087
4.101955697973087
4.095801225808078
4.095801225808078
4.108110170138069
4.101955697973087
4.101955697973087
4.101955697973087
4.108110170138069
4.083492281478085
4.028102031993082
4.101955697973087
4.108110170138069
4.114264642303079
4.108110170138069
4.114264642303079
4.114264642303079
4.120419114468088
4.120419114468088
4.114264642303079
4.120419114468088
4.12657358663307
4.12657358663307
4.1327280587980795
4.1327280587980795
4.12657358663307
4.1327280587980795
4.1327280587980795
4.138882530963089
4.138882530963089
4.145037003128072
4.138882530963089
4.145037003128072
4.145037003128072
4.1327280587980795
4.138882530963089
4.138882530963089
4.1327280587980795
4.138882530963089
4.12657358663307
4.1327280587980795
4.12657358663307
4.114264642303079
4.114264642303079
4.114264642303079
4.108110170138069
4.101955697973087
4.108110170138069
4.108110170138069
4.108110170138069
4.095801225808078
4.108110170138069
4.101955697973087
4.095801225808078
4.101955697973087
4.095801225808078
4.101955697973087
4.095801225808078
4.095801225808078
4.108110170138069
4.101955697973087
4.101955697973087
4.108110170138069
4.101955697973087
4.101955697973087
4.108110170138069
4.114264642303079
4.108110170138069
4.108110170138069
4.114264642303079
4.120419114468088
4.120419114468088
4.120419114468088
4.114264642303079
4.120419114468088
4.120419114468088
4.114264642303079
4.120419114468088
4.120419114468088
4.12657358663307
4.114264642303079
4.114264642303079
4.114264642303079
4.120419114468088
4.120419114468088
4.120419114468088
4.120419114468088
4.114264642303079
4.12657358663307
4.114264642303079
4.120419114468088
4.120419114468088
4.120419114468088
4.120419114468088
4.1327280587980795
4.12657358663307
4.12657358663307
4.12657358663307
4.12657358663307
4.12657358663307
4.1327280587980795
4.12657358663307
4.12657358663307
4.1327280587980795
4.1327280587980795
4.12657358663307
4.12657358663307
4.12657358663307
4.12657358663307
4.12657358663307
4.12657358663307
4.12657358663307
4.138882530963089
4.12657358663307
4.1327280587980795
4.12657358663307
4.1327280587980795
4.138882530963089
4.151191475293081
4.145037003128072
4.145037003128072
4.145037003128072
4.145037003128072
4.145037003128072
4.1327280587980795
4.138882530963089
4.1327280587980795
4.12657358663307
4.12657358663307
4.1327280587980795
4.12657358663307
4.108110170138069
4.052719920653064
4.12657358663307
4.1327280587980795
4.12657358663307
4.095801225808078
4.0465654484880815
4.114264642303079
4.120419114468088
4.120419114468088
4.12657358663307
4.120419114468088
4.12657358663307
4.101955697973087
4.101955697973087
4.114264642303079
4.108110170138069
4.114264642303079
4.101955697973087
4.108110170138069
4.120419114468088
4.12657358663307
4.145037003128072
4.1942727804480935
4.237354085603107
4.2681264464281
4.249663029933098
4.1758093639530935
4.114264642303079
4.077337809313075
4.065028864983084
4.065028864983084
4.0711833371480655
4.089646753643067
4.101955697973087
4.114264642303079
4.101955697973087
4.108110170138069
4.114264642303079
4.114264642303079
4.114264642303079
4.120419114468088
4.114264642303079
4.120419114468088
4.114264642303079
4.108110170138069
4.114264642303079
4.12657358663307
4.114264642303079
4.120419114468088
4.114264642303079
4.114264642303079
4.120419114468088
4.120419114468088
4.114264642303079
4.120419114468088
4.120419114468088
4.120419114468088
4.114264642303079
4.114264642303079
4.108110170138069
4.120419114468088
4.120419114468088
4.114264642303079
4.114264642303079
4.114264642303079
4.120419114468088
4.108110170138069
4.108110170138069
4.114264642303079
4.120419114468088
4.120419114468088
4.114264642303079
4.114264642303079
4.114264642303079
4.120419114468088
4.114264642303079
4.120419114468088
4.120419114468088
4.120419114468088
4.12657358663307
4.1327280587980795
4.120419114468088
4.12657358663307
4.12657358663307
4.1327280587980795
4.145037003128072
4.138882530963089
4.138882530963089
4.138882530963089
4.145037003128072
4.145037003128072
4.145037003128072
4.145037003128072
4.151191475293081
4.145037003128072
4.151191475293081
4.145037003128072
4.151191475293081
4.151191475293081
4.1327280587980795
4.12657358663307
4.1327280587980795
4.1327280587980795
4.120419114468088
4.12657358663307
4.120419114468088
4.12657358663307
4.114264642303079
4.114264642303079
4.114264642303079
4.114264642303079
4.120419114468088
4.114264642303079
4.120419114468088
4.120419114468088
4.120419114468088
4.114264642303079
4.12657358663307
4.12657358663307
4.120419114468088
4.120419114468088
4.108110170138069
4.052719920653064
4.12657358663307
4.1327280587980795
4.12657358663307
4.12657358663307
4.1327280587980795
4.138882530963089
4.138882530963089
4.114264642303079
4.120419114468088
4.12657358663307
4.120419114468088
4.12657358663307
4.1327280587980795
4.12657358663307
4.1327280587980795
4.120419114468088
4.138882530963089
4.138882530963089
4.138882530963089
4.138882530963089
4.145037003128072
4.138882530963089
4.1327280587980795
4.1327280587980795
4.138882530963089
4.1327280587980795
4.1327280587980795
4.1327280587980795
4.145037003128072
4.138882530963089
4.1327280587980795
4.12657358663307
4.12657358663307
4.1327280587980795
4.12657358663307
4.1327280587980795
4.1327280587980795
4.12657358663307
4.12657358663307
4.12657358663307
4.12657358663307
4.120419114468088
4.12657358663307
4.12657358663307
4.138882530963089
4.138882530963089
4.12657358663307
4.12657358663307
4.12657358663307
4.12657358663307
4.1327280587980795
4.12657358663307
4.1327280587980795
4.1327280587980795
4.12657358663307
4.12657358663307
4.138882530963089
4.12657358663307
4.1327280587980795
4.138882530963089
4.138882530963089
4.138882530963089
4.138882530963089
4.138882530963089
4.138882530963089
4.1327280587980795
4.1327280587980795
4.138882530963089
4.12657358663307
4.1327280587980795
4.12657358663307
4.12657358663307
4.1327280587980795
4.1327280587980795
4.1327280587980795
4.1327280587980795
4.12657358663307
4.1327280587980795
4.120419114468088
4.12657358663307
4.1327280587980795
4.120419114468088
4.1327280587980795
4.12657358663307
4.12657358663307
4.120419114468088
4.120419114468088
4.120419114468088
4.1327280587980795
4.1327280587980795
4.120419114468088
4.114264642303079
4.120419114468088
4.114264642303079
4.1327280587980795
4.163500419623101
4.200427252613103
4.255817502098108
4.280435390758092
4.249663029933098
4.169654891788083
4.108110170138069
4.083492281478085
4.0711833371480655
4.077337809313075
4.083492281478085
4.101955697973087
4.114264642303079
4.114264642303079
4.120419114468088
4.12657358663307
4.12657358663307
4.120419114468088
4.120419114468088
4.12657358663307
4.120419114468088
4.120419114468088
4.12657358663307
4.120419114468088
4.12657358663307
4.114264642303079
4.058874392818074
4.138882530963089
4.138882530963089
4.138882530963089
4.120419114468088
4.114264642303079
4.12657358663307
4.12657358663307
4.1327280587980795
4.1327280587980795
4.12657358663307
4.1327280587980795
4.1327280587980795
4.1327280587980795
4.1327280587980795
4.1327280587980795
4.1327280587980795
4.138882530963089
4.1327280587980795
4.1327280587980795
4.1327280587980795
4.138882530963089
4.145037003128072
4.138882530963089
4.138882530963089
4.138882530963089
4.145037003128072
4.1327280587980795
4.145037003128072
4.145037003128072
4.145037003128072
4.145037003128072
4.145037003128072
4.145037003128072
4.138882530963089
4.145037003128072
4.138882530963089
4.151191475293081
4.145037003128072
4.151191475293081
4.157345947458091
4.151191475293081
4.157345947458091
4.151191475293081
4.163500419623101
4.157345947458091
4.163500419623101
4.163500419623101
4.163500419623101
4.157345947458091
4.157345947458091
4.157345947458091
4.151191475293081
4.157345947458091
4.145037003128072
4.151191475293081
4.138882530963089
4.1327280587980795
4.12657358663307
4.120419114468088
4.1327280587980795
4.12657358663307
4.12657358663307
4.120419114468088
4.120419114468088
4.120419114468088
4.114264642303079
4.120419114468088
4.12657358663307
4.120419114468088
4.120419114468088
4.120419114468088
4.120419114468088
4.120419114468088
4.095801225808078
4.052719920653064
4.12657358663307
4.138882530963089
4.1327280587980795
4.12657358663307
4.12657358663307
4.1327280587980795
4.120419114468088
4.108110170138069
4.114264642303079
4.114264642303079
4.120419114468088
4.120419114468088
4.114264642303079
4.120419114468088
4.120419114468088
4.120419114468088
4.120419114468088
4.120419114468088
4.120419114468088
4.12657358663307
4.12657358663307
4.120419114468088
4.12657358663307
4.12657358663307
4.120419114468088
4.12657358663307
4.138882530963089
4.12657358663307
4.1327280587980795
4.1327280587980795
4.120419114468088
4.12657358663307
4.1327280587980795
4.1327280587980795
4.12657358663307
4.12657358663307
4.12657358663307
4.1327280587980795
4.12657358663307
4.12657358663307
4.12657358663307
4.12657358663307
4.12657358663307
4.1327280587980795
4.12657358663307
4.120419114468088
4.058874392818074
4.138882530963089
4.151191475293081
4.151191475293081
4.138882530963089
4.145037003128072
4.138882530963089
4.1327280587980795
4.114264642303079
4.120419114468088
4.12657358663307
4.120419114468088
4.12657358663307
4.12657358663307
4.1327280587980795
4.145037003128072
4.157345947458091
4.169654891788083
4.169654891788083
4.1758093639530935
4.1758093639530935
4.181963836118102
4.188118308283084
4.200427252613103
4.200427252613103
4.212736196943095
4.212736196943095
4.212736196943095
4.212736196943095
4.212736196943095
4.218890669108104
4.212736196943095
4.212736196943095
4.212736196943095
4.212736196943095
4.2065817247780855
4.200427252613103
4.2065817247780855
4.2065817247780855
4.200427252613103
4.2065817247780855
4.2065817247780855
4.2065817247780855
4.2065817247780855
4.2065817247780855
4.200427252613103
4.2065817247780855
4.200427252613103
4.212736196943095
4.2065817247780855
4.212736196943095
4.212736196943095
4.2065817247780855
4.2065817247780855
4.2065817247780855
4.2065817247780855
4.2065817247780855
4.1942727804480935
4.1942727804480935
4.200427252613103
4.218890669108104
4.249663029933098
4.2865898629231
4.360443528903107
4.40967930622313
4.397370361893111
4.3173622237481215
4.218890669108104
4.1758093639530935
4.157345947458091
4.145037003128072
4.163500419623101
4.181963836118102
4.1942727804480935
4.1942727804480935
4.1942727804480935
4.188118308283084
4.1942727804480935
4.188118308283084
4.188118308283084
4.188118308283084
4.1942727804480935
4.1942727804480935
4.1942727804480935
4.188118308283084
4.188118308283084
4.1758093639530935
4.181963836118102
4.188118308283084
4.1942727804480935
4.1942727804480935
4.188118308283084
4.1942727804480935
4.188118308283084
4.181963836118102
4.188118308283084
4.188118308283084
4.1942727804480935
4.1942727804480935
4.188118308283084
4.1942727804480935
4.188118308283084
4.188118308283084
4.188118308283084
4.1942727804480935
4.188118308283084
4.1942727804480935
4.1942727804480935
4.1942727804480935
4.1942727804480935
4.188118308283084
4.188118308283084
4.1942727804480935
4.1942727804480935
4.1942727804480935
4.1942727804480935
4.1942727804480935
4.1758093639530935
4.188118308283084
4.181963836118102
4.188118308283084
4.1758093639530935
4.120419114468088
4.1942727804480935
4.1942727804480935
4.188118308283084
4.1758093639530935
4.181963836118102
4.181963836118102
4.1942727804480935
4.1942727804480935
4.1942727804480935
4.1942727804480935
4.1942727804480935
4.2065817247780855
4.200427252613103
4.200427252613103
4.2065817247780855
4.2065817247780855
4.212736196943095
4.2065817247780855
4.2065817247780855
4.2065817247780855
4.200427252613103
4.1942727804480935
4.1942727804480935
4.181963836118102
4.181963836118102
4.181963836118102
4.1758093639530935
4.1758093639530935
4.1758093639530935
4.1758093639530935
4.163500419623101
4.169654891788083
4.163500419623101
4.163500419623101
4.163500419623101
4.157345947458091
4.163500419623101
4.163500419623101
4.157345947458091
4.157345947458091
4.163500419623101
4.157345947458091
4.157345947458091
4.151191475293081
4.157345947458091
4.157345947458091
4.151191475293081
4.157345947458091
4.157345947458091
4.151191475293081
4.151191475293081
4.151191475293081
4.145037003128072
4.145037003128072
4.151191475293081
4.145037003128072
4.151191475293081
4.138882530963089
4.145037003128072
4.145037003128072
4.145037003128072
4.145037003128072
4.138882530963089
4.138882530963089
4.145037003128072
4.1327280587980795
4.138882530963089
4.145037003128072
4.1327280587980795
4.138882530963089
4.138882530963089
4.145037003128072
4.1327280587980795
4.1327280587980795
4.1327280587980795
4.138882530963089
4.138882530963089
4.145037003128072
4.138882530963089
4.138882530963089
4.1327280587980795
4.1327280587980795
4.138882530963089
4.1327280587980795
4.145037003128072
4.1327280587980795
4.1327280587980795
4.1327280587980795
4.138882530963089
4.1327280587980795
4.1327280587980795
4.1327280587980795
4.1327280587980795
4.138882530963089
4.138882530963089
4.1327280587980795
4.1327280587980795
4.12657358663307
4.138882530963089
4.1327280587980795
4.138882530963089
4.1327280587980795
4.138882530963089
4.1327280587980795
4.120419114468088
4.12657358663307
4.1327280587980795
4.12657358663307
4.12657358663307
4.1327280587980795
4.138882530963089
4.138882530963089
4.12657358663307
4.1327280587980795
4.138882530963089
4.138882530963089
4.145037003128072
4.151191475293081
4.151191475293081
4.138882530963089
4.120419114468088
4.0711833371480655
4.145037003128072
4.145037003128072
4.151191475293081
4.145037003128072
4.138882530963089
4.1327280587980795
4.108110170138069
4.108110170138069
4.114264642303079
4.12657358663307
4.12657358663307
4.120419114468088
4.12657358663307
4.120419114468088
4.120419114468088
4.12657358663307
4.1327280587980795
4.138882530963089
4.1327280587980795
4.1327280587980795
4.138882530963089
4.108110170138069
4.0465654484880815
4.1327280587980795
4.151191475293081
4.138882530963089
4.138882530963089
4.120419114468088
4.12657358663307
4.120419114468088
4.120419114468088
4.169654891788083
4.225045141273086
4.292744335088111
4.354289056738125
4.335825640243124
4.249663029933098
4.1327280587980795
4.077337809313075
4.0711833371480655
4.0711833371480655
4.083492281478085
4.108110170138069
4.108110170138069
4.114264642303079
4.101955697973087
4.108110170138069
4.114264642303079
4.114264642303079
4.108110170138069
4.114264642303079
4.120419114468088
4.120419114468088
4.114264642303079
4.114264642303079
4.120419114468088
4.120419114468088
4.114264642303079
4.120419114468088
4.12657358663307
4.114264642303079
4.114264642303079
4.120419114468088
4.120419114468088
4.12657358663307
4.114264642303079
4.120419114468088
4.12657358663307
4.12657358663307
4.120419114468088
4.12657358663307
4.120419114468088
4.120419114468088
4.120419114468088
4.12657358663307
4.120419114468088
4.120419114468088
4.120419114468088
4.12657358663307
4.1327280587980795
4.120419114468088
4.12657358663307
4.120419114468088
4.12657358663307
4.120419114468088
4.114264642303079
4.12657358663307
4.1327280587980795
4.12657358663307
4.12657358663307
4.120419114468088
4.12657358663307
4.114264642303079
4.114264642303079
4.120419114468088
4.120419114468088
4.114264642303079
4.12657358663307
4.12657358663307
4.120419114468088
4.12657358663307
4.12657358663307
4.12657358663307
4.1327280587980795
4.1327280587980795
4.145037003128072
4.145037003128072
4.145037003128072
4.151191475293081
4.157345947458091
4.151191475293081
4.157345947458091
4.157345947458091
4.151191475293081
4.145037003128072
4.145037003128072
4.138882530963089
4.1327280587980795
4.1327280587980795
4.120419114468088
4.108110170138069
4.0465654484880815
4.12657358663307
4.1327280587980795
4.114264642303079
4.114264642303079
4.120419114468088
4.120419114468088
4.120419114468088
4.120419114468088
4.12657358663307
4.114264642303079
4.120419114468088
4.120419114468088
4.120419114468088
4.120419114468088
4.120419114468088
4.120419114468088
4.120419114468088
4.120419114468088
4.120419114468088
4.120419114468088
4.120419114468088
4.12657358663307
4.120419114468088
4.12657358663307
4.12657358663307
4.120419114468088
4.12657358663307
4.120419114468088
4.12657358663307
4.12657358663307
4.12657358663307
4.120419114468088
4.120419114468088
4.114264642303079
4.120419114468088
4.120419114468088
4.12657358663307
4.12657358663307
4.12657358663307
4.120419114468088
4.12657358663307
4.114264642303079
4.120419114468088
4.12657358663307
4.120419114468088
4.12657358663307
4.120419114468088
4.12657358663307
4.120419114468088
4.114264642303079
4.12657358663307
4.120419114468088
4.114264642303079
4.114264642303079
4.120419114468088
4.114264642303079
4.120419114468088
4.120419114468088
4.120419114468088
4.120419114468088
4.120419114468088
4.114264642303079
4.114264642303079
4.120419114468088
4.114264642303079
4.114264642303079
4.120419114468088
4.120419114468088
4.12657358663307
4.120419114468088
4.120419114468088
4.114264642303079
4.108110170138069
4.120419114468088
4.114264642303079
4.120419114468088
4.120419114468088
4.108110170138069
4.120419114468088
4.120419114468088
4.114264642303079
4.114264642303079
4.120419114468088
4.120419114468088
4.120419114468088
4.120419114468088
4.114264642303079
4.108110170138069
4.101955697973087
4.108110170138069
4.108110170138069
4.108110170138069
4.108110170138069
4.101955697973087
4.101955697973087
4.101955697973087
4.101955697973087
4.108110170138069
4.101955697973087
4.114264642303079
4.120419114468088
4.12657358663307
4.12657358663307
4.120419114468088
4.114264642303079
4.120419114468088
4.114264642303079
4.120419114468088
4.120419114468088
4.120419114468088
4.114264642303079
4.108110170138069
4.101955697973087
4.108110170138069
4.114264642303079
4.108110170138069
4.114264642303079
4.114264642303079
4.114264642303079
4.108110170138069
4.083492281478085
4.021947559828071
4.108110170138069
4.114264642303079
4.114264642303079
4.114264642303079
4.114264642303079
4.095801225808078
4.089646753643067
4.089646753643067
4.095801225808078
4.101955697973087
4.108110170138069
4.095801225808078
4.089646753643067
4.077337809313075
4.089646753643067
4.114264642303079
4.151191475293081
4.2065817247780855
4.280435390758092
4.348134584573115
4.335825640243124
4.243508557768089
4.1327280587980795
4.065028864983084
4.0465654484880815
4.0465654484880815
4.065028864983084
4.083492281478085
4.089646753643067
4.083492281478085
4.083492281478085
4.083492281478085
4.089646753643067
4.095801225808078
4.095801225808078
4.089646753643067
4.095801225808078
4.095801225808078
4.095801225808078
4.095801225808078
4.095801225808078
4.101955697973087
4.101955697973087
4.101955697973087
4.095801225808078
4.095801225808078
4.108110170138069
4.108110170138069
4.095801225808078
4.095801225808078
4.095801225808078
4.108110170138069
4.101955697973087
4.095801225808078
4.101955697973087
4.108110170138069
4.101955697973087
4.108110170138069
4.108110170138069
4.101955697973087
4.095801225808078
4.101955697973087
4.095801225808078
4.101955697973087
4.101955697973087
4.101955697973087
4.095801225808078
4.101955697973087
4.095801225808078
4.095801225808078
4.101955697973087
4.095801225808078
4.101955697973087
4.101955697973087
4.095801225808078
4.101955697973087
4.095801225808078
4.101955697973087
4.095801225808078
4.095801225808078
4.095801225808078
4.101955697973087
4.101955697973087
4.095801225808078
4.095801225808078
4.108110170138069
4.108110170138069
4.108110170138069
4.108110170138069
4.114264642303079
4.114264642303079
4.101955697973087
4.021947559828071
4.120419114468088
4.145037003128072
4.1327280587980795
4.1327280587980795
4.138882530963089
4.1327280587980795
4.120419114468088
4.101955697973087
4.101955697973087
4.114264642303079
4.114264642303079
4.108110170138069
4.101955697973087
4.108110170138069
4.108110170138069
4.108110170138069
4.114264642303079
4.108110170138069
4.114264642303079
4.101955697973087
4.108110170138069
4.101955697973087
4.108110170138069
4.101955697973087
4.108110170138069
4.108110170138069
4.101955697973087
4.077337809313075
4.015793087663061
4.089646753643067
4.077337809313075
4.077337809313075
4.089646753643067
4.095801225808078
4.089646753643067
4.101955697973087
4.095801225808078
4.095801225808078
4.095801225808078
4.101955697973087
4.101955697973087
4.108110170138069
4.101955697973087
4.108110170138069
4.108110170138069
4.101955697973087
4.101955697973087
4.101955697973087
4.101955697973087
4.101955697973087
4.101955697973087
4.108110170138069
4.108110170138069
4.108110170138069
4.101955697973087
4.108110170138069
4.108110170138069
4.114264642303079
4.114264642303079
4.120419114468088
4.114264642303079
4.114264642303079
4.114264642303079
4.114264642303079
4.114264642303079
4.114264642303079
4.114264642303079
4.114264642303079
4.114264642303079
4.114264642303079
4.114264642303079
4.114264642303079
4.114264642303079
4.120419114468088
4.114264642303079
4.114264642303079
4.114264642303079
4.108110170138069
4.108110170138069
4.120419114468088
4.120419114468088
4.120419114468088
4.120419114468088
4.120419114468088
4.120419114468088
4.114264642303079
4.120419114468088
4.120419114468088
4.120419114468088
4.120419114468088
4.114264642303079
4.114264642303079
4.120419114468088
4.120419114468088
4.12657358663307
4.120419114468088
4.12657358663307
4.12657358663307
4.120419114468088
4.114264642303079
4.120419114468088
4.114264642303079
4.120419114468088
4.12657358663307
4.114264642303079
4.120419114468088
4.12657358663307
4.114264642303079
4.120419114468088
4.120419114468088
4.120419114468088
4.1327280587980795
4.12657358663307
4.12657358663307
4.1327280587980795
4.138882530963089
4.138882530963089
4.145037003128072
4.145037003128072
4.145037003128072
4.138882530963089
4.1327280587980795
4.1327280587980795
4.1327280587980795
4.120419114468088
4.12657358663307
4.120419114468088
4.114264642303079
4.120419114468088
4.120419114468088
4.12657358663307
4.12657358663307
4.108110170138069
4.114264642303079
4.120419114468088
4.114264642303079
4.120419114468088
4.120419114468088
4.114264642303079
4.108110170138069
4.114264642303079
4.108110170138069
4.108110170138069
4.120419114468088
4.114264642303079
4.120419114468088
4.114264642303079
4.108110170138069
4.095801225808078
4.0711833371480655
4.003484143333068
4.108110170138069
4.157345947458091
4.212736196943095
4.27428091859311
4.341980112408105
4.354289056738125
4.3112077515831135
4.1942727804480935
4.089646753643067
4.058874392818074
4.040410976323072
4.052719920653064
4.077337809313075
4.089646753643067
4.095801225808078
4.089646753643067
4.089646753643067
4.095801225808078
4.095801225808078
4.095801225808078
4.095801225808078
4.095801225808078
4.095801225808078
4.095801225808078
4.101955697973087
4.095801225808078
4.108110170138069
4.095801225808078
4.095801225808078
4.101955697973087
4.108110170138069
4.095801225808078
4.101955697973087
4.108110170138069
4.108110170138069
4.108110170138069
4.101955697973087
4.101955697973087
4.101955697973087
4.101955697973087
4.108110170138069
4.108110170138069
4.108110170138069
4.108110170138069
4.095801225808078
4.101955697973087
4.108110170138069
4.114264642303079
4.114264642303079
4.108110170138069
4.114264642303079
4.101955697973087
4.108110170138069
4.101955697973087
4.114264642303079
4.108110170138069
4.114264642303079
4.114264642303079
4.108110170138069
4.108110170138069
4.101955697973087
4.108110170138069
4.101955697973087
4.108110170138069
4.108110170138069
4.101955697973087
4.101955697973087
4.101955697973087
4.101955697973087
4.114264642303079
4.101955697973087
4.108110170138069
4.108110170138069
4.108110170138069
4.114264642303079
4.108110170138069
4.114264642303079
4.120419114468088
4.12657358663307
4.12657358663307
4.12657358663307
4.12657358663307
4.1327280587980795
4.120419114468088
4.1327280587980795
4.12657358663307
4.12657358663307
4.12657358663307
4.114264642303079
4.114264642303079
4.108110170138069
4.108110170138069
4.114264642303079
4.114264642303079
4.114264642303079
4.101955697973087
4.101955697973087
4.101955697973087
4.108110170138069
4.101955697973087
4.101955697973087
4.101955697973087
4.095801225808078
4.101955697973087
4.101955697973087
4.095801225808078
4.101955697973087
4.095801225808078
4.095801225808078
4.101955697973087
4.101955697973087
4.108110170138069
4.101955697973087
4.101955697973087
4.095801225808078
4.095801225808078
4.108110170138069
4.101955697973087
4.101955697973087
4.101955697973087
4.077337809313075
4.009638615498079
4.095801225808078
4.089646753643067
4.089646753643067
4.095801225808078
4.095801225808078
4.095801225808078
4.095801225808078
4.101955697973087
4.089646753643067
4.095801225808078
4.095801225808078
4.095801225808078
4.101955697973087
4.095801225808078
4.095801225808078
4.095801225808078
4.089646753643067
4.101955697973087
4.101955697973087
4.108110170138069
4.101955697973087
4.095801225808078
4.108110170138069
4.108110170138069
4.095801225808078
4.101955697973087
4.095801225808078
4.101955697973087
4.095801225808078
4.095801225808078
4.095801225808078
4.083492281478085
4.083492281478085
4.095801225808078
4.095801225808078
4.095801225808078
4.089646753643067
4.095801225808078
4.095801225808078
4.083492281478085
3.9911751990030497
4.077337809313075
4.114264642303079
4.101955697973087
4.101955697973087
4.101955697973087
4.095801225808078
4.089646753643067
4.077337809313075
4.077337809313075
4.083492281478085
4.089646753643067
4.089646753643067
4.089646753643067
4.089646753643067
4.095801225808078
4.095801225808078
4.101955697973087
4.101955697973087
4.095801225808078
4.095801225808078
4.089646753643067
4.089646753643067
4.089646753643067
4.089646753643067
4.101955697973087
4.095801225808078
4.095801225808078
4.095801225808078
4.108110170138069
4.114264642303079
4.108110170138069
4.120419114468088
4.120419114468088
4.114264642303079
4.108110170138069
4.114264642303079
4.108110170138069
4.114264642303079
4.108110170138069
4.108110170138069
4.095801225808078
4.101955697973087
4.101955697973087
4.101955697973087
4.095801225808078
4.095801225808078
4.089646753643067
4.095801225808078
4.095801225808078
4.095801225808078
4.101955697973087
4.101955697973087
4.101955697973087
4.101955697973087
4.095801225808078
4.095801225808078
4.095801225808078
4.101955697973087
4.101955697973087
4.108110170138069
4.108110170138069
4.101955697973087
4.089646753643067
4.089646753643067
4.108110170138069
4.120419114468088
4.1758093639530935
4.243508557768089
4.323516695913104
4.3727524732331275
4.323516695913104
4.2065817247780855
4.095801225808078
4.052719920653064
4.040410976323072
4.040410976323072
4.065028864983084
4.083492281478085
4.095801225808078
4.077337809313075
4.003484143333068
4.101955697973087
4.101955697973087
4.108110170138069
4.108110170138069
4.089646753643067
4.077337809313075
4.095801225808078
4.089646753643067
4.095801225808078
4.101955697973087
4.101955697973087
4.108110170138069
4.101955697973087
4.108110170138069
4.108110170138069
4.101955697973087
4.101955697973087
4.101955697973087
4.108110170138069
4.108110170138069
4.101955697973087
4.108110170138069
4.114264642303079
4.108110170138069
4.114264642303079
4.108110170138069
4.114264642303079
4.101955697973087
4.101955697973087
4.114264642303079
4.114264642303079
4.120419114468088
4.114264642303079
4.108110170138069
4.114264642303079
4.114264642303079
4.108110170138069
4.120419114468088
4.114264642303079
4.114264642303079
4.114264642303079
4.120419114468088
4.120419114468088
4.108110170138069
4.114264642303079
4.120419114468088
4.114264642303079
4.120419114468088
4.108110170138069
4.108110170138069
4.114264642303079
4.114264642303079
4.108110170138069
4.114264642303079
4.120419114468088
4.120419114468088
4.114264642303079
4.114264642303079
4.120419114468088
4.120419114468088
4.12657358663307
4.1327280587980795
4.12657358663307
4.1327280587980795
4.1327280587980795
4.1327280587980795
4.138882530963089
4.1327280587980795
4.1327280587980795
4.12657358663307
4.12657358663307
4.12657358663307
4.120419114468088
4.120419114468088
4.108110170138069
4.108110170138069
4.114264642303079
4.108110170138069
4.114264642303079
4.114264642303079
4.114264642303079
4.101955697973087
4.101955697973087
4.101955697973087
4.108110170138069
4.108110170138069
4.108110170138069
4.108110170138069
4.101955697973087
4.101955697973087
4.108110170138069
4.108110170138069
4.114264642303079
4.114264642303079
4.108110170138069
4.108110170138069
4.108110170138069
4.108110170138069
4.108110170138069
4.101955697973087
4.108110170138069
4.108110170138069
4.108110170138069
4.114264642303079
4.108110170138069
4.114264642303079
4.101955697973087
4.108110170138069
4.114264642303079
4.114264642303079
4.108110170138069
4.108110170138069
4.120419114468088
4.108110170138069
4.101955697973087
4.114264642303079
4.120419114468088
4.120419114468088
4.120419114468088
4.120419114468088
4.095801225808078
4.021947559828071
4.095801225808078
4.108110170138069
4.101955697973087
4.114264642303079
4.108110170138069
4.114264642303079
4.114264642303079
4.114264642303079
4.108110170138069
4.114264642303079
4.114264642303079
4.114264642303079
4.108110170138069
4.114264642303079
4.108110170138069
4.108110170138069
4.101955697973087
4.114264642303079
4.114264642303079
4.108110170138069
4.114264642303079
4.114264642303079
4.114264642303079
4.114264642303079
4.114264642303079
4.108110170138069
4.114264642303079
4.108110170138069
4.108110170138069
4.108110170138069
4.108110170138069
4.114264642303079
4.108110170138069
4.114264642303079
4.120419114468088
4.114264642303079
4.120419114468088
4.114264642303079
4.114264642303079
4.108110170138069
4.114264642303079
4.108110170138069
4.114264642303079
4.114264642303079
4.120419114468088
4.120419114468088
4.114264642303079
4.101955697973087
4.101955697973087
4.114264642303079
4.1327280587980795
4.12657358663307
4.1327280587980795
4.1327280587980795
4.120419114468088
4.120419114468088
4.12657358663307
4.120419114468088
4.120419114468088
4.120419114468088
4.120419114468088
4.114264642303079
4.101955697973087
4.108110170138069
4.114264642303079
4.114264642303079
4.114264642303079
4.108110170138069
4.114264642303079
4.114264642303079
4.108110170138069
4.114264642303079
4.108110170138069
4.108110170138069
4.108110170138069
4.108110170138069
4.114264642303079
4.108110170138069
4.108110170138069
4.108110170138069
4.108110170138069
4.114264642303079
4.114264642303079
4.114264642303079
4.114264642303079
4.1327280587980795
4.157345947458091
4.2065817247780855
4.280435390758092
4.354289056738125
4.354289056738125
4.255817502098108
4.1327280587980795
4.058874392818074
4.021947559828071
4.028102031993082
4.058874392818074
4.077337809313075
4.089646753643067
4.095801225808078
4.095801225808078
4.089646753643067
4.083492281478085
4.089646753643067
4.095801225808078
4.089646753643067
4.095801225808078
4.101955697973087
4.089646753643067
4.095801225808078
4.003484143333068
4.077337809313075
4.108110170138069
4.108110170138069
4.108110170138069
4.108110170138069
4.108110170138069
4.101955697973087
4.089646753643067
4.089646753643067
4.077337809313075
4.015793087663061
4.101955697973087
4.108110170138069
4.108110170138069
4.108110170138069
4.083492281478085
4.089646753643067
4.101955697973087
4.101955697973087
4.114264642303079
4.108110170138069
4.108110170138069
4.108110170138069
4.101955697973087
4.108110170138069
4.114264642303079
4.114264642303079
4.108110170138069
4.114264642303079
4.114264642303079
4.101955697973087
4.114264642303079
4.101955697973087
4.108110170138069
4.101955697973087
4.101955697973087
4.114264642303079
4.108110170138069
4.101955697973087
4.101955697973087
4.114264642303079
4.114264642303079
4.108110170138069
4.114264642303079
4.120419114468088
4.120419114468088
4.120419114468088
4.12657358663307
4.145037003128072
4.145037003128072
4.151191475293081
4.151191475293081
4.145037003128072
4.12657358663307
4.120419114468088
4.1327280587980795
4.138882530963089
4.138882530963089
4.1327280587980795
4.12657358663307
4.120419114468088
4.120419114468088
4.108110170138069
4.120419114468088
4.120419114468088
4.120419114468088
4.114264642303079
4.114264642303079
4.114264642303079
4.108110170138069
4.101955697973087
4.108110170138069
4.108110170138069
4.114264642303079
4.101955697973087
4.114264642303079
4.114264642303079
4.101955697973087
4.108110170138069
4.114264642303079
4.114264642303079
4.108110170138069
4.114264642303079
4.108110170138069
4.108110170138069
4.108110170138069
4.114264642303079
4.120419114468088
4.114264642303079
4.114264642303079
4.120419114468088
4.120419114468088
4.108110170138069
4.101955697973087
4.108110170138069
4.114264642303079
4.108110170138069
4.108110170138069
4.108110170138069
4.114264642303079
4.108110170138069
4.108110170138069
4.108110170138069
4.114264642303079
4.108110170138069
4.108110170138069
4.114264642303079
4.114264642303079
4.108110170138069
4.108110170138069
4.114264642303079
4.114264642303079
4.108110170138069
4.108110170138069
4.108110170138069
4.120419114468088
4.114264642303079
4.108110170138069
4.108110170138069
4.108110170138069
4.114264642303079
4.108110170138069
4.108110170138069
4.114264642303079
4.101955697973087
4.108110170138069
4.114264642303079
4.114264642303079
4.101955697973087
4.101955697973087
4.101955697973087
4.077337809313075
4.003484143333068
4.083492281478085
4.101955697973087
4.101955697973087
4.108110170138069
4.101955697973087
4.114264642303079
4.114264642303079
4.101955697973087
4.114264642303079
4.114264642303079
4.108110170138069
4.108110170138069
4.108110170138069
4.108110170138069
4.108110170138069
4.101955697973087
4.114264642303079
4.114264642303079
4.108110170138069
4.114264642303079
4.114264642303079
4.114264642303079
4.120419114468088
4.120419114468088
4.12657358663307
4.1327280587980795
4.12657358663307
4.12657358663307
4.12657358663307
4.120419114468088
4.120419114468088
4.114264642303079
4.120419114468088
4.114264642303079
4.108110170138069
4.114264642303079
4.114264642303079
4.114264642303079
4.108110170138069
4.114264642303079
4.108110170138069
4.114264642303079
4.108110170138069
4.114264642303079
4.114264642303079
4.108110170138069
4.101955697973087
4.101955697973087
4.108110170138069
4.114264642303079
4.101955697973087
4.108110170138069
4.101955697973087
4.108110170138069
4.101955697973087
4.095801225808078
4.095801225808078
4.101955697973087
4.120419114468088
4.145037003128072
4.2065817247780855
4.280435390758092
4.335825640243124
4.329671168078114
4.231199613438097
4.114264642303079
4.052719920653064
4.021947559828071
4.021947559828071
4.028102031993082
4.052719920653064
4.077337809313075
4.083492281478085
4.083492281478085
4.083492281478085
4.083492281478085
4.089646753643067
4.083492281478085
4.089646753643067
4.095801225808078
4.095801225808078
4.089646753643067
4.095801225808078
4.101955697973087
4.095801225808078
4.095801225808078
4.095801225808078
4.101955697973087
4.101955697973087
4.095801225808078
4.095801225808078
4.101955697973087
4.101955697973087
4.108110170138069
4.108110170138069
4.108110170138069
4.114264642303079
4.101955697973087
4.114264642303079
4.101955697973087
4.108110170138069
4.108110170138069
4.095801225808078
4.108110170138069
4.108110170138069
4.108110170138069
4.108110170138069
4.108110170138069
4.101955697973087
4.101955697973087
4.108110170138069
4.108110170138069
4.108110170138069
4.114264642303079
4.108110170138069
4.114264642303079
4.108110170138069
4.101955697973087
4.101955697973087
4.101955697973087
4.083492281478085
4.015793087663061
4.108110170138069
4.12657358663307
4.120419114468088
4.101955697973087
4.095801225808078
4.108110170138069
4.108110170138069
4.114264642303079
4.114264642303079
4.120419114468088
4.12657358663307
4.120419114468088
4.120419114468088
4.1327280587980795
4.138882530963089
4.1327280587980795
4.138882530963089
4.12657358663307
4.1327280587980795
4.120419114468088
4.12657358663307
4.120419114468088
4.120419114468088
4.120419114468088
4.120419114468088
4.120419114468088
4.108110170138069
4.101955697973087
4.114264642303079
4.114264642303079
4.101955697973087
4.108110170138069
4.108110170138069
4.108110170138069
4.095801225808078
4.095801225808078
4.101955697973087
4.101955697973087
4.108110170138069
4.108110170138069
4.101955697973087
4.101955697973087
4.101955697973087
4.101955697973087
4.095801225808078
4.101955697973087
4.095801225808078
4.095801225808078
4.101955697973087
4.095801225808078
4.095801225808078
4.101955697973087
4.101955697973087
4.101955697973087
4.101955697973087
4.101955697973087
4.108110170138069
4.101955697973087
4.009638615498079
4.052719920653064
4.120419114468088
4.114264642303079
4.108110170138069
4.108110170138069
4.108110170138069
4.101955697973087
4.083492281478085
4.083492281478085
4.095801225808078
4.089646753643067
4.089646753643067
4.101955697973087
4.095801225808078
4.089646753643067
4.089646753643067
4.101955697973087
4.095801225808078
4.101955697973087
4.108110170138069
4.108110170138069
4.114264642303079
4.101955697973087
4.101955697973087
4.108110170138069
4.101955697973087
4.108110170138069
4.108110170138069
4.114264642303079
4.101955697973087
4.095801225808078
4.101955697973087
4.101955697973087
4.108110170138069
4.095801225808078
4.101955697973087
4.095801225808078
4.095801225808078
4.095801225808078
4.101955697973087
4.108110170138069
4.108110170138069
4.108110170138069
4.101955697973087
4.108110170138069
4.101955697973087
4.101955697973087
4.108110170138069
4.101955697973087
4.095801225808078
4.108110170138069
4.108110170138069
4.101955697973087
4.101955697973087
4.095801225808078
4.108110170138069
4.108110170138069
4.108110170138069
4.108110170138069
4.108110170138069
4.108110170138069
4.083492281478085
4.009638615498079
4.12657358663307
4.138882530963089
4.138882530963089
4.138882530963089
4.138882530963089
4.12657358663307
4.120419114468088
4.101955697973087
4.101955697973087
4.108110170138069
4.114264642303079
4.114264642303079
4.108110170138069
4.114264642303079
4.114264642303079
4.108110170138069
4.114264642303079
4.114264642303079
4.114264642303079
4.114264642303079
4.114264642303079
4.120419114468088
4.114264642303079
4.108110170138069
4.108110170138069
4.114264642303079
4.108110170138069
4.108110170138069
4.108110170138069
4.108110170138069
4.101955697973087
4.101955697973087
4.101955697973087
4.095801225808078
4.089646753643067
4.095801225808078
4.108110170138069
4.151191475293081
4.2065817247780855
4.2865898629231
4.360443528903107
4.354289056738125
4.255817502098108
4.1327280587980795
4.058874392818074
4.034256504158063
4.034256504158063
4.058874392818074
4.083492281478085
4.095801225808078
4.101955697973087
4.101955697973087
4.089646753643067
4.095801225808078
4.089646753643067
4.095801225808078
4.095801225808078
4.095801225808078
4.101955697973087
4.101955697973087
4.101955697973087
4.101955697973087
4.095801225808078
4.101955697973087
4.101955697973087
4.101955697973087
4.114264642303079
4.108110170138069
4.108110170138069
4.101955697973087
4.108110170138069
4.108110170138069
4.114264642303079
4.108110170138069
4.120419114468088
4.108110170138069
4.114264642303079
4.108110170138069
4.114264642303079
4.108110170138069
4.114264642303079
4.120419114468088
4.120419114468088
4.120419114468088
4.120419114468088
4.114264642303079
4.108110170138069
4.114264642303079
4.120419114468088
4.108110170138069
4.114264642303079
4.114264642303079
4.108110170138069
4.108110170138069
4.108110170138069
4.108110170138069
4.108110170138069
4.108110170138069
4.108110170138069
4.108110170138069
4.101955697973087
4.095801225808078
4.114264642303079
4.114264642303079
4.114264642303079
4.108110170138069
4.114264642303079
4.114264642303079
4.114264642303079
4.120419114468088
4.120419114468088
4.120419114468088
4.12657358663307
4.1327280587980795
4.1327280587980795
4.12657358663307
4.1327280587980795
4.120419114468088
4.12657358663307
4.12657358663307
4.101955697973087
4.028102031993082
4.120419114468088
4.120419114468088
4.108110170138069
4.095801225808078
4.095801225808078
4.101955697973087
4.101955697973087
4.101955697973087
4.095801225808078
4.101955697973087
4.095801225808078
4.089646753643067
4.101955697973087
4.095801225808078
4.095801225808078
4.101955697973087
4.101955697973087
4.101955697973087
4.095801225808078
4.089646753643067
4.095801225808078
4.095801225808078
4.101955697973087
4.101955697973087
4.095801225808078
4.095801225808078
4.095801225808078
4.101955697973087
4.101955697973087
4.095801225808078
4.095801225808078
4.101955697973087
4.095801225808078
4.101955697973087
4.089646753643067
4.101955697973087
4.101955697973087
4.108110170138069
4.108110170138069
4.101955697973087
4.101955697973087
4.095801225808078
4.095801225808078
4.108110170138069
4.108110170138069
4.108110170138069
4.108110170138069
4.108110170138069
4.101955697973087
4.108110170138069
4.101955697973087
4.108110170138069
4.101955697973087
4.101955697973087
4.101955697973087
4.114264642303079
4.101955697973087
4.101955697973087
4.108110170138069
4.108110170138069
4.101955697973087
4.108110170138069
4.108110170138069
4.114264642303079
4.108110170138069
4.108110170138069
4.101955697973087
4.108110170138069
4.108110170138069
4.108110170138069
4.108110170138069
4.114264642303079
4.108110170138069
4.101955697973087
4.101955697973087
4.108110170138069
4.114264642303079
4.114264642303079
4.108110170138069
4.108110170138069
4.108110170138069
4.101955697973087
4.108110170138069
4.101955697973087
4.108110170138069
4.101955697973087
4.108110170138069
4.108110170138069
4.095801225808078
4.095801225808078
4.108110170138069
4.108110170138069
4.108110170138069
4.108110170138069
4.101955697973087
4.101955697973087
4.108110170138069
4.108110170138069
4.101955697973087
4.101955697973087
4.101955697973087
4.108110170138069
4.114264642303079
4.12657358663307
4.120419114468088
4.120419114468088
4.12657358663307
4.12657358663307
4.12657358663307
4.120419114468088
4.114264642303079
4.120419114468088
4.108110170138069
4.101955697973087
4.108110170138069
4.114264642303079
4.108110170138069
4.108110170138069
4.108110170138069
4.101955697973087
4.083492281478085
4.003484143333068
4.108110170138069
4.120419114468088
4.108110170138069
4.114264642303079
4.108110170138069
4.114264642303079
4.021947559828071
4.034256504158063
4.120419114468088
4.120419114468088
4.120419114468088
4.120419114468088
4.114264642303079
4.108110170138069
4.0711833371480655
4.077337809313075
4.095801225808078
4.12657358663307
4.1758093639530935
4.243508557768089
4.329671168078114
4.366598001068117
4.3112077515831135
4.1942727804480935
4.095801225808078
4.0465654484880815
4.028102031993082
4.0465654484880815
4.065028864983084
4.077337809313075
4.083492281478085
4.095801225808078
4.089646753643067
4.089646753643067
4.089646753643067
4.095801225808078
4.089646753643067
4.089646753643067
4.095801225808078
4.101955697973087
4.101955697973087
4.108110170138069
4.108110170138069
4.108110170138069
4.108110170138069
4.095801225808078
4.108110170138069
4.108110170138069
4.114264642303079
4.114264642303079
4.114264642303079
4.108110170138069
4.114264642303079
4.108110170138069
4.114264642303079
4.108110170138069
4.120419114468088
4.114264642303079
4.114264642303079
4.114264642303079
4.108110170138069
4.114264642303079
4.108110170138069
4.114264642303079
4.120419114468088
4.120419114468088
4.114264642303079
4.120419114468088
4.120419114468088
4.108110170138069
4.114264642303079
4.12657358663307
4.12657358663307
4.12657358663307
4.120419114468088
4.114264642303079
4.120419114468088
4.108110170138069
4.114264642303079
4.114264642303079
4.120419114468088
4.120419114468088
4.114264642303079
4.120419114468088
4.114264642303079
4.114264642303079
4.12657358663307
4.120419114468088
4.12657358663307
4.12657358663307
4.12657358663307
4.12657358663307
4.1327280587980795
4.1327280587980795
4.138882530963089
4.138882530963089
4.145037003128072
4.138882530963089
4.145037003128072
4.145037003128072
4.1327280587980795
4.12657358663307
4.138882530963089
4.1327280587980795
4.1327280587980795
4.120419114468088
4.120419114468088
4.12657358663307
4.120419114468088
4.114264642303079
4.120419114468088
4.108110170138069
4.108110170138069
4.114264642303079
4.108110170138069
4.108110170138069
4.108110170138069
4.108110170138069
4.114264642303079
4.114264642303079
4.083492281478085
4.009638615498079
4.114264642303079
4.12657358663307
4.095801225808078
4.095801225808078
4.101955697973087
4.101955697973087
4.108110170138069
4.114264642303079
4.114264642303079
4.114264642303079
4.108110170138069
4.120419114468088
4.114264642303079
4.114264642303079
4.120419114468088
4.120419114468088
4.120419114468088
4.114264642303079
4.108110170138069
4.114264642303079
4.120419114468088
4.114264642303079
4.120419114468088
4.114264642303079
4.120419114468088
4.120419114468088
4.114264642303079
4.120419114468088
4.120419114468088
4.114264642303079
4.12657358663307
4.120419114468088
4.12657358663307
4.114264642303079
4.114264642303079
4.120419114468088
4.120419114468088
4.120419114468088
4.12657358663307
4.12657358663307
4.120419114468088
4.108110170138069
4.120419114468088
4.120419114468088
4.120419114468088
4.114264642303079
4.120419114468088
4.120419114468088
4.114264642303079
4.120419114468088
4.120419114468088
4.12657358663307
4.120419114468088
4.12657358663307
4.12657358663307
4.12657358663307
4.120419114468088
4.114264642303079
4.12657358663307
4.12657358663307
4.12657358663307
4.12657358663307
4.12657358663307
4.1327280587980795
4.120419114468088
4.120419114468088
4.120419114468088
4.120419114468088
4.12657358663307
4.12657358663307
4.12657358663307
4.120419114468088
4.120419114468088
4.120419114468088
4.1327280587980795
4.12657358663307
4.120419114468088
4.12657358663307
4.12657358663307
4.12657358663307
4.120419114468088
4.120419114468088
4.1327280587980795
4.1327280587980795
4.12657358663307
4.1327280587980795
4.138882530963089
4.145037003128072
4.145037003128072
4.151191475293081
4.145037003128072
4.145037003128072
4.138882530963089
4.138882530963089
4.138882530963089
4.138882530963089
4.12657358663307
4.1327280587980795
4.12657358663307
4.12657358663307
4.114264642303079
4.120419114468088
4.120419114468088
4.12657358663307
4.12657358663307
4.120419114468088
4.120419114468088
4.12657358663307
4.12657358663307
4.12657358663307
4.12657358663307
4.120419114468088
4.108110170138069
4.120419114468088
4.120419114468088
4.120419114468088
4.120419114468088
4.12657358663307
4.12657358663307
4.114264642303079
4.083492281478085
4.009638615498079
4.101955697973087
4.120419114468088
4.151191475293081
4.200427252613103
4.27428091859311
4.354289056738125
4.354289056738125
4.298898807253093
4.169654891788083
4.077337809313075
4.040410976323072
4.034256504158063
4.0465654484880815
4.065028864983084
4.089646753643067
4.095801225808078
4.095801225808078
4.095801225808078
4.101955697973087
4.101955697973087
4.101955697973087
4.095801225808078
4.095801225808078
4.108110170138069
4.114264642303079
4.108110170138069
4.108110170138069
4.114264642303079
4.114264642303079
4.101955697973087
4.108110170138069
4.108110170138069
4.114264642303079
4.108110170138069
4.108110170138069
4.114264642303079
4.114264642303079
4.108110170138069
4.114264642303079
4.114264642303079
4.120419114468088
4.114264642303079
4.114264642303079
4.12657358663307
4.120419114468088
4.114264642303079
4.12657358663307
4.12657358663307
4.120419114468088
4.12657358663307
4.12657358663307
4.12657358663307
4.12657358663307
4.120419114468088
4.120419114468088
4.12657358663307
4.120419114468088
4.12657358663307
4.120419114468088
4.12657358663307
4.1327280587980795
4.120419114468088
4.114264642303079
4.120419114468088
4.120419114468088
4.12657358663307
4.12657358663307
4.1327280587980795
4.120419114468088
4.12657358663307
4.1327280587980795
4.1327280587980795
4.138882530963089
4.138882530963089
4.138882530963089
4.145037003128072
4.083492281478085
4.0711833371480655
4.163500419623101
4.169654891788083
4.169654891788083
4.163500419623101
4.169654891788083
4.157345947458091
4.1327280587980795
4.1327280587980795
4.138882530963089
4.138882530963089
4.1327280587980795
4.138882530963089
4.1327280587980795
4.12657358663307
4.120419114468088
4.12657358663307
4.1327280587980795
4.120419114468088
4.120419114468088
4.12657358663307
4.12657358663307
4.12657358663307
4.120419114468088
4.120419114468088
4.120419114468088
4.12657358663307
4.12657358663307
4.1327280587980795
4.1327280587980795
4.120419114468088
4.114264642303079
4.120419114468088
4.120419114468088
4.120419114468088
4.12657358663307
4.1327280587980795
4.1327280587980795
4.12657358663307
4.1327280587980795
4.1327280587980795
4.1327280587980795
4.12657358663307
4.083492281478085
4.003484143333068
4.120419114468088
4.138882530963089
4.114264642303079
4.12657358663307
4.145037003128072
4.145037003128072
4.138882530963089
4.1327280587980795
4.1327280587980795
4.120419114468088
4.12657358663307
4.120419114468088
4.114264642303079
4.114264642303079
4.108110170138069
4.108110170138069
4.108110170138069
4.101955697973087
4.114264642303079
4.101955697973087
4.040410976323072
4.058874392818074
4.12657358663307
4.151191475293081
4.114264642303079
4.095801225808078
4.120419114468088
4.1327280587980795
4.101955697973087
4.101955697973087
4.1327280587980795
4.12657358663307
4.12657358663307
4.12657358663307
4.12657358663307
4.120419114468088
4.114264642303079
4.120419114468088
4.1327280587980795
4.120419114468088
4.120419114468088
4.114264642303079
4.120419114468088
4.114264642303079
4.114264642303079
4.114264642303079
4.12657358663307
4.12657358663307
4.108110170138069
4.120419114468088
4.12657358663307
4.108110170138069
4.114264642303079
4.12657358663307
4.138882530963089
4.145037003128072
4.1327280587980795
4.1327280587980795
4.12657358663307
4.12657358663307
4.1327280587980795
4.12657358663307
4.12657358663307
4.120419114468088
4.120419114468088
4.120419114468088
4.12657358663307
4.12657358663307
4.120419114468088
4.12657358663307
4.12657358663307
4.12657358663307
4.12657358663307
4.1327280587980795
4.151191475293081
4.151191475293081
4.157345947458091
4.151191475293081
4.151191475293081
4.145037003128072
4.138882530963089
4.138882530963089
4.138882530963089
4.138882530963089
4.1327280587980795
4.1327280587980795
4.120419114468088
4.12657358663307
4.12657358663307
4.138882530963089
4.1327280587980795
4.1327280587980795
4.12657358663307
4.120419114468088
4.12657358663307
4.120419114468088
4.12657358663307
4.12657358663307
4.120419114468088
4.101955697973087
4.114264642303079
4.1327280587980795
4.1327280587980795
4.120419114468088
4.114264642303079
4.12657358663307
4.12657358663307
4.114264642303079
4.108110170138069
4.108110170138069
4.12657358663307
4.151191475293081
4.218890669108104
4.3112077515831135
4.385061417563119
4.3727524732331275
4.261971974263091
4.138882530963089
4.0711833371480655
4.0465654484880815
4.021947559828071
3.9665573103430654
4.089646753643067
4.108110170138069
4.108110170138069
4.101955697973087
4.089646753643067
4.0711833371480655
4.077337809313075
4.077337809313075
4.089646753643067
4.108110170138069
4.101955697973087
4.101955697973087
4.095801225808078
4.095801225808078
4.101955697973087
4.108110170138069
4.095801225808078
4.095801225808078
4.095801225808078
4.101955697973087
4.101955697973087
4.101955697973087
4.108110170138069
4.114264642303079
4.120419114468088
4.114264642303079
4.108110170138069
4.108110170138069
4.108110170138069
4.101955697973087
4.114264642303079
4.108110170138069
4.108110170138069
4.108110170138069
4.114264642303079
4.114264642303079
4.101955697973087
4.108110170138069
4.101955697973087
4.108110170138069
4.108110170138069
4.114264642303079
4.114264642303079
4.114264642303079
4.101955697973087
4.108110170138069
4.108110170138069
4.101955697973087
4.108110170138069
4.108110170138069
4.101955697973087
4.108110170138069
4.101955697973087
4.101955697973087
4.108110170138069
4.101955697973087
4.101955697973087
4.114264642303079
4.114264642303079
4.108110170138069
4.114264642303079
4.114264642303079
4.114264642303079
4.120419114468088
4.12657358663307
4.12657358663307
4.1327280587980795
4.12657358663307
4.120419114468088
4.138882530963089
4.12657358663307
4.120419114468088
4.120419114468088
4.12657358663307
4.120419114468088
4.101955697973087
4.101955697973087
4.108110170138069
4.108110170138069
4.114264642303079
4.108110170138069
4.095801225808078
4.095801225808078
4.095801225808078
4.101955697973087
4.083492281478085
4.089646753643067
4.101955697973087
4.114264642303079
4.095801225808078
4.083492281478085
4.077337809313075
4.089646753643067
4.101955697973087
4.114264642303079
4.101955697973087
4.095801225808078
4.101955697973087
4.101955697973087
4.095801225808078
4.089646753643067
4.089646753643067
4.089646753643067
4.095801225808078
4.114264642303079
4.108110170138069
4.108110170138069
4.095801225808078
4.108110170138069
4.108110170138069
4.108110170138069
4.108110170138069
4.108110170138069
4.114264642303079
4.114264642303079
4.108110170138069
4.114264642303079
4.120419114468088
4.12657358663307
4.120419114468088
4.089646753643067
4.021947559828071
4.120419114468088
4.108110170138069
4.108110170138069
4.120419114468088
4.120419114468088
4.120419114468088
4.12657358663307
4.120419114468088
4.120419114468088
4.114264642303079
4.114264642303079
4.114264642303079
4.114264642303079
4.114264642303079
4.120419114468088
4.114264642303079
4.108110170138069
4.120419114468088
4.114264642303079
4.114264642303079
4.114264642303079
4.120419114468088
4.114264642303079
4.12657358663307
4.083492281478085
4.015793087663061
4.1327280587980795
4.138882530963089
4.1327280587980795
4.1327280587980795
4.1327280587980795
4.1327280587980795
4.108110170138069
4.101955697973087
4.114264642303079
4.114264642303079
4.114264642303079
4.108110170138069
4.108110170138069
4.108110170138069
4.108110170138069
4.114264642303079
4.120419114468088
4.114264642303079
4.108110170138069
4.108110170138069
4.114264642303079
4.120419114468088
4.114264642303079
4.114264642303079
4.120419114468088
4.114264642303079
4.120419114468088
4.114264642303079
4.114264642303079
4.108110170138069
4.108110170138069
4.114264642303079
4.114264642303079
4.120419114468088
4.114264642303079
4.114264642303079
4.120419114468088
4.12657358663307
4.12657358663307
4.138882530963089
4.1327280587980795
4.1327280587980795
4.12657358663307
4.12657358663307
4.1327280587980795
4.120419114468088
4.120419114468088
4.120419114468088
4.120419114468088
4.114264642303079
4.114264642303079
4.114264642303079
4.114264642303079
4.101955697973087
4.114264642303079
4.108110170138069
4.108110170138069
4.114264642303079
4.108110170138069
4.108110170138069
4.114264642303079
4.108110170138069
4.101955697973087
4.114264642303079
4.114264642303079
4.108110170138069
4.114264642303079
4.114264642303079
4.108110170138069
4.101955697973087
4.095801225808078
4.089646753643067
4.089646753643067
4.101955697973087
4.120419114468088
4.169654891788083
4.237354085603107
4.3112077515831135
4.366598001068117
4.323516695913104
4.2065817247780855
4.095801225808078
4.0465654484880815
4.021947559828071
4.028102031993082
4.052719920653064
4.083492281478085
4.095801225808078
4.089646753643067
4.095801225808078
4.089646753643067
4.089646753643067
4.095801225808078
4.095801225808078
4.077337809313075
4.009638615498079
4.101955697973087
4.108110170138069
4.101955697973087
4.108110170138069
4.089646753643067
4.077337809313075
4.083492281478085
4.095801225808078
4.095801225808078
4.101955697973087
4.095801225808078
4.101955697973087
4.095801225808078
4.108110170138069
4.108110170138069
4.114264642303079
4.108110170138069
4.114264642303079
4.114264642303079
4.120419114468088
4.108110170138069
4.114264642303079
4.120419114468088
4.120419114468088
4.114264642303079
4.120419114468088
4.12657358663307
4.1327280587980795
4.151191475293081
4.163500419623101
4.1758093639530935
4.1758093639530935
4.169654891788083
4.163500419623101
4.163500419623101
4.163500419623101
4.145037003128072
4.157345947458091
4.163500419623101
4.151191475293081
4.157345947458091
4.157345947458091
4.157345947458091
4.151191475293081
4.151191475293081
4.157345947458091
4.157345947458091
4.169654891788083
4.1758093639530935
4.181963836118102
4.188118308283084
4.2065817247780855
4.225045141273086
4.305053279418103
4.397370361893111
4.5327687495231315
4.625085831998166
4.68047608148317
4.735866330968175
4.760484219628157
4.785102108288171
4.809719996948181
4.822028941278172
4.834337885608192
4.846646829938185
4.840492357773174
4.840492357773174
4.809719996948181
4.7912565804531795
4.760484219628157
4.723557386638155
4.698939497978172
4.68047608148317
4.6435492484931675
4.514305333028129
4.428142722718132
4.428142722718132
4.40967930622313
4.335825640243124
4.2065817247780855
4.120419114468088
4.0711833371480655
4.040410976323072
4.021947559828071
4.009638615498079
4.003484143333068
3.9788662546730578
3.9542483660130467
3.9419394216830552
3.9419394216830552
3.9419394216830552
3.9419394216830552
3.948093893848065
3.9542483660130467
3.948093893848065
3.9604028381780574
3.9604028381780574
3.9604028381780574
3.9604028381780574
3.9542483660130467
3.9665573103430654
3.9727117825080476
3.9665573103430654
3.9665573103430654
3.9788662546730578
3.9727117825080476
3.9727117825080476
3.9727117825080476
3.9788662546730578
3.9850207268380675
3.9788662546730578
3.9788662546730578
3.9850207268380675
3.9911751990030497
3.9850207268380675
3.9788662546730578
3.9850207268380675
3.9850207268380675
3.9850207268380675
3.9973296711680604
3.9665573103430654
3.8927036443630603
3.9850207268380675
3.9788662546730578
3.9911751990030497
3.9973296711680604
3.9973296711680604
4.003484143333068
4.009638615498079
4.003484143333068
4.003484143333068
4.003484143333068
4.015793087663061
4.015793087663061
4.015793087663061
4.021947559828071
4.015793087663061
4.021947559828071
4.009638615498079
4.021947559828071
4.021947559828071
4.021947559828071
4.028102031993082
4.028102031993082
4.028102031993082
4.021947559828071
4.021947559828071
4.028102031993082
4.040410976323072
4.040410976323072
4.034256504158063
4.034256504158063
4.034256504158063
4.034256504158063
4.040410976323072
4.040410976323072
4.040410976323072
4.040410976323072
4.0465654484880815
4.052719920653064
4.0465654484880815
4.040410976323072
4.0465654484880815
4.058874392818074
4.058874392818074
4.052719920653064
4.058874392818074
4.058874392818074
4.052719920653064
4.052719920653064
4.058874392818074
4.058874392818074
4.058874392818074
4.065028864983084
4.065028864983084
4.058874392818074
4.065028864983084
4.0711833371480655
4.083492281478085
4.083492281478085
4.089646753643067
4.089646753643067
4.077337809313075
4.083492281478085
4.077337809313075
4.077337809313075
4.083492281478085
4.083492281478085
4.0711833371480655
4.0711833371480655
4.0711833371480655
4.077337809313075
4.065028864983084
4.058874392818074
4.077337809313075
4.077337809313075
4.0711833371480655
4.0711833371480655
4.0711833371480655
4.0711833371480655
4.0711833371480655
4.0711833371480655
4.077337809313075
4.077337809313075
4.083492281478085
4.077337809313075
4.083492281478085
4.083492281478085
4.077337809313075
4.0711833371480655
4.077337809313075
4.077337809313075
4.065028864983084
4.065028864983084
4.077337809313075
4.101955697973087
4.12657358663307
4.114264642303079
4.2865898629231
4.348134584573115
4.298898807253093
4.181963836118102
4.083492281478085
4.028102031993082
4.003484143333068
3.9973296711680604
4.034256504158063
4.052719920653064
4.065028864983084
4.0711833371480655
4.0711833371480655
4.077337809313075
4.077337809313075
4.083492281478085
4.083492281478085
4.089646753643067
4.089646753643067
4.089646753643067
4.089646753643067
4.083492281478085
4.089646753643067
4.095801225808078
4.0711833371480655
4.009638615498079
4.101955697973087
4.120419114468088
4.120419114468088
4.108110170138069
4.083492281478085
4.089646753643067
4.095801225808078
4.095801225808078
4.101955697973087
4.108110170138069
4.095801225808078
4.101955697973087
4.101955697973087
4.101955697973087
4.095801225808078
4.095801225808078
4.101955697973087
4.108110170138069
4.108110170138069
4.095801225808078
4.101955697973087
4.108110170138069
4.101955697973087
4.108110170138069
4.114264642303079
4.108110170138069
4.108110170138069
4.108110170138069
4.114264642303079
4.108110170138069
4.108110170138069
4.108110170138069
4.108110170138069
4.108110170138069
4.114264642303079
4.101955697973087
4.114264642303079
4.120419114468088
4.114264642303079
4.114264642303079
4.114264642303079
4.120419114468088
4.120419114468088
4.120419114468088
4.120419114468088
4.12657358663307
4.1327280587980795
4.1327280587980795
4.138882530963089
4.138882530963089
4.1327280587980795
4.1327280587980795
4.12657358663307
4.1327280587980795
4.12657358663307
4.120419114468088
4.12657358663307
4.120419114468088
4.114264642303079
4.114264642303079
4.114264642303079
4.108110170138069
4.101955697973087
4.108110170138069
4.114264642303079
4.101955697973087
4.108110170138069
4.095801225808078
4.108110170138069
4.108110170138069
4.108110170138069
4.101955697973087
4.108110170138069
4.101955697973087
4.101955697973087
4.101955697973087
4.114264642303079
4.108110170138069
4.108110170138069
4.108110170138069
4.114264642303079
4.114264642303079
4.108110170138069
4.108110170138069
4.108110170138069
4.114264642303079
4.120419114468088
4.114264642303079
4.120419114468088
4.114264642303079
4.108110170138069
4.120419114468088
4.120419114468088
4.114264642303079
4.114264642303079
4.114264642303079
4.120419114468088
4.120419114468088
4.108110170138069
4.120419114468088
4.120419114468088
4.120419114468088
4.114264642303079
4.120419114468088
4.114264642303079
4.120419114468088
4.108110170138069
4.114264642303079
4.114264642303079
4.120419114468088
4.114264642303079
4.114264642303079
4.114264642303079
4.114264642303079
4.114264642303079
4.120419114468088
4.114264642303079
4.114264642303079
4.114264642303079
4.114264642303079
4.083492281478085
4.009638615498079
4.083492281478085
4.101955697973087
4.101955697973087
4.108110170138069
4.114264642303079
4.108110170138069
4.108110170138069
4.101955697973087
4.101955697973087
4.108110170138069
4.108110170138069
4.114264642303079
4.108110170138069
4.108110170138069
4.114264642303079
4.101955697973087
4.108110170138069
4.108110170138069
4.108110170138069
4.108110170138069
4.120419114468088
4.120419114468088
4.114264642303079
4.108110170138069
4.114264642303079
4.108110170138069
4.120419114468088
4.114264642303079
4.114264642303079
4.120419114468088
4.120419114468088
4.108110170138069
4.114264642303079
4.120419114468088
4.120419114468088
4.120419114468088
4.120419114468088
4.12657358663307
4.120419114468088
4.120419114468088
4.120419114468088
4.12657358663307
4.12657358663307
4.12657358663307
4.120419114468088
4.120419114468088
4.120419114468088
4.120419114468088
4.12657358663307
4.1327280587980795
4.12657358663307
4.1327280587980795
4.12657358663307
4.138882530963089
4.138882530963089
4.1327280587980795
4.151191475293081
4.138882530963089
4.138882530963089
4.138882530963089
4.145037003128072
4.138882530963089
4.145037003128072
4.145037003128072
4.1327280587980795
4.12657358663307
4.1327280587980795
4.1327280587980795
4.138882530963089
4.1327280587980795
4.12657358663307
4.12657358663307
4.1327280587980795
4.12657358663307
4.1327280587980795
4.1327280587980795
4.12657358663307
4.1327280587980795
4.120419114468088
4.120419114468088
4.12657358663307
4.1327280587980795
4.138882530963089
4.1327280587980795
4.1327280587980795
4.138882530963089
4.12657358663307
4.12657358663307
4.120419114468088
4.12657358663307
4.1327280587980795
4.169654891788083
4.231199613438097
4.305053279418103
4.3727524732331275
4.40352483405812
4.3173622237481215
4.188118308283084
4.108110170138069
4.065028864983084
4.058874392818074
4.077337809313075
4.089646753643067
4.120419114468088
4.120419114468088
4.120419114468088
4.12657358663307
4.120419114468088
4.12657358663307
4.12657358663307
4.12657358663307
4.12657358663307
4.1327280587980795
4.138882530963089
4.1327280587980795
4.138882530963089
4.138882530963089
4.1327280587980795
4.1327280587980795
4.1327280587980795
4.114264642303079
4.0465654484880815
4.145037003128072
4.145037003128072
4.145037003128072
4.12657358663307
4.114264642303079
4.12657358663307
4.1327280587980795
4.1327280587980795
4.1327280587980795
4.1327280587980795
4.1327280587980795
4.12657358663307
4.1327280587980795
4.1327280587980795
4.1327280587980795
4.1327280587980795
4.138882530963089
4.138882530963089
4.1327280587980795
4.1327280587980795
4.1327280587980795
4.138882530963089
4.138882530963089
4.145037003128072
4.138882530963089
4.138882530963089
4.138882530963089
4.12657358663307
4.138882530963089
4.138882530963089
4.138882530963089
4.1327280587980795
4.1327280587980795
4.138882530963089
4.138882530963089
4.12657358663307
4.138882530963089
4.145037003128072
4.145037003128072
4.138882530963089
4.145037003128072
4.151191475293081
4.12657358663307
4.0465654484880815
4.157345947458091
4.1758093639530935
4.1758093639530935
4.1758093639530935
4.1758093639530935
4.169654891788083
4.157345947458091
4.138882530963089
4.138882530963089
4.151191475293081
4.145037003128072
4.145037003128072
4.138882530963089
4.1327280587980795
4.1327280587980795
4.1327280587980795
4.12657358663307
4.1327280587980795
4.12657358663307
4.12657358663307
4.12657358663307
4.12657358663307
4.120419114468088
4.120419114468088
4.12657358663307
4.120419114468088
4.12657358663307
4.120419114468088
4.114264642303079
4.114264642303079
4.114264642303079
4.114264642303079
4.120419114468088
4.120419114468088
4.120419114468088
4.12657358663307
4.12657358663307
4.120419114468088
4.120419114468088
4.120419114468088
4.1327280587980795
4.12657358663307
4.1327280587980795
4.12657358663307
4.12657358663307
4.12657358663307
4.12657358663307
4.1327280587980795
4.1327280587980795
4.1327280587980795
4.138882530963089
4.138882530963089
4.1327280587980795
4.1327280587980795
4.1327280587980795
4.1327280587980795
4.1327280587980795
4.138882530963089
4.138882530963089
4.1327280587980795
4.1327280587980795
4.1327280587980795
4.12657358663307
4.138882530963089
4.1327280587980795
4.1327280587980795
4.12657358663307
4.12657358663307
4.12657358663307
4.12657358663307
4.138882530963089
4.1327280587980795
4.1327280587980795
4.138882530963089
4.1327280587980795
4.138882530963089
4.114264642303079
4.028102031993082
4.138882530963089
4.151191475293081
4.151191475293081
4.145037003128072
4.138882530963089
4.138882530963089
4.12657358663307
4.114264642303079
4.114264642303079
4.114264642303079
4.120419114468088
4.120419114468088
4.120419114468088
4.120419114468088
4.12657358663307
4.114264642303079
4.120419114468088
4.12657358663307
4.1327280587980795
4.12657358663307
4.1327280587980795
4.12657358663307
4.12657358663307
4.120419114468088
4.1327280587980795
4.1327280587980795
4.138882530963089
4.1327280587980795
4.1327280587980795
4.1327280587980795
4.12657358663307
4.12657358663307
4.1327280587980795
4.1327280587980795
4.1327280587980795
4.138882530963089
4.1327280587980795
4.138882530963089
4.12657358663307
4.12657358663307
4.1327280587980795
4.138882530963089
4.1327280587980795
4.138882530963089
4.138882530963089
4.1327280587980795
4.1327280587980795
4.1327280587980795
4.145037003128072
4.145037003128072
4.138882530963089
4.138882530963089
4.145037003128072
4.151191475293081
4.145037003128072
4.157345947458091
4.151191475293081
4.151191475293081
4.151191475293081
4.157345947458091
4.145037003128072
4.151191475293081
4.145037003128072
4.151191475293081
4.145037003128072
4.138882530963089
4.145037003128072
4.145037003128072
4.145037003128072
4.138882530963089
4.138882530963089
4.145037003128072
4.145037003128072
4.145037003128072
4.138882530963089
4.138882530963089
4.138882530963089
4.138882530963089
4.138882530963089
4.138882530963089
4.145037003128072
4.145037003128072
4.145037003128072
4.145037003128072
4.145037003128072
4.151191475293081
4.138882530963089
4.1327280587980795
4.1327280587980795
4.138882530963089
4.145037003128072
4.181963836118102
4.249663029933098
4.3173622237481215
4.391215889728128
4.40352483405812
4.3112077515831135
4.169654891788083
4.095801225808078
4.065028864983084
4.058874392818074
4.077337809313075
4.101955697973087
4.114264642303079
4.114264642303079
4.114264642303079
4.114264642303079
4.114264642303079
4.114264642303079
4.114264642303079
4.114264642303079
4.120419114468088
4.114264642303079
4.114264642303079
4.114264642303079
4.120419114468088
4.114264642303079
4.108110170138069
4.114264642303079
4.114264642303079
4.083492281478085
4.015793087663061
4.120419114468088
4.12657358663307
4.12657358663307
4.095801225808078
4.108110170138069
4.108110170138069
4.114264642303079
4.108110170138069
4.114264642303079
4.114264642303079
4.114264642303079
4.114264642303079
4.120419114468088
4.120419114468088
4.114264642303079
4.114264642303079
4.120419114468088
4.114264642303079
4.114264642303079
4.120419114468088
4.12657358663307
4.120419114468088
4.120419114468088
4.12657358663307
4.12657358663307
4.12657358663307
4.114264642303079
4.114264642303079
4.114264642303079
4.114264642303079
4.120419114468088
4.114264642303079
4.120419114468088
4.114264642303079
4.114264642303079
4.120419114468088
4.120419114468088
4.120419114468088
4.120419114468088
4.12657358663307
4.1327280587980795
4.12657358663307
4.12657358663307
4.1327280587980795
4.138882530963089
4.145037003128072
4.151191475293081
4.151191475293081
4.157345947458091
4.151191475293081
4.138882530963089
4.151191475293081
4.138882530963089
4.138882530963089
4.138882530963089
4.1327280587980795
4.1327280587980795
4.1327280587980795
4.114264642303079
4.120419114468088
4.120419114468088
4.120419114468088
4.108110170138069
4.120419114468088
4.114264642303079
4.114264642303079
4.114264642303079
4.108110170138069
4.114264642303079
4.108110170138069
4.108110170138069
4.108110170138069
4.108110170138069
4.101955697973087
4.095801225808078
4.108110170138069
4.108110170138069
4.101955697973087
4.108110170138069
4.108110170138069
4.101955697973087
4.095801225808078
4.108110170138069
4.108110170138069
4.108110170138069
4.101955697973087
4.101955697973087
4.101955697973087
4.114264642303079
4.114264642303079
4.108110170138069
4.108110170138069
4.108110170138069
4.114264642303079
4.114264642303079
4.114264642303079
4.108110170138069
4.101955697973087
4.108110170138069
4.108110170138069
4.108110170138069
4.108110170138069
4.108110170138069
4.108110170138069
4.114264642303079
4.101955697973087
4.108110170138069
4.108110170138069
4.114264642303079
4.120419114468088
4.114264642303079
4.108110170138069
4.101955697973087
4.003484143333068
4.095801225808078
4.1327280587980795
4.120419114468088
4.120419114468088
4.120419114468088
4.120419114468088
4.083492281478085
3.9850207268380675
4.101955697973087
4.120419114468088
4.114264642303079
4.120419114468088
4.120419114468088
4.120419114468088
4.108110170138069
4.083492281478085
4.101955697973087
4.095801225808078
4.101955697973087
4.101955697973087
4.108110170138069
4.101955697973087
4.095801225808078
4.101955697973087
4.108110170138069
4.101955697973087
4.108110170138069
4.101955697973087
4.101955697973087
4.101955697973087
4.101955697973087
4.101955697973087
4.108110170138069
4.114264642303079
4.108110170138069
4.108110170138069
4.108110170138069
4.108110170138069
4.095801225808078
4.101955697973087
4.108110170138069
4.108110170138069
4.114264642303079
4.114264642303079
4.108110170138069
4.101955697973087
4.095801225808078
4.108110170138069
4.108110170138069
4.101955697973087
4.108110170138069
4.108110170138069
4.108110170138069
4.101955697973087
4.101955697973087
4.108110170138069
4.101955697973087
4.101955697973087
4.108110170138069
4.101955697973087
4.108110170138069
4.101955697973087
4.095801225808078
4.108110170138069
4.120419114468088
4.120419114468088
4.12657358663307
4.120419114468088
4.120419114468088
4.114264642303079
4.108110170138069
4.12657358663307
4.120419114468088
4.114264642303079
4.114264642303079
4.114264642303079
4.108110170138069
4.108110170138069
4.101955697973087
4.108110170138069
4.108110170138069
4.108110170138069
4.108110170138069
4.114264642303079
4.101955697973087
4.095801225808078
4.101955697973087
4.101955697973087
4.101955697973087
4.108110170138069
4.101955697973087
4.114264642303079
4.108110170138069
4.101955697973087
4.108110170138069
4.108110170138069
4.108110170138069
4.095801225808078
4.095801225808078
4.095801225808078
4.101955697973087
4.1327280587980795
4.200427252613103
4.280435390758092
4.360443528903107
4.37890694539811
4.298898807253093
4.169654891788083
4.0711833371480655
4.034256504158063
4.028102031993082
4.0465654484880815
4.0711833371480655
4.077337809313075
4.089646753643067
4.083492281478085
4.083492281478085
4.077337809313075
4.083492281478085
4.089646753643067
4.083492281478085
4.089646753643067
4.083492281478085
4.089646753643067
4.083492281478085
4.083492281478085
4.101955697973087
4.101955697973087
4.065028864983084
3.9911751990030497
4.101955697973087
4.108110170138069
4.089646753643067
4.077337809313075
4.083492281478085
4.089646753643067
4.089646753643067
4.095801225808078
4.089646753643067
4.095801225808078
4.077337809313075
4.089646753643067
4.083492281478085
4.089646753643067
4.089646753643067
4.095801225808078
