4.058874392818074
3.9911751990030497
4.065028864983084
4.0711833371480655
4.077337809313075
4.0711833371480655
4.077337809313075
4.077337809313075
4.083492281478085
4.083492281478085
4.0711833371480655
4.083492281478085
4.083492281478085
4.083492281478085
4.083492281478085
4.077337809313075
4.077337809313075
4.077337809313075
4.077337809313075
4.083492281478085
4.083492281478085
4.077337809313075
4.083492281478085
4.077337809313075
4.083492281478085
4.083492281478085
4.0711833371480655
4.0711833371480655
4.0711833371480655
4.0711833371480655
4.077337809313075
4.0711833371480655
4.077337809313075
4.065028864983084
4.065028864983084
4.0711833371480655
4.077337809313075
4.077337809313075
4.077337809313075
4.0711833371480655
4.0711833371480655
4.0711833371480655
4.065028864983084
4.0711833371480655
4.077337809313075
4.0711833371480655
4.0711833371480655
4.0711833371480655
4.077337809313075
4.065028864983084
4.0711833371480655
4.089646753643067
4.089646753643067
4.101955697973087
4.101955697973087
4.089646753643067
4.089646753643067
4.083492281478085
4.083492281478085
4.083492281478085
4.077337809313075
4.077337809313075
4.083492281478085
4.0711833371480655
4.0711833371480655
4.0711833371480655
4.0711833371480655
4.077337809313075
4.077337809313075
4.0711833371480655
4.0711833371480655
4.065028864983084
4.065028864983084
4.0711833371480655
4.0711833371480655
4.065028864983084
4.0711833371480655
4.065028864983084
4.065028864983084
4.0711833371480655
4.0711833371480655
4.0711833371480655
4.065028864983084
4.0711833371480655
4.065028864983084
4.052719920653064
4.058874392818074
4.077337809313075
4.101955697973087
4.163500419623101
4.243508557768089
4.335825640243124
4.360443528903107
4.27428091859311
4.138882530963089
4.052719920653064
4.009638615498079
4.003484143333068
4.015793087663061
4.040410976323072
4.058874392818074
4.065028864983084
4.058874392818074
4.065028864983084
4.058874392818074
4.065028864983084
4.058874392818074
4.058874392818074
4.065028864983084
4.065028864983084
4.0711833371480655
4.0711833371480655
4.065028864983084
4.0711833371480655
4.0711833371480655
4.065028864983084
4.065028864983084
4.065028864983084
4.065028864983084
4.0711833371480655
4.065028864983084
4.065028864983084
4.0465654484880815
3.9911751990030497
4.0711833371480655
4.083492281478085
4.083492281478085
4.083492281478085
4.065028864983084
4.0711833371480655
4.0711833371480655
4.0711833371480655
4.083492281478085
4.083492281478085
4.077337809313075
4.083492281478085
4.077337809313075
4.083492281478085
4.083492281478085
4.089646753643067
4.083492281478085
4.083492281478085
4.083492281478085
4.077337809313075
4.083492281478085
4.089646753643067
4.089646753643067
4.083492281478085
4.089646753643067
4.089646753643067
4.089646753643067
4.083492281478085
4.089646753643067
4.089646753643067
4.095801225808078
4.095801225808078
4.089646753643067
4.101955697973087
4.095801225808078
4.089646753643067
4.108110170138069
4.108110170138069
4.114264642303079
4.114264642303079
4.114264642303079
4.120419114468088
4.120419114468088
4.108110170138069
4.120419114468088
4.120419114468088
4.114264642303079
4.101955697973087
4.108110170138069
4.095801225808078
4.101955697973087
4.089646753643067
4.095801225808078
4.089646753643067
4.089646753643067
4.083492281478085
4.083492281478085
4.083492281478085
4.077337809313075
4.083492281478085
4.077337809313075
4.083492281478085
4.0711833371480655
4.077337809313075
4.083492281478085
4.0711833371480655
4.0711833371480655
4.065028864983084
4.0711833371480655
4.0711833371480655
4.077337809313075
4.0711833371480655
4.0711833371480655
4.065028864983084
4.065028864983084
4.0711833371480655
4.0711833371480655
4.077337809313075
4.077337809313075
4.077337809313075
4.077337809313075
4.077337809313075
4.0711833371480655
4.0711833371480655
4.083492281478085
4.077337809313075
4.077337809313075
4.083492281478085
4.077337809313075
4.083492281478085
4.0711833371480655
4.083492281478085
4.077337809313075
4.077337809313075
4.077337809313075
4.077337809313075
4.083492281478085
4.077337809313075
4.083492281478085
4.077337809313075
4.077337809313075
4.083492281478085
4.077337809313075
4.077337809313075
4.083492281478085
4.083492281478085
4.0711833371480655
4.077337809313075
4.077337809313075
4.089646753643067
4.089646753643067
4.089646753643067
4.083492281478085
4.083492281478085
4.077337809313075
4.083492281478085
4.083492281478085
4.083492281478085
4.083492281478085
4.083492281478085
4.0711833371480655
3.9850207268380675
4.065028864983084
4.083492281478085
4.083492281478085
4.089646753643067
4.083492281478085
4.083492281478085
4.083492281478085
4.083492281478085
4.089646753643067
4.089646753643067
4.089646753643067
4.089646753643067
4.077337809313075
4.089646753643067
4.089646753643067
4.0711833371480655
4.077337809313075
4.083492281478085
4.083492281478085
4.077337809313075
4.077337809313075
4.077337809313075
4.077337809313075
4.0711833371480655
4.077337809313075
4.083492281478085
4.077337809313075
4.083492281478085
4.077337809313075
4.083492281478085
4.077337809313075
4.077337809313075
4.089646753643067
4.083492281478085
4.083492281478085
4.083492281478085
4.083492281478085
4.089646753643067
4.077337809313075
4.089646753643067
4.108110170138069
4.114264642303079
4.108110170138069
4.108110170138069
4.108110170138069
4.108110170138069
4.095801225808078
4.089646753643067
4.095801225808078
4.089646753643067
4.083492281478085
4.089646753643067
4.083492281478085
4.089646753643067
4.052719920653064
3.9911751990030497
4.089646753643067
4.095801225808078
4.089646753643067
4.095801225808078
4.095801225808078
4.089646753643067
4.0711833371480655
4.065028864983084
4.065028864983084
4.0711833371480655
4.0711833371480655
4.0711833371480655
4.0711833371480655
4.077337809313075
4.0711833371480655
4.077337809313075
4.0711833371480655
4.0711833371480655
4.065028864983084
4.0711833371480655
4.077337809313075
4.108110170138069
4.163500419623101
4.255817502098108
4.329671168078114
4.348134584573115
4.249663029933098
4.120419114468088
4.040410976323072
4.009638615498079
3.9973296711680604
4.015793087663061
4.040410976323072
4.052719920653064
4.065028864983084
4.0711833371480655
4.0711833371480655
4.065028864983084
4.0711833371480655
4.065028864983084
4.0711833371480655
4.0711833371480655
4.077337809313075
4.0711833371480655
4.077337809313075
4.0711833371480655
4.0711833371480655
4.083492281478085
4.0711833371480655
4.077337809313075
4.077337809313075
4.077337809313075
4.0711833371480655
4.0711833371480655
4.0711833371480655
4.077337809313075
4.077337809313075
4.083492281478085
4.077337809313075
4.077337809313075
4.077337809313075
4.0711833371480655
4.0711833371480655
4.083492281478085
4.052719920653064
3.9973296711680604
4.083492281478085
4.095801225808078
4.089646753643067
4.0711833371480655
4.0711833371480655
4.0711833371480655
4.077337809313075
4.089646753643067
4.089646753643067
4.083492281478085
4.083492281478085
4.077337809313075
4.083492281478085
4.083492281478085
4.095801225808078
4.089646753643067
4.095801225808078
4.095801225808078
4.095801225808078
4.095801225808078
4.089646753643067
4.095801225808078
4.101955697973087
4.095801225808078
4.101955697973087
4.101955697973087
4.101955697973087
4.101955697973087
4.114264642303079
4.120419114468088
4.120419114468088
4.120419114468088
4.120419114468088
4.114264642303079
4.120419114468088
4.108110170138069
4.114264642303079
4.108110170138069
4.108110170138069
4.101955697973087
4.089646753643067
4.095801225808078
4.089646753643067
4.077337809313075
4.077337809313075
4.083492281478085
4.0711833371480655
4.0711833371480655
4.0711833371480655
4.0711833371480655
4.065028864983084
4.0711833371480655
4.065028864983084
4.0711833371480655
4.0711833371480655
4.065028864983084
4.065028864983084
4.058874392818074
4.052719920653064
4.065028864983084
4.058874392818074
4.058874392818074
4.065028864983084
4.0711833371480655
4.065028864983084
4.058874392818074
4.065028864983084
4.065028864983084
4.065028864983084
4.0711833371480655
4.0711833371480655
4.0711833371480655
4.065028864983084
4.065028864983084
4.065028864983084
4.065028864983084
4.058874392818074
4.065028864983084
4.065028864983084
4.0711833371480655
4.0711833371480655
4.058874392818074
4.065028864983084
4.0711833371480655
4.065028864983084
4.0711833371480655
4.0711833371480655
4.0711833371480655
4.077337809313075
4.0711833371480655
4.065028864983084
4.077337809313075
4.077337809313075
4.077337809313075
4.0711833371480655
4.077337809313075
4.0711833371480655
4.0711833371480655
4.065028864983084
4.077337809313075
4.065028864983084
4.065028864983084
4.0711833371480655
4.077337809313075
4.0711833371480655
4.0711833371480655
4.077337809313075
4.0711833371480655
4.0711833371480655
4.077337809313075
4.0711833371480655
4.0711833371480655
4.077337809313075
4.0711833371480655
4.065028864983084
4.0711833371480655
4.077337809313075
4.0711833371480655
4.077337809313075
4.077337809313075
4.052719920653064
3.9727117825080476
4.0711833371480655
4.083492281478085
4.083492281478085
4.077337809313075
4.077337809313075
4.0711833371480655
4.065028864983084
4.052719920653064
4.058874392818074
4.065028864983084
4.0711833371480655
4.065028864983084
4.0711833371480655
4.065028864983084
4.058874392818074
4.0711833371480655
4.065028864983084
4.065028864983084
4.065028864983084
4.065028864983084
4.065028864983084
4.0711833371480655
4.0711833371480655
4.065028864983084
4.077337809313075
4.0711833371480655
4.077337809313075
4.077337809313075
4.077337809313075
4.083492281478085
4.077337809313075
4.0711833371480655
4.089646753643067
4.095801225808078
4.101955697973087
4.101955697973087
4.095801225808078
4.101955697973087
4.089646753643067
4.095801225808078
4.089646753643067
4.089646753643067
4.089646753643067
4.083492281478085
4.077337809313075
4.083492281478085
4.077337809313075
4.083492281478085
4.077337809313075
4.077337809313075
4.083492281478085
4.077337809313075
4.083492281478085
4.0711833371480655
4.065028864983084
4.077337809313075
4.0711833371480655
4.077337809313075
4.0711833371480655
4.0711833371480655
4.077337809313075
4.065028864983084
4.0711833371480655
4.083492281478085
4.077337809313075
4.083492281478085
4.077337809313075
4.065028864983084
4.0711833371480655
4.077337809313075
4.101955697973087
4.163500419623101
4.237354085603107
4.323516695913104
4.354289056738125
4.2865898629231
4.151191475293081
4.052719920653064
4.015793087663061
4.003484143333068
4.015793087663061
4.040410976323072
4.052719920653064
4.065028864983084
4.065028864983084
4.0711833371480655
4.0711833371480655
4.0711833371480655
4.077337809313075
4.0711833371480655
4.0711833371480655
4.0711833371480655
4.0711833371480655
4.065028864983084
4.0711833371480655
4.077337809313075
4.077337809313075
4.0711833371480655
4.0711833371480655
4.077337809313075
4.077337809313075
4.0711833371480655
4.077337809313075
4.083492281478085
4.089646753643067
4.089646753643067
4.089646753643067
4.083492281478085
4.089646753643067
4.083492281478085
4.089646753643067
4.089646753643067
4.083492281478085
4.089646753643067
4.089646753643067
4.083492281478085
4.089646753643067
4.083492281478085
4.077337809313075
4.077337809313075
4.058874392818074
3.9973296711680604
4.089646753643067
4.101955697973087
4.058874392818074
3.9788662546730578
4.083492281478085
4.089646753643067
4.089646753643067
4.089646753643067
4.089646753643067
4.095801225808078
4.089646753643067
4.0711833371480655
4.077337809313075
4.083492281478085
4.083492281478085
4.095801225808078
4.095801225808078
4.101955697973087
4.101955697973087
4.108110170138069
4.114264642303079
4.108110170138069
4.114264642303079
4.12657358663307
4.12657358663307
4.120419114468088
4.120419114468088
4.12657358663307
4.12657358663307
4.120419114468088
4.120419114468088
4.114264642303079
4.108110170138069
4.101955697973087
4.095801225808078
4.101955697973087
4.101955697973087
4.095801225808078
4.083492281478085
4.089646753643067
4.083492281478085
4.077337809313075
4.077337809313075
4.083492281478085
4.083492281478085
4.077337809313075
4.083492281478085
4.077337809313075
4.083492281478085
4.0711833371480655
4.0711833371480655
4.083492281478085
4.083492281478085
4.077337809313075
4.077337809313075
4.077337809313075
4.083492281478085
4.077337809313075
4.077337809313075
4.077337809313075
4.083492281478085
4.077337809313075
4.083492281478085
4.077337809313075
4.077337809313075
4.0711833371480655
4.077337809313075
4.083492281478085
4.077337809313075
4.077337809313075
4.083492281478085
4.077337809313075
4.083492281478085
4.077337809313075
4.089646753643067
4.089646753643067
4.089646753643067
4.083492281478085
4.089646753643067
4.089646753643067
4.089646753643067
4.077337809313075
4.083492281478085
4.083492281478085
4.083492281478085
4.089646753643067
4.083492281478085
4.089646753643067
4.089646753643067
4.077337809313075
4.089646753643067
4.089646753643067
4.089646753643067
4.095801225808078
4.083492281478085
4.083492281478085
4.083492281478085
4.083492281478085
4.089646753643067
4.089646753643067
4.089646753643067
4.095801225808078
4.089646753643067
4.089646753643067
4.083492281478085
4.089646753643067
4.095801225808078
4.095801225808078
4.089646753643067
4.095801225808078
4.095801225808078
4.095801225808078
4.089646753643067
4.095801225808078
4.089646753643067
4.095801225808078
4.095801225808078
4.095801225808078
4.095801225808078
4.089646753643067
4.058874392818074
4.003484143333068
4.083492281478085
4.095801225808078
4.101955697973087
4.089646753643067
4.095801225808078
4.095801225808078
4.0711833371480655
4.0711833371480655
4.077337809313075
4.083492281478085
4.089646753643067
4.083492281478085
4.083492281478085
4.089646753643067
4.077337809313075
4.089646753643067
4.095801225808078
4.089646753643067
4.095801225808078
4.095801225808078
4.089646753643067
4.089646753643067
4.083492281478085
4.095801225808078
4.101955697973087
4.095801225808078
4.101955697973087
4.095801225808078
4.089646753643067
4.095801225808078
4.095801225808078
4.101955697973087
4.120419114468088
4.120419114468088
4.114264642303079
4.114264642303079
4.120419114468088
4.114264642303079
4.101955697973087
4.108110170138069
4.108110170138069
4.108110170138069
4.101955697973087
4.095801225808078
4.101955697973087
4.095801225808078
4.095801225808078
4.095801225808078
4.095801225808078
4.095801225808078
4.095801225808078
4.095801225808078
4.101955697973087
4.095801225808078
4.089646753643067
4.101955697973087
4.095801225808078
4.101955697973087
4.101955697973087
4.101955697973087
4.101955697973087
4.095801225808078
4.095801225808078
4.095801225808078
4.095801225808078
4.089646753643067
4.083492281478085
4.089646753643067
4.101955697973087
4.1327280587980795
4.2065817247780855
4.2865898629231
4.366598001068117
4.385061417563119
4.298898807253093
4.151191475293081
4.058874392818074
4.028102031993082
4.028102031993082
4.0465654484880815
4.058874392818074
4.083492281478085
4.089646753643067
4.089646753643067
4.083492281478085
4.083492281478085
4.089646753643067
4.089646753643067
4.083492281478085
4.083492281478085
4.083492281478085
4.089646753643067
4.083492281478085
4.089646753643067
4.083492281478085
4.083492281478085
4.089646753643067
4.095801225808078
4.089646753643067
4.089646753643067
4.083492281478085
4.083492281478085
4.095801225808078
4.089646753643067
4.089646753643067
4.089646753643067
4.089646753643067
4.095801225808078
4.095801225808078
4.089646753643067
4.089646753643067
4.095801225808078
4.095801225808078
4.089646753643067
4.095801225808078
4.089646753643067
4.083492281478085
4.089646753643067
4.101955697973087
4.101955697973087
4.0711833371480655
4.003484143333068
4.101955697973087
4.101955697973087
4.077337809313075
4.077337809313075
4.083492281478085
4.089646753643067
4.089646753643067
4.089646753643067
4.089646753643067
4.095801225808078
4.089646753643067
4.089646753643067
4.101955697973087
4.095801225808078
4.101955697973087
4.101955697973087
4.108110170138069
4.108110170138069
4.114264642303079
4.120419114468088
4.120419114468088
4.12657358663307
4.1327280587980795
4.12657358663307
4.1327280587980795
4.12657358663307
4.12657358663307
4.138882530963089
4.1327280587980795
4.1327280587980795
4.12657358663307
4.120419114468088
4.120419114468088
4.114264642303079
4.114264642303079
4.108110170138069
4.101955697973087
4.108110170138069
4.108110170138069
4.095801225808078
4.095801225808078
4.089646753643067
4.089646753643067
4.089646753643067
4.089646753643067
4.095801225808078
4.101955697973087
4.095801225808078
4.095801225808078
4.083492281478085
4.089646753643067
4.095801225808078
4.095801225808078
4.089646753643067
4.095801225808078
4.095801225808078
4.089646753643067
4.083492281478085
4.095801225808078
4.095801225808078
4.095801225808078
4.083492281478085
4.083492281478085
4.089646753643067
4.083492281478085
4.083492281478085
4.089646753643067
4.089646753643067
4.101955697973087
4.095801225808078
4.101955697973087
4.101955697973087
4.083492281478085
4.009638615498079
4.095801225808078
4.108110170138069
4.114264642303079
4.108110170138069
4.114264642303079
4.114264642303079
4.095801225808078
4.0711833371480655
4.077337809313075
4.083492281478085
4.095801225808078
4.095801225808078
4.089646753643067
4.095801225808078
4.089646753643067
4.089646753643067
4.101955697973087
4.095801225808078
4.101955697973087
4.095801225808078
4.095801225808078
4.095801225808078
4.095801225808078
4.095801225808078
4.095801225808078
4.095801225808078
4.095801225808078
4.095801225808078
4.095801225808078
4.101955697973087
4.095801225808078
4.101955697973087
4.101955697973087
4.108110170138069
4.108110170138069
4.101955697973087
4.108110170138069
4.101955697973087
4.095801225808078
4.108110170138069
4.101955697973087
4.108110170138069
4.101955697973087
4.101955697973087
4.101955697973087
4.095801225808078
4.0711833371480655
4.015793087663061
4.108110170138069
4.108110170138069
4.108110170138069
4.101955697973087
4.101955697973087
4.101955697973087
4.083492281478085
4.083492281478085
4.095801225808078
4.089646753643067
4.095801225808078
4.095801225808078
4.095801225808078
4.083492281478085
4.089646753643067
4.101955697973087
4.101955697973087
4.101955697973087
4.095801225808078
4.101955697973087
4.101955697973087
4.101955697973087
4.095801225808078
4.095801225808078
4.095801225808078
4.095801225808078
4.101955697973087
4.101955697973087
4.101955697973087
4.089646753643067
4.095801225808078
4.095801225808078
4.101955697973087
4.095801225808078
4.095801225808078
4.101955697973087
4.101955697973087
4.114264642303079
4.114264642303079
4.114264642303079
4.108110170138069
4.114264642303079
4.114264642303079
4.108110170138069
4.101955697973087
4.095801225808078
4.101955697973087
4.101955697973087
4.095801225808078
4.101955697973087
4.101955697973087
4.101955697973087
4.095801225808078
4.095801225808078
4.101955697973087
4.089646753643067
4.083492281478085
4.089646753643067
4.089646753643067
4.089646753643067
4.083492281478085
4.089646753643067
4.089646753643067
4.095801225808078
4.095801225808078
4.095801225808078
4.095801225808078
4.095801225808078
4.083492281478085
4.083492281478085
4.077337809313075
4.083492281478085
4.083492281478085
4.114264642303079
4.163500419623101
4.237354085603107
4.3112077515831135
4.360443528903107
4.3112077515831135
4.181963836118102
4.0711833371480655
4.021947559828071
4.003484143333068
4.015793087663061
4.034256504158063
4.058874392818074
4.077337809313075
4.077337809313075
4.077337809313075
4.083492281478085
4.083492281478085
4.077337809313075
4.0711833371480655
4.083492281478085
4.083492281478085
4.089646753643067
4.089646753643067
4.089646753643067
4.089646753643067
4.089646753643067
4.083492281478085
4.083492281478085
4.083492281478085
4.089646753643067
4.083492281478085
4.089646753643067
4.089646753643067
4.083492281478085
4.089646753643067
4.089646753643067
4.089646753643067
4.089646753643067
4.095801225808078
4.095801225808078
4.101955697973087
4.089646753643067
4.095801225808078
4.095801225808078
4.095801225808078
4.101955697973087
4.083492281478085
4.015793087663061
4.095801225808078
4.101955697973087
4.089646753643067
4.095801225808078
4.095801225808078
4.095801225808078
4.101955697973087
4.101955697973087
4.101955697973087
4.095801225808078
4.108110170138069
4.101955697973087
4.101955697973087
4.108110170138069
4.108110170138069
4.101955697973087
4.108110170138069
4.101955697973087
4.114264642303079
4.120419114468088
4.120419114468088
4.120419114468088
4.12657358663307
4.12657358663307
4.120419114468088
4.12657358663307
4.12657358663307
4.1327280587980795
4.1327280587980795
4.138882530963089
4.1327280587980795
4.1327280587980795
4.120419114468088
4.120419114468088
4.114264642303079
4.120419114468088
4.108110170138069
4.108110170138069
4.101955697973087
4.108110170138069
4.095801225808078
4.089646753643067
4.089646753643067
4.095801225808078
4.095801225808078
4.095801225808078
4.089646753643067
4.089646753643067
4.077337809313075
4.083492281478085
4.083492281478085
4.089646753643067
4.083492281478085
4.083492281478085
4.083492281478085
4.089646753643067
4.077337809313075
4.077337809313075
4.089646753643067
4.083492281478085
4.083492281478085
4.083492281478085
4.083492281478085
4.089646753643067
4.089646753643067
4.083492281478085
4.089646753643067
4.089646753643067
4.089646753643067
4.089646753643067
4.089646753643067
4.095801225808078
4.083492281478085
4.089646753643067
4.089646753643067
4.083492281478085
4.089646753643067
4.089646753643067
4.089646753643067
4.083492281478085
4.089646753643067
4.095801225808078
4.095801225808078
4.083492281478085
4.089646753643067
4.089646753643067
4.083492281478085
4.077337809313075
4.083492281478085
4.077337809313075
4.077337809313075
4.083492281478085
4.077337809313075
4.077337809313075
4.083492281478085
4.077337809313075
4.083492281478085
4.077337809313075
4.083492281478085
4.083492281478085
4.083492281478085
4.089646753643067
4.089646753643067
4.077337809313075
4.083492281478085
4.083492281478085
4.089646753643067
4.089646753643067
4.083492281478085
4.089646753643067
4.083492281478085
4.077337809313075
4.077337809313075
4.083492281478085
4.083492281478085
4.083492281478085
4.083492281478085
4.083492281478085
4.089646753643067
4.077337809313075
4.065028864983084
3.9973296711680604
4.089646753643067
4.101955697973087
4.089646753643067
4.101955697973087
4.089646753643067
4.0711833371480655
4.0711833371480655
4.083492281478085
4.083492281478085
4.083492281478085
4.083492281478085
4.077337809313075
4.083492281478085
4.0711833371480655
4.077337809313075
4.077337809313075
4.083492281478085
4.0711833371480655
4.0711833371480655
4.0711833371480655
4.065028864983084
3.9850207268380675
4.077337809313075
4.089646753643067
4.089646753643067
4.083492281478085
4.089646753643067
4.083492281478085
4.077337809313075
4.058874392818074
4.065028864983084
4.0711833371480655
4.0711833371480655
4.083492281478085
4.101955697973087
4.108110170138069
4.095801225808078
4.095801225808078
4.101955697973087
4.101955697973087
4.101955697973087
4.089646753643067
4.095801225808078
4.083492281478085
4.077337809313075
4.089646753643067
4.083492281478085
4.083492281478085
4.083492281478085
4.089646753643067
4.089646753643067
4.089646753643067
4.077337809313075
4.077337809313075
4.077337809313075
4.083492281478085
4.077337809313075
4.077337809313075
4.083492281478085
4.077337809313075
4.0711833371480655
4.077337809313075
4.083492281478085
4.077337809313075
4.083492281478085
4.083492281478085
4.077337809313075
4.065028864983084
4.058874392818074
4.065028864983084
4.077337809313075
4.120419114468088
4.1758093639530935
4.249663029933098
4.329671168078114
4.348134584573115
4.261971974263091
4.1327280587980795
4.0465654484880815
4.009638615498079
3.9973296711680604
4.015793087663061
4.040410976323072
4.065028864983084
4.065028864983084
4.0711833371480655
4.065028864983084
4.0711833371480655
4.0711833371480655
4.077337809313075
4.0711833371480655
4.0711833371480655
4.0711833371480655
4.0711833371480655
4.0711833371480655
4.077337809313075
4.077337809313075
4.0711833371480655
4.077337809313075
4.065028864983084
4.077337809313075
4.083492281478085
4.077337809313075
4.0711833371480655
4.077337809313075
4.083492281478085
4.083492281478085
4.077337809313075
4.077337809313075
4.083492281478085
4.083492281478085
4.083492281478085
4.077337809313075
4.077337809313075
4.077337809313075
4.083492281478085
4.083492281478085
4.089646753643067
4.077337809313075
4.077337809313075
4.065028864983084
3.9973296711680604
4.077337809313075
4.0711833371480655
4.0711833371480655
4.083492281478085
4.083492281478085
4.089646753643067
4.083492281478085
4.089646753643067
4.083492281478085
4.083492281478085
4.089646753643067
4.083492281478085
4.095801225808078
4.089646753643067
4.089646753643067
4.095801225808078
4.089646753643067
4.095801225808078
4.101955697973087
4.089646753643067
4.095801225808078
4.101955697973087
4.108110170138069
4.108110170138069
4.108110170138069
4.108110170138069
4.120419114468088
4.120419114468088
4.114264642303079
4.120419114468088
4.108110170138069
4.108110170138069
4.101955697973087
4.095801225808078
4.101955697973087
4.089646753643067
4.095801225808078
4.083492281478085
4.083492281478085
4.077337809313075
4.0711833371480655
4.077337809313075
4.0711833371480655
4.0711833371480655
4.0711833371480655
4.0711833371480655
4.077337809313075
4.065028864983084
4.0711833371480655
4.077337809313075
4.0711833371480655
4.065028864983084
4.0711833371480655
4.065028864983084
4.065028864983084
4.0711833371480655
4.058874392818074
4.0711833371480655
4.0711833371480655
4.0711833371480655
4.0711833371480655
4.058874392818074
4.058874392818074
4.065028864983084
4.058874392818074
4.065028864983084
4.065028864983084
4.065028864983084
4.0711833371480655
4.065028864983084
4.0711833371480655
4.065028864983084
4.058874392818074
4.0711833371480655
4.065028864983084
4.065028864983084
4.065028864983084
4.0711833371480655
4.077337809313075
4.0711833371480655
4.077337809313075
4.077337809313075
4.083492281478085
4.0711833371480655
4.077337809313075
4.083492281478085
4.083492281478085
4.065028864983084
4.077337809313075
4.077337809313075
4.077337809313075
4.077337809313075
4.077337809313075
4.0711833371480655
4.077337809313075
4.065028864983084
4.077337809313075
4.077337809313075
4.0711833371480655
4.077337809313075
4.0711833371480655
4.077337809313075
4.077337809313075
4.0711833371480655
4.0711833371480655
4.065028864983084
4.065028864983084
4.065028864983084
4.0711833371480655
4.0711833371480655
4.065028864983084
4.058874392818074
4.065028864983084
4.065028864983084
4.065028864983084
4.0711833371480655
4.065028864983084
4.0711833371480655
4.065028864983084
4.058874392818074
4.040410976323072
3.9850207268380675
4.077337809313075
4.083492281478085
4.077337809313075
4.077337809313075
4.065028864983084
4.052719920653064
4.058874392818074
4.065028864983084
4.065028864983084
4.058874392818074
4.0711833371480655
4.065028864983084
4.058874392818074
4.058874392818074
4.065028864983084
4.065028864983084
4.0711833371480655
4.077337809313075
4.0711833371480655
4.077337809313075
4.0711833371480655
4.077337809313075
4.077337809313075
4.077337809313075
4.077337809313075
4.077337809313075
4.077337809313075
4.0711833371480655
4.065028864983084
4.0711833371480655
4.077337809313075
4.077337809313075
4.077337809313075
4.077337809313075
4.0711833371480655
4.077337809313075
4.0711833371480655
4.077337809313075
4.083492281478085
4.095801225808078
4.095801225808078
4.089646753643067
4.089646753643067
4.095801225808078
4.083492281478085
4.089646753643067
4.077337809313075
4.077337809313075
4.0711833371480655
4.0711833371480655
4.0711833371480655
4.0711833371480655
4.065028864983084
4.0711833371480655
4.077337809313075
4.077337809313075
4.0711833371480655
4.0711833371480655
4.065028864983084
4.065028864983084
4.065028864983084
4.0711833371480655
4.0711833371480655
4.0711833371480655
4.065028864983084
4.0711833371480655
4.065028864983084
4.058874392818074
4.058874392818074
4.0711833371480655
4.065028864983084
4.065028864983084
4.058874392818074
4.058874392818074
4.065028864983084
4.077337809313075
4.114264642303079
4.181963836118102
4.27428091859311
4.348134584573115
4.335825640243124
4.225045141273086
4.095801225808078
4.015793087663061
3.9973296711680604
4.003484143333068
4.028102031993082
4.0465654484880815
4.052719920653064
4.052719920653064
4.0465654484880815
3.9542483660130467
4.034256504158063
4.0711833371480655
4.077337809313075
4.077337809313075
4.0711833371480655
4.065028864983084
4.058874392818074
4.052719920653064
4.052719920653064
4.065028864983084
4.0711833371480655
4.0711833371480655
4.0711833371480655
4.065028864983084
4.0711833371480655
4.0711833371480655
4.0711833371480655
4.077337809313075
4.077337809313075
4.0711833371480655
4.0711833371480655
4.0711833371480655
4.065028864983084
4.077337809313075
4.083492281478085
4.083492281478085
4.089646753643067
4.077337809313075
4.058874392818074
3.9973296711680604
4.065028864983084
4.065028864983084
4.083492281478085
4.083492281478085
4.077337809313075
4.083492281478085
4.083492281478085
4.083492281478085
4.0711833371480655
4.077337809313075
4.077337809313075
4.077337809313075
4.0711833371480655
4.0711833371480655
4.0711833371480655
4.077337809313075
4.0711833371480655
4.0711833371480655
4.077337809313075
4.077337809313075
4.083492281478085
4.083492281478085
4.077337809313075
4.083492281478085
4.077337809313075
4.083492281478085
4.095801225808078
4.101955697973087
4.095801225808078
4.108110170138069
4.108110170138069
4.114264642303079
4.114264642303079
4.120419114468088
4.120419114468088
4.120419114468088
4.120419114468088
4.114264642303079
4.114264642303079
4.095801225808078
4.101955697973087
4.101955697973087
4.095801225808078
4.095801225808078
4.083492281478085
4.089646753643067
4.089646753643067
4.083492281478085
4.077337809313075
4.083492281478085
4.083492281478085
4.083492281478085
4.083492281478085
4.083492281478085
4.077337809313075
4.0711833371480655
4.077337809313075
4.077337809313075
4.077337809313075
4.077337809313075
4.0711833371480655
4.077337809313075
4.0711833371480655
4.065028864983084
4.077337809313075
4.077337809313075
4.0711833371480655
4.077337809313075
4.0711833371480655
4.0711833371480655
4.077337809313075
4.077337809313075
4.077337809313075
4.077337809313075
4.0711833371480655
4.077337809313075
4.077337809313075
4.077337809313075
4.0711833371480655
4.0711833371480655
4.083492281478085
4.077337809313075
4.077337809313075
4.077337809313075
4.083492281478085
4.083492281478085
4.0711833371480655
4.077337809313075
4.083492281478085
4.077337809313075
4.077337809313075
4.0711833371480655
4.0711833371480655
4.0711833371480655
4.0711833371480655
4.077337809313075
4.0711833371480655
4.0711833371480655
4.077337809313075
4.077337809313075
4.0711833371480655
4.077337809313075
4.0711833371480655
4.0711833371480655
4.077337809313075
4.077337809313075
4.083492281478085
4.083492281478085
4.077337809313075
4.083492281478085
4.077337809313075
4.083492281478085
4.077337809313075
4.077337809313075
4.077337809313075
4.083492281478085
4.0711833371480655
4.0711833371480655
4.0711833371480655
4.077337809313075
4.052719920653064
3.9911751990030497
4.083492281478085
4.083492281478085
4.089646753643067
4.083492281478085
4.058874392818074
4.065028864983084
4.0711833371480655
4.0711833371480655
4.0711833371480655
4.077337809313075
4.083492281478085
4.0711833371480655
4.077337809313075
4.077337809313075
4.077337809313075
4.083492281478085
4.077337809313075
4.077337809313075
4.083492281478085
4.077337809313075
4.077337809313075
4.077337809313075
4.077337809313075
4.077337809313075
4.077337809313075
4.077337809313075
4.077337809313075
4.0711833371480655
4.0711833371480655
4.083492281478085
4.077337809313075
4.083492281478085
4.083492281478085
4.083492281478085
4.077337809313075
4.083492281478085
4.083492281478085
4.077337809313075
4.083492281478085
4.083492281478085
4.083492281478085
4.083492281478085
4.083492281478085
4.0711833371480655
4.077337809313075
4.083492281478085
4.083492281478085
4.083492281478085
4.077337809313075
4.0711833371480655
4.083492281478085
4.095801225808078
4.101955697973087
4.108110170138069
4.101955697973087
4.101955697973087
4.095801225808078
4.089646753643067
4.089646753643067
4.083492281478085
4.083492281478085
4.077337809313075
4.0711833371480655
4.077337809313075
4.0711833371480655
4.0711833371480655
4.065028864983084
4.058874392818074
4.0711833371480655
4.077337809313075
4.0711833371480655
4.065028864983084
4.065028864983084
4.065028864983084
4.065028864983084
4.065028864983084
4.065028864983084
4.058874392818074
4.058874392818074
4.065028864983084
4.058874392818074
4.065028864983084
4.058874392818074
4.052719920653064
4.058874392818074
4.0465654484880815
4.0465654484880815
4.065028864983084
4.095801225808078
4.151191475293081
4.231199613438097
4.305053279418103
4.329671168078114
4.243508557768089
4.101955697973087
4.015793087663061
3.9850207268380675
3.9727117825080476
3.9850207268380675
4.009638615498079
4.040410976323072
4.040410976323072
4.0465654484880815
4.052719920653064
4.058874392818074
4.052719920653064
4.052719920653064
4.058874392818074
4.052719920653064
4.052719920653064
4.052719920653064
4.052719920653064
4.052719920653064
4.058874392818074
4.052719920653064
4.058874392818074
4.065028864983084
4.058874392818074
4.065028864983084
4.058874392818074
4.0465654484880815
3.9665573103430654
4.034256504158063
4.052719920653064
4.058874392818074
4.065028864983084
4.058874392818074
4.065028864983084
4.065028864983084
4.065028864983084
4.058874392818074
4.058874392818074
4.0711833371480655
4.065028864983084
4.065028864983084
4.065028864983084
4.0711833371480655
4.0711833371480655
4.065028864983084
4.077337809313075
4.0711833371480655
4.083492281478085
4.077337809313075
4.083492281478085
4.083492281478085
4.083492281478085
4.083492281478085
4.089646753643067
4.089646753643067
4.089646753643067
4.089646753643067
4.089646753643067
4.089646753643067
4.089646753643067
4.089646753643067
4.101955697973087
4.095801225808078
4.095801225808078
4.108110170138069
4.108110170138069
4.095801225808078
4.015793087663061
4.083492281478085
4.1327280587980795
4.12657358663307
4.120419114468088
4.12657358663307
4.120419114468088
4.114264642303079
4.095801225808078
4.101955697973087
4.101955697973087
4.095801225808078
4.095801225808078
4.095801225808078
4.089646753643067
4.083492281478085
4.077337809313075
4.089646753643067
4.083492281478085
4.083492281478085
4.077337809313075
4.083492281478085
4.083492281478085
4.077337809313075
4.0711833371480655
4.077337809313075
4.083492281478085
4.077337809313075
4.083492281478085
4.083492281478085
4.083492281478085
4.0711833371480655
4.077337809313075
4.077337809313075
4.089646753643067
4.089646753643067
4.083492281478085
4.089646753643067
4.083492281478085
4.077337809313075
4.083492281478085
4.083492281478085
4.089646753643067
4.089646753643067
4.089646753643067
4.089646753643067
4.089646753643067
4.089646753643067
4.089646753643067
4.089646753643067
4.095801225808078
4.089646753643067
4.089646753643067
4.089646753643067
4.089646753643067
4.083492281478085
4.089646753643067
4.095801225808078
4.089646753643067
4.089646753643067
4.095801225808078
4.101955697973087
4.095801225808078
4.089646753643067
4.095801225808078
4.101955697973087
4.101955697973087
4.101955697973087
4.101955697973087
4.095801225808078
4.101955697973087
4.095801225808078
4.108110170138069
4.101955697973087
4.108110170138069
4.095801225808078
4.108110170138069
4.101955697973087
4.095801225808078
4.095801225808078
4.101955697973087
4.083492281478085
4.021947559828071
4.101955697973087
4.114264642303079
4.108110170138069
4.095801225808078
4.089646753643067
4.089646753643067
4.101955697973087
4.095801225808078
4.108110170138069
4.108110170138069
4.101955697973087
4.089646753643067
4.101955697973087
4.101955697973087
4.095801225808078
4.095801225808078
4.101955697973087
4.101955697973087
4.095801225808078
4.089646753643067
4.101955697973087
4.095801225808078
4.101955697973087
4.101955697973087
4.095801225808078
4.095801225808078
4.095801225808078
4.095801225808078
4.101955697973087
4.101955697973087
4.095801225808078
4.101955697973087
4.089646753643067
4.095801225808078
4.095801225808078
4.089646753643067
4.095801225808078
4.095801225808078
4.095801225808078
4.089646753643067
4.101955697973087
4.095801225808078
4.101955697973087
4.095801225808078
4.101955697973087
4.095801225808078
4.101955697973087
4.101955697973087
4.114264642303079
4.12657358663307
4.120419114468088
4.114264642303079
4.114264642303079
4.120419114468088
4.108110170138069
4.114264642303079
4.114264642303079
4.101955697973087
4.101955697973087
4.101955697973087
4.108110170138069
4.101955697973087
4.095801225808078
4.108110170138069
4.108110170138069
4.101955697973087
4.101955697973087
4.095801225808078
4.095801225808078
4.095801225808078
4.101955697973087
4.095801225808078
4.101955697973087
4.101955697973087
4.089646753643067
4.101955697973087
4.095801225808078
4.095801225808078
4.095801225808078
4.095801225808078
4.089646753643067
4.077337809313075
4.077337809313075
4.095801225808078
4.114264642303079
4.169654891788083
4.237354085603107
4.323516695913104
4.360443528903107
4.3173622237481215
4.188118308283084
4.077337809313075
4.034256504158063
4.015793087663061
4.015793087663061
4.040410976323072
4.065028864983084
4.083492281478085
4.077337809313075
4.077337809313075
4.083492281478085
4.089646753643067
4.089646753643067
4.089646753643067
4.095801225808078
4.089646753643067
4.083492281478085
4.089646753643067
4.089646753643067
4.089646753643067
4.083492281478085
4.089646753643067
4.089646753643067
4.083492281478085
4.089646753643067
4.095801225808078
4.089646753643067
4.095801225808078
4.095801225808078
4.095801225808078
4.0711833371480655
4.003484143333068
4.101955697973087
4.108110170138069
4.108110170138069
4.101955697973087
4.101955697973087
4.108110170138069
4.095801225808078
4.089646753643067
4.083492281478085
4.095801225808078
4.095801225808078
4.089646753643067
4.101955697973087
4.101955697973087
4.095801225808078
4.095801225808078
4.108110170138069
4.101955697973087
4.101955697973087
4.108110170138069
4.101955697973087
4.101955697973087
4.108110170138069
4.101955697973087
4.101955697973087
4.108110170138069
4.108110170138069
4.108110170138069
4.114264642303079
4.108110170138069
4.108110170138069
4.108110170138069
4.114264642303079
4.114264642303079
4.12657358663307
4.12657358663307
4.1327280587980795
4.12657358663307
4.1327280587980795
4.1327280587980795
4.138882530963089
4.138882530963089
4.145037003128072
4.145037003128072
4.138882530963089
4.138882530963089
4.12657358663307
4.12657358663307
4.12657358663307
4.114264642303079
4.114264642303079
4.114264642303079
4.114264642303079
4.101955697973087
4.095801225808078
4.108110170138069
4.101955697973087
4.101955697973087
4.095801225808078
4.101955697973087
4.101955697973087
4.101955697973087
4.095801225808078
4.095801225808078
4.095801225808078
4.101955697973087
4.101955697973087
4.095801225808078
4.101955697973087
4.101955697973087
4.095801225808078
4.095801225808078
4.101955697973087
4.095801225808078
4.101955697973087
4.095801225808078
4.095801225808078
4.101955697973087
4.089646753643067
4.095801225808078
4.101955697973087
4.101955697973087
4.095801225808078
4.095801225808078
4.089646753643067
4.089646753643067
4.095801225808078
4.095801225808078
4.095801225808078
4.095801225808078
4.095801225808078
4.101955697973087
4.095801225808078
4.095801225808078
4.095801225808078
4.101955697973087
4.095801225808078
4.101955697973087
4.095801225808078
4.095801225808078
4.101955697973087
4.095801225808078
4.095801225808078
4.101955697973087
4.101955697973087
4.101955697973087
4.108110170138069
4.108110170138069
4.095801225808078
4.028102031993082
4.0711833371480655
4.120419114468088
4.114264642303079
4.114264642303079
4.108110170138069
4.114264642303079
4.101955697973087
4.083492281478085
4.083492281478085
4.095801225808078
4.077337809313075
4.009638615498079
4.108110170138069
4.114264642303079
4.114264642303079
4.089646753643067
4.089646753643067
4.095801225808078
4.095801225808078
4.101955697973087
4.095801225808078
4.101955697973087
4.089646753643067
4.095801225808078
4.095801225808078
4.101955697973087
4.101955697973087
4.095801225808078
4.095801225808078
4.089646753643067
4.095801225808078
4.089646753643067
4.101955697973087
4.095801225808078
4.095801225808078
4.095801225808078
4.095801225808078
4.089646753643067
4.095801225808078
4.095801225808078
4.089646753643067
4.101955697973087
4.101955697973087
4.101955697973087
4.101955697973087
4.095801225808078
4.095801225808078
4.101955697973087
4.101955697973087
4.101955697973087
4.095801225808078
4.101955697973087
4.101955697973087
4.101955697973087
4.089646753643067
4.095801225808078
4.095801225808078
4.095801225808078
4.095801225808078
4.095801225808078
4.114264642303079
4.114264642303079
4.120419114468088
4.12657358663307
4.120419114468088
4.120419114468088
4.114264642303079
4.108110170138069
4.108110170138069
4.108110170138069
4.095801225808078
4.101955697973087
4.095801225808078
4.101955697973087
4.095801225808078
4.108110170138069
4.101955697973087
4.095801225808078
4.089646753643067
4.095801225808078
4.089646753643067
4.089646753643067
4.089646753643067
4.095801225808078
4.089646753643067
4.089646753643067
4.083492281478085
4.089646753643067
4.095801225808078
4.095801225808078
4.089646753643067
4.095801225808078
4.095801225808078
4.083492281478085
4.077337809313075
4.0711833371480655
4.089646753643067
4.108110170138069
4.151191475293081
4.218890669108104
4.298898807253093
4.3727524732331275
4.360443528903107
4.237354085603107
4.101955697973087
4.034256504158063
4.021947559828071
4.015793087663061
4.040410976323072
4.065028864983084
4.077337809313075
4.089646753643067
4.083492281478085
4.077337809313075
4.083492281478085
4.083492281478085
4.083492281478085
4.077337809313075
4.083492281478085
4.089646753643067
4.077337809313075
4.083492281478085
4.083492281478085
4.077337809313075
4.077337809313075
4.065028864983084
4.0711833371480655
4.077337809313075
4.077337809313075
4.083492281478085
4.077337809313075
4.077337809313075
4.058874392818074
3.9973296711680604
4.083492281478085
4.089646753643067
4.089646753643067
4.095801225808078
4.095801225808078
4.095801225808078
4.077337809313075
4.065028864983084
4.077337809313075
4.083492281478085
4.077337809313075
4.077337809313075
4.077337809313075
4.077337809313075
4.083492281478085
4.083492281478085
4.077337809313075
4.077337809313075
4.083492281478085
4.077337809313075
4.083492281478085
4.077337809313075
4.077337809313075
4.077337809313075
4.083492281478085
4.077337809313075
4.077337809313075
4.077337809313075
4.083492281478085
4.077337809313075
4.083492281478085
4.089646753643067
4.089646753643067
4.089646753643067
4.101955697973087
4.101955697973087
4.108110170138069
4.108110170138069
4.108110170138069
4.120419114468088
4.120419114468088
4.12657358663307
4.120419114468088
4.120419114468088
4.120419114468088
4.120419114468088
4.114264642303079
4.114264642303079
4.108110170138069
4.108110170138069
4.108110170138069
4.108110170138069
4.095801225808078
4.089646753643067
4.095801225808078
4.089646753643067
4.095801225808078
4.089646753643067
4.095801225808078
4.089646753643067
4.089646753643067
4.089646753643067
4.083492281478085
4.095801225808078
4.089646753643067
4.089646753643067
4.089646753643067
4.083492281478085
4.089646753643067
4.077337809313075
4.089646753643067
4.089646753643067
4.089646753643067
4.083492281478085
4.083492281478085
4.083492281478085
4.083492281478085
4.077337809313075
4.089646753643067
4.095801225808078
4.089646753643067
4.089646753643067
4.095801225808078
4.089646753643067
4.095801225808078
4.089646753643067
4.095801225808078
4.101955697973087
4.101955697973087
4.095801225808078
4.101955697973087
4.101955697973087
4.101955697973087
4.089646753643067
4.095801225808078
4.095801225808078
4.095801225808078
4.101955697973087
4.101955697973087
4.095801225808078
4.083492281478085
4.083492281478085
4.095801225808078
4.089646753643067
4.101955697973087
4.101955697973087
4.089646753643067
4.095801225808078
4.089646753643067
4.083492281478085
4.089646753643067
4.095801225808078
4.095801225808078
4.095801225808078
4.095801225808078
4.101955697973087
4.089646753643067
4.089646753643067
4.095801225808078
4.095801225808078
4.0711833371480655
4.009638615498079
4.101955697973087
4.101955697973087
4.089646753643067
4.077337809313075
4.077337809313075
4.083492281478085
4.083492281478085
4.083492281478085
4.077337809313075
4.077337809313075
4.083492281478085
4.089646753643067
4.083492281478085
4.089646753643067
4.089646753643067
4.089646753643067
4.089646753643067
4.089646753643067
4.089646753643067
4.089646753643067
4.089646753643067
4.089646753643067
4.089646753643067
4.095801225808078
4.089646753643067
4.089646753643067
4.083492281478085
4.089646753643067
4.095801225808078
4.089646753643067
4.089646753643067
4.089646753643067
4.089646753643067
4.095801225808078
4.089646753643067
4.101955697973087
4.095801225808078
4.095801225808078
4.095801225808078
4.101955697973087
4.101955697973087
4.095801225808078
4.101955697973087
4.108110170138069
4.101955697973087
4.101955697973087
4.101955697973087
4.095801225808078
4.101955697973087
4.114264642303079
4.120419114468088
4.114264642303079
4.114264642303079
4.114264642303079
4.114264642303079
4.108110170138069
4.114264642303079
4.034256504158063
4.0465654484880815
4.114264642303079
4.108110170138069
4.108110170138069
4.101955697973087
4.101955697973087
4.095801225808078
4.077337809313075
4.083492281478085
4.083492281478085
4.089646753643067
4.089646753643067
4.095801225808078
4.095801225808078
4.089646753643067
4.089646753643067
4.089646753643067
4.089646753643067
4.089646753643067
4.089646753643067
4.095801225808078
4.095801225808078
4.101955697973087
4.083492281478085
4.089646753643067
4.077337809313075
4.089646753643067
4.095801225808078
4.1327280587980795
4.1942727804480935
4.27428091859311
4.354289056738125
4.3727524732331275
4.2681264464281
4.138882530963089
4.0465654484880815
4.015793087663061
4.015793087663061
4.021947559828071
4.052719920653064
4.077337809313075
4.083492281478085
4.083492281478085
4.077337809313075
4.083492281478085
4.083492281478085
4.077337809313075
4.077337809313075
4.089646753643067
4.083492281478085
4.083492281478085
4.089646753643067
4.089646753643067
4.083492281478085
4.083492281478085
4.089646753643067
4.089646753643067
4.089646753643067
4.095801225808078
4.089646753643067
4.095801225808078
4.083492281478085
4.058874392818074
3.9973296711680604
4.089646753643067
4.101955697973087
4.101955697973087
4.101955697973087
4.101955697973087
4.095801225808078
4.0711833371480655
4.0711833371480655
4.077337809313075
4.077337809313075
4.089646753643067
4.089646753643067
4.083492281478085
4.083492281478085
4.089646753643067
4.095801225808078
4.083492281478085
4.095801225808078
4.095801225808078
4.089646753643067
4.089646753643067
4.083492281478085
4.089646753643067
4.089646753643067
4.089646753643067
4.083492281478085
4.083492281478085
4.083492281478085
4.089646753643067
4.077337809313075
4.083492281478085
4.095801225808078
4.089646753643067
4.095801225808078
4.101955697973087
4.108110170138069
4.108110170138069
4.101955697973087
4.101955697973087
4.108110170138069
4.114264642303079
4.120419114468088
4.120419114468088
4.108110170138069
4.108110170138069
4.101955697973087
4.108110170138069
4.108110170138069
4.095801225808078
4.095801225808078
4.095801225808078
4.083492281478085
4.083492281478085
4.0711833371480655
4.077337809313075
4.077337809313075
4.0711833371480655
4.077337809313075
4.077337809313075
4.077337809313075
4.065028864983084
4.065028864983084
4.077337809313075
4.065028864983084
4.065028864983084
4.0711833371480655
4.0711833371480655
4.0711833371480655
4.0711833371480655
4.065028864983084
4.0711833371480655
4.065028864983084
4.065028864983084
4.065028864983084
4.0711833371480655
4.0711833371480655
4.065028864983084
4.0711833371480655
4.065028864983084
4.0711833371480655
4.0711833371480655
4.0711833371480655
4.065028864983084
4.0711833371480655
4.058874392818074
4.058874392818074
4.065028864983084
4.0711833371480655
4.0711833371480655
4.065028864983084
4.065028864983084
4.0711833371480655
4.065028864983084
4.0711833371480655
4.077337809313075
4.0711833371480655
4.077337809313075
4.077337809313075
4.077337809313075
4.0711833371480655
4.0711833371480655
4.0711833371480655
4.077337809313075
4.0711833371480655
4.077337809313075
4.0711833371480655
4.0711833371480655
4.0711833371480655
4.065028864983084
4.0711833371480655
4.077337809313075
4.077337809313075
4.077337809313075
4.0711833371480655
4.077337809313075
4.0711833371480655
4.0711833371480655
4.083492281478085
4.083492281478085
4.077337809313075
4.065028864983084
3.9973296711680604
4.083492281478085
4.083492281478085
4.0711833371480655
4.077337809313075
4.083492281478085
4.077337809313075
4.083492281478085
4.083492281478085
4.083492281478085
4.089646753643067
4.083492281478085
4.083492281478085
4.089646753643067
4.095801225808078
4.089646753643067
4.089646753643067
4.089646753643067
4.089646753643067
4.095801225808078
4.095801225808078
4.095801225808078
4.101955697973087
4.101955697973087
4.108110170138069
4.095801225808078
4.095801225808078
4.101955697973087
4.101955697973087
4.101955697973087
4.101955697973087
4.108110170138069
4.101955697973087
4.108110170138069
4.101955697973087
4.114264642303079
4.114264642303079
4.114264642303079
4.114264642303079
4.114264642303079
4.114264642303079
4.108110170138069
4.101955697973087
4.108110170138069
4.114264642303079
4.120419114468088
4.1327280587980795
4.12657358663307
4.12657358663307
4.120419114468088
4.108110170138069
4.114264642303079
4.114264642303079
4.114264642303079
4.120419114468088
4.120419114468088
4.114264642303079
4.108110170138069
4.108110170138069
4.108110170138069
4.114264642303079
4.114264642303079
4.114264642303079
4.108110170138069
4.108110170138069
4.101955697973087
4.101955697973087
4.114264642303079
4.101955697973087
4.101955697973087
4.114264642303079
4.108110170138069
4.108110170138069
4.101955697973087
4.101955697973087
4.108110170138069
4.108110170138069
4.101955697973087
4.101955697973087
4.095801225808078
4.089646753643067
4.089646753643067
4.108110170138069
4.145037003128072
4.212736196943095
4.2865898629231
4.360443528903107
4.354289056738125
4.249663029933098
4.120419114468088
4.052719920653064
4.021947559828071
4.021947559828071
4.028102031993082
4.052719920653064
4.077337809313075
4.083492281478085
4.083492281478085
4.083492281478085
4.089646753643067
4.089646753643067
4.083492281478085
4.083492281478085
4.083492281478085
4.089646753643067
4.089646753643067
4.095801225808078
4.089646753643067
4.095801225808078
4.089646753643067
4.095801225808078
4.095801225808078
4.095801225808078
4.095801225808078
4.095801225808078
4.089646753643067
4.089646753643067
4.095801225808078
4.101955697973087
4.101955697973087
4.095801225808078
4.077337809313075
4.009638615498079
4.095801225808078
4.108110170138069
4.114264642303079
4.108110170138069
4.108110170138069
4.034256504158063
3.9727117825080476
4.052719920653064
4.077337809313075
4.083492281478085
4.083492281478085
4.083492281478085
4.095801225808078
4.089646753643067
4.095801225808078
4.101955697973087
4.095801225808078
4.095801225808078
4.095801225808078
4.095801225808078
4.095801225808078
4.089646753643067
4.089646753643067
4.095801225808078
4.095801225808078
4.095801225808078
4.101955697973087
4.101955697973087
4.101955697973087
4.101955697973087
4.108110170138069
4.101955697973087
4.108110170138069
4.114264642303079
4.120419114468088
4.120419114468088
4.12657358663307
4.120419114468088
4.120419114468088
4.120419114468088
4.12657358663307
4.12657358663307
4.114264642303079
4.114264642303079
4.108110170138069
4.101955697973087
4.101955697973087
4.095801225808078
4.101955697973087
4.095801225808078
4.089646753643067
4.089646753643067
4.089646753643067
4.089646753643067
4.083492281478085
4.083492281478085
4.083492281478085
4.089646753643067
4.089646753643067
4.089646753643067
4.077337809313075
4.083492281478085
4.089646753643067
4.083492281478085
4.083492281478085
4.083492281478085
4.114264642303079
4.114264642303079
4.083492281478085
4.0711833371480655
4.083492281478085
4.083492281478085
4.077337809313075
4.0711833371480655
4.083492281478085
4.083492281478085
4.0711833371480655
4.077337809313075
4.077337809313075
4.083492281478085
4.083492281478085
4.077337809313075
4.083492281478085
4.077337809313075
4.083492281478085
4.083492281478085
4.083492281478085
4.089646753643067
4.089646753643067
4.083492281478085
4.083492281478085
4.089646753643067
4.083492281478085
4.077337809313075
4.089646753643067
4.089646753643067
4.083492281478085
4.089646753643067
4.089646753643067
4.083492281478085
4.083492281478085
4.089646753643067
4.089646753643067
4.083492281478085
4.083492281478085
4.089646753643067
4.089646753643067
4.083492281478085
4.089646753643067
4.089646753643067
4.089646753643067
4.089646753643067
4.083492281478085
4.089646753643067
4.083492281478085
4.083492281478085
4.089646753643067
4.083492281478085
4.083492281478085
4.089646753643067
4.0711833371480655
3.9604028381780574
4.058874392818074
4.083492281478085
4.083492281478085
4.089646753643067
4.089646753643067
4.089646753643067
4.083492281478085
4.089646753643067
4.077337809313075
4.077337809313075
4.089646753643067
4.089646753643067
4.083492281478085
4.083492281478085
4.089646753643067
4.083492281478085
4.089646753643067
4.083492281478085
4.089646753643067
4.089646753643067
4.089646753643067
4.095801225808078
4.089646753643067
4.089646753643067
4.089646753643067
4.089646753643067
4.089646753643067
4.095801225808078
4.089646753643067
4.089646753643067
4.095801225808078
4.089646753643067
4.083492281478085
4.083492281478085
4.089646753643067
4.089646753643067
4.095801225808078
4.089646753643067
4.089646753643067
4.089646753643067
4.089646753643067
4.089646753643067
4.089646753643067
4.095801225808078
4.089646753643067
4.089646753643067
4.089646753643067
4.095801225808078
4.089646753643067
4.101955697973087
4.101955697973087
4.120419114468088
4.120419114468088
4.12657358663307
4.120419114468088
4.114264642303079
4.101955697973087
4.108110170138069
4.114264642303079
4.114264642303079
4.108110170138069
4.101955697973087
4.095801225808078
4.101955697973087
4.095801225808078
4.108110170138069
4.101955697973087
4.089646753643067
4.089646753643067
4.089646753643067
4.089646753643067
4.095801225808078
4.089646753643067
4.095801225808078
4.101955697973087
4.101955697973087
4.101955697973087
4.101955697973087
4.101955697973087
4.095801225808078
4.095801225808078
4.095801225808078
4.101955697973087
4.095801225808078
4.089646753643067
4.089646753643067
4.095801225808078
4.108110170138069
4.157345947458091
4.225045141273086
4.3173622237481215
4.391215889728128
4.3727524732331275
4.255817502098108
4.120419114468088
4.052719920653064
4.034256504158063
4.040410976323072
4.065028864983084
4.077337809313075
4.089646753643067
4.089646753643067
4.083492281478085
4.077337809313075
4.083492281478085
4.083492281478085
4.089646753643067
4.089646753643067
4.089646753643067
4.089646753643067
4.089646753643067
4.089646753643067
4.083492281478085
4.089646753643067
4.095801225808078
4.095801225808078
4.095801225808078
4.089646753643067
4.089646753643067
4.089646753643067
4.077337809313075
4.015793087663061
4.101955697973087
4.108110170138069
4.101955697973087
4.101955697973087
4.101955697973087
4.083492281478085
4.083492281478085
4.095801225808078
4.089646753643067
4.089646753643067
4.095801225808078
4.095801225808078
4.095801225808078
4.089646753643067
4.089646753643067
4.089646753643067
4.095801225808078
4.089646753643067
4.089646753643067
4.089646753643067
4.089646753643067
4.083492281478085
4.089646753643067
4.095801225808078
4.095801225808078
4.089646753643067
4.095801225808078
4.089646753643067
4.089646753643067
4.089646753643067
4.089646753643067
4.089646753643067
4.101955697973087
4.101955697973087
4.101955697973087
4.095801225808078
4.095801225808078
4.108110170138069
4.101955697973087
4.108110170138069
4.12657358663307
4.1327280587980795
4.1327280587980795
4.12657358663307
4.12657358663307
4.1327280587980795
4.138882530963089
4.138882530963089
4.1327280587980795
4.1327280587980795
4.12657358663307
4.120419114468088
4.120419114468088
4.114264642303079
4.108110170138069
4.108110170138069
4.101955697973087
4.108110170138069
4.101955697973087
4.101955697973087
4.089646753643067
4.095801225808078
4.095801225808078
4.095801225808078
4.101955697973087
4.101955697973087
4.101955697973087
4.089646753643067
4.089646753643067
4.095801225808078
4.095801225808078
4.095801225808078
4.101955697973087
4.095801225808078
4.095801225808078
4.052719920653064
4.009638615498079
4.108110170138069
4.108110170138069
4.114264642303079
4.108110170138069
4.108110170138069
4.095801225808078
4.077337809313075
4.0711833371480655
4.089646753643067
4.089646753643067
4.083492281478085
4.089646753643067
4.089646753643067
4.089646753643067
4.089646753643067
4.095801225808078
4.095801225808078
4.101955697973087
4.101955697973087
4.108110170138069
4.101955697973087
4.108110170138069
4.095801225808078
4.101955697973087
4.101955697973087
4.101955697973087
4.101955697973087
4.101955697973087
4.101955697973087
4.101955697973087
4.095801225808078
4.095801225808078
4.101955697973087
4.101955697973087
4.101955697973087
4.095801225808078
4.095801225808078
4.095801225808078
4.095801225808078
4.101955697973087
4.101955697973087
4.108110170138069
4.101955697973087
4.077337809313075
4.009638615498079
4.095801225808078
4.089646753643067
4.101955697973087
4.108110170138069
4.108110170138069
4.101955697973087
4.101955697973087
4.101955697973087
4.095801225808078
4.101955697973087
4.108110170138069
4.101955697973087
4.101955697973087
4.108110170138069
4.108110170138069
4.108110170138069
4.101955697973087
4.101955697973087
4.108110170138069
4.114264642303079
4.101955697973087
4.108110170138069
4.101955697973087
4.108110170138069
4.101955697973087
4.108110170138069
4.108110170138069
4.101955697973087
4.108110170138069
4.101955697973087
4.101955697973087
4.101955697973087
4.101955697973087
4.108110170138069
4.101955697973087
4.101955697973087
4.101955697973087
4.101955697973087
4.108110170138069
4.095801225808078
4.095801225808078
4.101955697973087
4.101955697973087
4.095801225808078
4.095801225808078
4.101955697973087
4.095801225808078
4.089646753643067
4.095801225808078
4.101955697973087
4.101955697973087
4.095801225808078
4.095801225808078
4.101955697973087
4.101955697973087
4.089646753643067
4.095801225808078
4.114264642303079
4.120419114468088
4.120419114468088
4.114264642303079
4.114264642303079
4.114264642303079
4.108110170138069
4.114264642303079
4.114264642303079
4.108110170138069
4.101955697973087
4.101955697973087
4.101955697973087
4.101955697973087
4.089646753643067
4.101955697973087
4.095801225808078
4.101955697973087
4.101955697973087
4.095801225808078
4.095801225808078
4.089646753643067
4.083492281478085
4.095801225808078
4.089646753643067
4.101955697973087
4.101955697973087
4.101955697973087
4.101955697973087
4.095801225808078
4.089646753643067
4.095801225808078
4.101955697973087
4.089646753643067
4.083492281478085
4.077337809313075
4.089646753643067
4.114264642303079
4.163500419623101
4.237354085603107
4.3173622237481215
4.37890694539811
4.335825640243124
4.212736196943095
4.101955697973087
4.040410976323072
4.015793087663061
4.015793087663061
4.0465654484880815
4.058874392818074
4.077337809313075
4.077337809313075
4.077337809313075
4.0711833371480655
4.083492281478085
4.089646753643067
4.089646753643067
4.089646753643067
4.089646753643067
4.083492281478085
4.083492281478085
4.089646753643067
4.089646753643067
4.0711833371480655
4.003484143333068
4.095801225808078
4.108110170138069
4.108110170138069
4.101955697973087
4.077337809313075
4.083492281478085
4.089646753643067
4.089646753643067
4.095801225808078
4.089646753643067
4.101955697973087
4.089646753643067
4.089646753643067
4.095801225808078
4.095801225808078
4.101955697973087
4.108110170138069
4.108110170138069
4.108110170138069
4.108110170138069
4.101955697973087
4.108110170138069
4.101955697973087
4.114264642303079
4.108110170138069
4.114264642303079
4.108110170138069
4.108110170138069
4.108110170138069
4.114264642303079
4.114264642303079
4.108110170138069
4.108110170138069
4.108110170138069
4.114264642303079
4.101955697973087
4.108110170138069
4.108110170138069
4.114264642303079
4.114264642303079
4.12657358663307
4.120419114468088
4.120419114468088
4.120419114468088
4.1327280587980795
4.138882530963089
4.1327280587980795
4.138882530963089
4.138882530963089
4.145037003128072
4.145037003128072
4.138882530963089
4.145037003128072
4.138882530963089
4.145037003128072
4.138882530963089
4.138882530963089
4.12657358663307
4.12657358663307
4.114264642303079
4.120419114468088
4.114264642303079
4.108110170138069
4.120419114468088
4.108110170138069
4.114264642303079
4.114264642303079
4.108110170138069
4.114264642303079
4.114264642303079
4.114264642303079
4.114264642303079
4.108110170138069
4.101955697973087
4.108110170138069
4.108110170138069
4.114264642303079
4.114264642303079
4.108110170138069
4.108110170138069
4.108110170138069
4.114264642303079
4.108110170138069
4.108110170138069
4.114264642303079
4.120419114468088
4.120419114468088
4.120419114468088
4.114264642303079
4.120419114468088
4.120419114468088
4.114264642303079
4.12657358663307
4.12657358663307
4.12657358663307
4.12657358663307
4.1327280587980795
4.12657358663307
4.114264642303079
4.120419114468088
4.12657358663307
4.1327280587980795
4.12657358663307
4.12657358663307
4.1327280587980795
4.1327280587980795
4.1327280587980795
4.1327280587980795
4.1327280587980795
4.1327280587980795
4.1327280587980795
4.12657358663307
4.1327280587980795
4.12657358663307
4.12657358663307
4.1327280587980795
4.12657358663307
4.1327280587980795
4.12657358663307
4.12657358663307
4.108110170138069
4.052719920653064
4.108110170138069
4.120419114468088
4.12657358663307
4.1327280587980795
4.12657358663307
4.1327280587980795
4.1327280587980795
4.12657358663307
4.1327280587980795
4.1327280587980795
4.1327280587980795
4.1327280587980795
4.138882530963089
4.138882530963089
4.1327280587980795
4.1327280587980795
4.1327280587980795
4.145037003128072
4.151191475293081
4.145037003128072
4.138882530963089
4.145037003128072
4.138882530963089
4.114264642303079
4.052719920653064
4.151191475293081
4.157345947458091
4.157345947458091
4.151191475293081
4.151191475293081
4.151191475293081
4.138882530963089
4.120419114468088
4.138882530963089
4.145037003128072
4.145037003128072
4.145037003128072
4.151191475293081
4.145037003128072
4.145037003128072
4.145037003128072
4.151191475293081
4.145037003128072
4.145037003128072
4.145037003128072
4.145037003128072
4.145037003128072
4.145037003128072
4.151191475293081
4.151191475293081
4.145037003128072
4.145037003128072
4.151191475293081
4.157345947458091
4.163500419623101
4.157345947458091
4.169654891788083
4.163500419623101
4.163500419623101
4.157345947458091
4.151191475293081
4.151191475293081
4.151191475293081
4.145037003128072
4.151191475293081
4.151191475293081
4.145037003128072
4.151191475293081
4.145037003128072
4.151191475293081
4.151191475293081
4.138882530963089
4.138882530963089
4.138882530963089
4.138882530963089
4.138882530963089
4.145037003128072
4.138882530963089
4.1327280587980795
4.1327280587980795
4.138882530963089
4.1327280587980795
4.138882530963089
4.138882530963089
4.138882530963089
4.138882530963089
4.1327280587980795
4.120419114468088
4.120419114468088
4.1327280587980795
4.138882530963089
4.169654891788083
4.237354085603107
4.3173622237481215
4.391215889728128
4.40352483405812
4.3112077515831135
4.1758093639530935
4.101955697973087
4.065028864983084
4.052719920653064
4.0711833371480655
4.083492281478085
4.108110170138069
4.114264642303079
4.120419114468088
4.114264642303079
4.120419114468088
4.12657358663307
4.12657358663307
4.120419114468088
4.120419114468088
4.12657358663307
4.1327280587980795
4.1327280587980795
4.12657358663307
4.12657358663307
4.1327280587980795
4.12657358663307
4.1327280587980795
4.108110170138069
4.040410976323072
4.138882530963089
4.138882530963089
4.145037003128072
4.1327280587980795
4.108110170138069
4.120419114468088
4.1327280587980795
4.12657358663307
4.1327280587980795
4.12657358663307
4.12657358663307
4.1327280587980795
4.12657358663307
4.1327280587980795
4.1327280587980795
4.12657358663307
4.1327280587980795
4.1327280587980795
4.12657358663307
4.120419114468088
4.114264642303079
4.120419114468088
4.120419114468088
4.12657358663307
4.12657358663307
4.12657358663307
4.12657358663307
4.108110170138069
4.120419114468088
4.12657358663307
4.120419114468088
4.120419114468088
4.12657358663307
4.12657358663307
4.120419114468088
4.114264642303079
4.12657358663307
4.12657358663307
4.12657358663307
4.12657358663307
4.1327280587980795
4.138882530963089
4.1327280587980795
4.1327280587980795
4.145037003128072
4.145037003128072
4.145037003128072
4.145037003128072
4.151191475293081
4.151191475293081
4.145037003128072
4.145037003128072
4.151191475293081
4.138882530963089
4.138882530963089
4.1327280587980795
4.1327280587980795
4.12657358663307
4.114264642303079
4.114264642303079
4.120419114468088
4.114264642303079
4.114264642303079
4.12657358663307
4.120419114468088
4.120419114468088
4.114264642303079
4.120419114468088
4.114264642303079
4.114264642303079
4.120419114468088
4.120419114468088
4.120419114468088
4.120419114468088
4.108110170138069
4.120419114468088
4.114264642303079
4.114264642303079
4.120419114468088
4.120419114468088
4.12657358663307
4.120419114468088
4.114264642303079
4.114264642303079
4.120419114468088
4.120419114468088
4.120419114468088
4.12657358663307
4.12657358663307
4.12657358663307
4.12657358663307
4.120419114468088
4.12657358663307
4.120419114468088
4.120419114468088
4.120419114468088
4.12657358663307
4.12657358663307
4.120419114468088
4.12657358663307
4.12657358663307
4.12657358663307
4.12657358663307
4.12657358663307
4.120419114468088
4.120419114468088
4.114264642303079
4.120419114468088
4.114264642303079
4.120419114468088
4.120419114468088
4.114264642303079
4.114264642303079
4.114264642303079
4.114264642303079
4.114264642303079
4.114264642303079
4.108110170138069
4.120419114468088
4.120419114468088
4.095801225808078
4.021947559828071
4.120419114468088
4.12657358663307
4.12657358663307
4.120419114468088
4.120419114468088
4.120419114468088
4.12657358663307
4.101955697973087
4.089646753643067
4.101955697973087
4.108110170138069
4.108110170138069
4.108110170138069
4.108110170138069
4.108110170138069
4.108110170138069
4.114264642303079
4.114264642303079
4.108110170138069
4.108110170138069
4.114264642303079
4.114264642303079
4.120419114468088
4.114264642303079
4.114264642303079
4.108110170138069
4.114264642303079
4.108110170138069
4.108110170138069
4.114264642303079
4.108110170138069
4.108110170138069
4.114264642303079
4.108110170138069
4.114264642303079
4.108110170138069
4.108110170138069
4.114264642303079
4.101955697973087
4.108110170138069
4.114264642303079
4.114264642303079
4.114264642303079
4.108110170138069
4.108110170138069
4.108110170138069
4.108110170138069
4.101955697973087
4.114264642303079
4.114264642303079
4.114264642303079
4.108110170138069
4.114264642303079
4.120419114468088
4.12657358663307
4.1327280587980795
4.12657358663307
4.1327280587980795
4.120419114468088
4.12657358663307
4.12657358663307
4.120419114468088
4.120419114468088
4.120419114468088
4.120419114468088
4.114264642303079
4.108110170138069
4.114264642303079
4.108110170138069
4.114264642303079
4.108110170138069
4.114264642303079
4.114264642303079
4.108110170138069
4.114264642303079
4.108110170138069
4.108110170138069
4.108110170138069
4.101955697973087
4.108110170138069
4.108110170138069
4.108110170138069
4.101955697973087
4.101955697973087
4.108110170138069
4.101955697973087
4.101955697973087
4.089646753643067
4.083492281478085
4.101955697973087
4.120419114468088
4.163500419623101
4.237354085603107
4.298898807253093
4.305053279418103
4.3727524732331275
4.2681264464281
4.1327280587980795
4.0711833371480655
4.0465654484880815
4.0465654484880815
4.052719920653064
4.058874392818074
4.077337809313075
4.083492281478085
4.083492281478085
4.077337809313075
4.083492281478085
4.083492281478085
4.089646753643067
4.089646753643067
4.095801225808078
4.095801225808078
4.089646753643067
4.089646753643067
4.095801225808078
4.095801225808078
4.089646753643067
4.101955697973087
4.101955697973087
4.077337809313075
4.009638615498079
4.108110170138069
4.114264642303079
4.101955697973087
4.083492281478085
4.083492281478085
4.089646753643067
4.095801225808078
4.101955697973087
4.101955697973087
4.095801225808078
4.095801225808078
4.095801225808078
4.101955697973087
4.101955697973087
4.108110170138069
4.101955697973087
4.108110170138069
4.101955697973087
4.101955697973087
4.101955697973087
4.108110170138069
4.101955697973087
4.095801225808078
4.101955697973087
4.101955697973087
4.101955697973087
4.095801225808078
4.089646753643067
4.095801225808078
4.095801225808078
4.101955697973087
4.089646753643067
4.095801225808078
4.089646753643067
4.089646753643067
4.095801225808078
4.101955697973087
4.095801225808078
4.108110170138069
4.101955697973087
4.101955697973087
4.114264642303079
4.114264642303079
4.114264642303079
4.12657358663307
4.120419114468088
4.1327280587980795
4.1327280587980795
4.1327280587980795
4.138882530963089
4.12657358663307
4.1327280587980795
4.12657358663307
4.12657358663307
4.12657358663307
4.120419114468088
4.114264642303079
4.114264642303079
4.108110170138069
4.108110170138069
4.114264642303079
4.108110170138069
4.108110170138069
4.101955697973087
4.095801225808078
4.095801225808078
4.089646753643067
4.101955697973087
4.101955697973087
4.095801225808078
4.095801225808078
4.095801225808078
4.101955697973087
4.095801225808078
4.095801225808078
4.101955697973087
4.095801225808078
4.108110170138069
4.101955697973087
4.095801225808078
4.108110170138069
4.095801225808078
4.095801225808078
4.101955697973087
4.101955697973087
4.095801225808078
4.101955697973087
4.095801225808078
4.095801225808078
4.095801225808078
4.101955697973087
4.089646753643067
4.089646753643067
4.095801225808078
4.089646753643067
4.095801225808078
4.101955697973087
4.095801225808078
4.089646753643067
4.095801225808078
4.101955697973087
4.101955697973087
4.101955697973087
4.101955697973087
4.101955697973087
4.101955697973087
4.108110170138069
4.108110170138069
4.101955697973087
4.108110170138069
4.114264642303079
4.114264642303079
4.108110170138069
4.108110170138069
4.114264642303079
4.114264642303079
4.108110170138069
4.114264642303079
4.114264642303079
4.114264642303079
4.089646753643067
4.003484143333068
4.108110170138069
4.120419114468088
4.120419114468088
4.120419114468088
4.114264642303079
4.108110170138069
4.108110170138069
4.077337809313075
4.089646753643067
4.101955697973087
4.095801225808078
4.095801225808078
4.101955697973087
4.101955697973087
4.095801225808078
4.095801225808078
4.108110170138069
4.101955697973087
4.108110170138069
4.108110170138069
4.101955697973087
4.101955697973087
4.095801225808078
4.101955697973087
4.101955697973087
4.108110170138069
4.108110170138069
4.101955697973087
4.101955697973087
4.114264642303079
4.101955697973087
4.114264642303079
4.114264642303079
4.114264642303079
4.114264642303079
4.114264642303079
4.108110170138069
4.108110170138069
4.108110170138069
4.114264642303079
4.108110170138069
4.114264642303079
4.108110170138069
4.108110170138069
4.114264642303079
4.101955697973087
4.108110170138069
4.108110170138069
4.114264642303079
4.114264642303079
4.108110170138069
4.120419114468088
4.120419114468088
4.12657358663307
4.12657358663307
4.138882530963089
4.138882530963089
4.12657358663307
4.1327280587980795
4.12657358663307
4.1327280587980795
4.1327280587980795
4.120419114468088
4.120419114468088
4.12657358663307
4.114264642303079
4.114264642303079
4.120419114468088
4.120419114468088
4.114264642303079
4.114264642303079
4.114264642303079
4.114264642303079
4.108110170138069
4.108110170138069
4.114264642303079
4.108110170138069
4.108110170138069
4.114264642303079
4.108110170138069
4.114264642303079
4.108110170138069
4.114264642303079
4.108110170138069
4.114264642303079
4.101955697973087
4.108110170138069
4.101955697973087
4.095801225808078
4.108110170138069
4.120419114468088
4.151191475293081
4.218890669108104
4.305053279418103
4.37890694539811
4.3727524732331275
4.261971974263091
4.1327280587980795
4.065028864983084
4.028102031993082
4.028102031993082
4.040410976323072
4.065028864983084
4.083492281478085
4.089646753643067
4.083492281478085
4.089646753643067
4.083492281478085
4.083492281478085
4.089646753643067
4.089646753643067
4.095801225808078
4.089646753643067
4.089646753643067
4.089646753643067
4.089646753643067
4.095801225808078
4.095801225808078
4.095801225808078
4.101955697973087
4.077337809313075
4.015793087663061
4.101955697973087
4.114264642303079
4.095801225808078
4.089646753643067
4.089646753643067
4.095801225808078
4.101955697973087
4.101955697973087
4.095801225808078
4.108110170138069
4.101955697973087
4.108110170138069
4.101955697973087
4.101955697973087
4.108110170138069
4.114264642303079
4.108110170138069
4.114264642303079
4.101955697973087
4.108110170138069
4.108110170138069
4.114264642303079
4.108110170138069
4.114264642303079
4.114264642303079
4.108110170138069
4.108110170138069
4.114264642303079
4.114264642303079
4.114264642303079
4.108110170138069
4.114264642303079
4.114264642303079
4.114264642303079
4.108110170138069
4.114264642303079
4.114264642303079
4.120419114468088
4.120419114468088
4.120419114468088
4.1327280587980795
4.114264642303079
4.040410976323072
4.1327280587980795
4.151191475293081
4.145037003128072
4.151191475293081
4.145037003128072
4.138882530963089
4.1327280587980795
4.108110170138069
4.120419114468088
4.120419114468088
4.120419114468088
4.114264642303079
4.114264642303079
4.114264642303079
4.108110170138069
4.101955697973087
4.108110170138069
4.101955697973087
4.101955697973087
4.095801225808078
4.095801225808078
4.101955697973087
4.089646753643067
4.089646753643067
4.089646753643067
4.083492281478085
4.089646753643067
4.089646753643067
4.083492281478085
4.083492281478085
4.077337809313075
4.077337809313075
4.089646753643067
4.089646753643067
4.089646753643067
4.083492281478085
4.089646753643067
4.089646753643067
4.089646753643067
4.089646753643067
4.083492281478085
4.089646753643067
4.083492281478085
4.095801225808078
4.095801225808078
4.089646753643067
4.083492281478085
4.083492281478085
4.083492281478085
4.089646753643067
4.089646753643067
4.095801225808078
4.089646753643067
4.083492281478085
4.089646753643067
4.095801225808078
4.095801225808078
4.095801225808078
4.089646753643067
4.089646753643067
4.089646753643067
4.095801225808078
4.083492281478085
4.095801225808078
4.101955697973087
4.089646753643067
4.095801225808078
4.095801225808078
4.095801225808078
4.095801225808078
4.095801225808078
4.095801225808078
4.095801225808078
4.095801225808078
4.095801225808078
4.095801225808078
4.089646753643067
4.065028864983084
4.015793087663061
4.095801225808078
4.108110170138069
4.108110170138069
4.101955697973087
4.101955697973087
4.095801225808078
4.077337809313075
4.083492281478085
4.083492281478085
4.089646753643067
4.095801225808078
4.083492281478085
4.083492281478085
4.083492281478085
4.083492281478085
4.083492281478085
4.083492281478085
4.089646753643067
4.095801225808078
4.095801225808078
4.089646753643067
4.089646753643067
4.083492281478085
4.089646753643067
4.089646753643067
4.095801225808078
4.089646753643067
4.089646753643067
4.095801225808078
4.089646753643067
4.089646753643067
4.089646753643067
4.089646753643067
4.089646753643067
4.089646753643067
4.083492281478085
4.095801225808078
4.089646753643067
4.083492281478085
4.095801225808078
4.101955697973087
4.095801225808078
4.089646753643067
4.095801225808078
4.101955697973087
4.114264642303079
4.114264642303079
4.120419114468088
4.114264642303079
4.114264642303079
4.108110170138069
4.114264642303079
4.108110170138069
4.095801225808078
4.101955697973087
4.101955697973087
4.101955697973087
4.101955697973087
4.089646753643067
4.101955697973087
4.089646753643067
4.083492281478085
4.095801225808078
4.095801225808078
4.095801225808078
4.095801225808078
4.095801225808078
4.095801225808078
4.083492281478085
4.089646753643067
4.089646753643067
4.089646753643067
4.089646753643067
4.095801225808078
4.095801225808078
4.089646753643067
4.095801225808078
4.089646753643067
4.083492281478085
4.0711833371480655
4.077337809313075
4.089646753643067
4.120419114468088
4.1758093639530935
4.249663029933098
4.329671168078114
4.3727524732331275
4.3112077515831135
4.188118308283084
4.083492281478085
4.040410976323072
4.015793087663061
4.015793087663061
4.0465654484880815
4.065028864983084
4.083492281478085
4.077337809313075
4.083492281478085
4.089646753643067
4.083492281478085
4.089646753643067
4.083492281478085
4.089646753643067
4.095801225808078
4.089646753643067
4.095801225808078
4.089646753643067
4.089646753643067
4.089646753643067
4.095801225808078
4.095801225808078
4.095801225808078
4.095801225808078
4.095801225808078
4.095801225808078
4.089646753643067
4.083492281478085
4.095801225808078
4.095801225808078
4.089646753643067
4.0711833371480655
4.015793087663061
4.101955697973087
4.108110170138069
4.083492281478085
4.083492281478085
4.095801225808078
4.095801225808078
4.101955697973087
4.101955697973087
4.095801225808078
4.101955697973087
4.101955697973087
4.095801225808078
4.095801225808078
4.101955697973087
4.101955697973087
4.089646753643067
4.101955697973087
4.089646753643067
4.095801225808078
4.095801225808078
4.101955697973087
4.101955697973087
4.101955697973087
4.089646753643067
4.095801225808078
4.083492281478085
4.089646753643067
4.095801225808078
4.101955697973087
4.095801225808078
4.095801225808078
4.101955697973087
4.101955697973087
4.108110170138069
4.108110170138069
4.114264642303079
4.120419114468088
4.120419114468088
4.120419114468088
4.12657358663307
4.12657358663307
4.120419114468088
4.12657358663307
4.12657358663307
4.114264642303079
4.114264642303079
4.108110170138069
4.108110170138069
4.101955697973087
4.095801225808078
4.095801225808078
4.089646753643067
4.095801225808078
4.083492281478085
4.083492281478085
4.077337809313075
4.077337809313075
4.077337809313075
4.077337809313075
4.0711833371480655
4.077337809313075
4.077337809313075
4.0711833371480655
4.077337809313075
4.0711833371480655
4.0711833371480655
4.0711833371480655
4.0711833371480655
4.0711833371480655
4.077337809313075
4.0711833371480655
4.077337809313075
4.0711833371480655
4.0711833371480655
4.077337809313075
4.077337809313075
4.0711833371480655
4.077337809313075
4.077337809313075
4.0711833371480655
4.065028864983084
4.0711833371480655
4.077337809313075
4.0711833371480655
4.0711833371480655
4.065028864983084
4.065028864983084
4.0711833371480655
4.0711833371480655
4.0711833371480655
4.065028864983084
4.065028864983084
4.0711833371480655
4.065028864983084
4.077337809313075
4.065028864983084
4.065028864983084
4.0711833371480655
4.0711833371480655
4.077337809313075
4.077337809313075
4.0711833371480655
4.077337809313075
4.0711833371480655
4.065028864983084
4.077337809313075
4.0711833371480655
4.083492281478085
4.0711833371480655
4.077337809313075
4.0711833371480655
4.065028864983084
3.9788662546730578
4.0711833371480655
4.083492281478085
4.083492281478085
4.089646753643067
4.095801225808078
4.095801225808078
4.083492281478085
4.0465654484880815
3.9911751990030497
4.077337809313075
4.095801225808078
4.089646753643067
4.089646753643067
4.083492281478085
4.0711833371480655
4.065028864983084
4.077337809313075
4.077337809313075
4.077337809313075
4.077337809313075
4.083492281478085
4.077337809313075
4.077337809313075
4.077337809313075
4.083492281478085
4.095801225808078
4.089646753643067
4.095801225808078
4.095801225808078
4.095801225808078
4.083492281478085
4.083492281478085
4.095801225808078
4.095801225808078
4.095801225808078
4.095801225808078
4.095801225808078
4.089646753643067
4.083492281478085
4.089646753643067
4.089646753643067
4.089646753643067
4.095801225808078
4.095801225808078
4.095801225808078
4.095801225808078
4.089646753643067
4.089646753643067
4.095801225808078
4.095801225808078
4.101955697973087
4.101955697973087
4.108110170138069
4.120419114468088
4.108110170138069
4.114264642303079
4.108110170138069
4.108110170138069
4.108110170138069
4.114264642303079
4.114264642303079
4.108110170138069
4.101955697973087
4.095801225808078
4.101955697973087
4.101955697973087
4.108110170138069
4.101955697973087
4.101955697973087
4.101955697973087
4.101955697973087
4.095801225808078
4.101955697973087
4.108110170138069
4.101955697973087
4.095801225808078
4.095801225808078
4.089646753643067
4.089646753643067
4.101955697973087
4.095801225808078
4.095801225808078
4.095801225808078
4.101955697973087
4.101955697973087
4.083492281478085
4.077337809313075
4.083492281478085
4.089646753643067
4.114264642303079
4.163500419623101
4.237354085603107
4.335825640243124
4.397370361893111
4.3727524732331275
4.237354085603107
4.114264642303079
4.058874392818074
4.034256504158063
4.040410976323072
4.058874392818074
4.077337809313075
4.089646753643067
4.083492281478085
4.089646753643067
4.083492281478085
4.089646753643067
4.089646753643067
4.077337809313075
4.077337809313075
4.077337809313075
4.089646753643067
4.083492281478085
4.083492281478085
4.095801225808078
4.083492281478085
4.083492281478085
4.083492281478085
4.095801225808078
4.095801225808078
4.095801225808078
4.089646753643067
4.089646753643067
4.095801225808078
4.089646753643067
4.089646753643067
4.089646753643067
4.089646753643067
4.089646753643067
4.077337809313075
4.009638615498079
4.095801225808078
4.083492281478085
4.077337809313075
4.095801225808078
4.095801225808078
4.095801225808078
4.089646753643067
4.095801225808078
4.095801225808078
4.089646753643067
4.095801225808078
4.095801225808078
4.101955697973087
4.095801225808078
4.095801225808078
4.095801225808078
4.095801225808078
4.089646753643067
4.095801225808078
4.089646753643067
4.089646753643067
4.089646753643067
4.089646753643067
4.095801225808078
4.095801225808078
4.083492281478085
4.101955697973087
4.101955697973087
4.095801225808078
4.101955697973087
4.108110170138069
4.108110170138069
4.101955697973087
4.108110170138069
4.120419114468088
4.120419114468088
4.120419114468088
4.12657358663307
4.138882530963089
4.1327280587980795
4.1327280587980795
4.12657358663307
4.12657358663307
4.1327280587980795
4.1327280587980795
4.12657358663307
4.1327280587980795
4.120419114468088
4.108110170138069
4.108110170138069
4.120419114468088
4.108110170138069
4.114264642303079
4.114264642303079
4.114264642303079
4.108110170138069
4.101955697973087
4.114264642303079
4.108110170138069
4.095801225808078
4.095801225808078
4.101955697973087
4.101955697973087
4.101955697973087
4.101955697973087
4.095801225808078
4.101955697973087
4.108110170138069
4.101955697973087
4.108110170138069
4.108110170138069
4.108110170138069
4.101955697973087
4.101955697973087
4.108110170138069
4.108110170138069
4.101955697973087
4.101955697973087
4.101955697973087
4.108110170138069
4.101955697973087
4.114264642303079
4.114264642303079
4.108110170138069
4.108110170138069
4.108110170138069
4.108110170138069
4.108110170138069
4.108110170138069
4.114264642303079
4.114264642303079
4.114264642303079
4.114264642303079
4.114264642303079
4.120419114468088
4.108110170138069
4.114264642303079
4.114264642303079
4.120419114468088
4.120419114468088
4.108110170138069
4.114264642303079
4.114264642303079
4.101955697973087
4.108110170138069
4.120419114468088
4.120419114468088
4.120419114468088
4.12657358663307
4.1327280587980795
4.1327280587980795
4.12657358663307
4.1327280587980795
4.1327280587980795
4.138882530963089
4.12657358663307
4.1327280587980795
4.12657358663307
4.120419114468088
4.114264642303079
4.108110170138069
4.052719920653064
4.1327280587980795
4.1327280587980795
4.1327280587980795
4.1327280587980795
4.12657358663307
4.101955697973087
4.114264642303079
4.120419114468088
4.12657358663307
4.114264642303079
4.12657358663307
4.12657358663307
4.120419114468088
4.120419114468088
4.120419114468088
4.120419114468088
4.120419114468088
4.12657358663307
4.120419114468088
4.114264642303079
4.114264642303079
4.108110170138069
4.120419114468088
4.114264642303079
4.114264642303079
4.120419114468088
4.120419114468088
4.120419114468088
4.120419114468088
4.120419114468088
4.12657358663307
4.120419114468088
4.120419114468088
4.120419114468088
4.12657358663307
4.138882530963089
4.138882530963089
4.1327280587980795
4.138882530963089
4.1327280587980795
4.12657358663307
4.12657358663307
4.12657358663307
4.12657358663307
4.120419114468088
4.114264642303079
4.120419114468088
4.120419114468088
4.114264642303079
4.114264642303079
4.114264642303079
4.114264642303079
4.108110170138069
4.101955697973087
4.101955697973087
4.101955697973087
4.108110170138069
4.108110170138069
4.108110170138069
4.089646753643067
4.009638615498079
4.101955697973087
4.12657358663307
4.12657358663307
4.114264642303079
4.108110170138069
4.095801225808078
4.083492281478085
4.058874392818074
4.058874392818074
4.077337809313075
4.095801225808078
4.12657358663307
4.188118308283084
4.261971974263091
4.335825640243124
4.354289056738125
4.2681264464281
4.1327280587980795
4.058874392818074
4.021947559828071
4.009638615498079
4.015793087663061
4.0465654484880815
4.077337809313075
4.083492281478085
4.089646753643067
4.089646753643067
4.095801225808078
4.095801225808078
4.095801225808078
4.095801225808078
4.101955697973087
4.108110170138069
4.108110170138069
4.101955697973087
4.108110170138069
4.101955697973087
4.114264642303079
4.108110170138069
4.114264642303079
4.114264642303079
4.114264642303079
4.12657358663307
4.145037003128072
4.138882530963089
4.1327280587980795
4.12657358663307
4.120419114468088
4.114264642303079
4.120419114468088
4.12657358663307
4.12657358663307
4.12657358663307
4.12657358663307
4.120419114468088
4.12657358663307
4.1327280587980795
4.12657358663307
4.1327280587980795
4.114264642303079
4.0465654484880815
4.12657358663307
4.120419114468088
4.120419114468088
4.120419114468088
4.1327280587980795
4.1327280587980795
4.12657358663307
4.12657358663307
4.12657358663307
4.1327280587980795
4.1327280587980795
4.12657358663307
4.1327280587980795
4.12657358663307
4.1327280587980795
4.138882530963089
4.1327280587980795
4.138882530963089
4.138882530963089
4.145037003128072
4.138882530963089
4.145037003128072
4.145037003128072
4.151191475293081
4.138882530963089
4.151191475293081
4.151191475293081
4.157345947458091
4.157345947458091
4.157345947458091
4.157345947458091
4.145037003128072
4.145037003128072
4.145037003128072
4.138882530963089
4.138882530963089
4.1327280587980795
4.1327280587980795
4.1327280587980795
4.120419114468088
4.12657358663307
4.120419114468088
4.120419114468088
4.114264642303079
4.114264642303079
4.114264642303079
4.120419114468088
4.108110170138069
4.108110170138069
4.108110170138069
4.114264642303079
4.114264642303079
4.120419114468088
4.114264642303079
4.120419114468088
4.108110170138069
4.114264642303079
4.120419114468088
4.114264642303079
4.114264642303079
4.114264642303079
4.114264642303079
4.114264642303079
4.12657358663307
4.120419114468088
4.12657358663307
4.120419114468088
4.120419114468088
4.120419114468088
4.120419114468088
4.12657358663307
4.120419114468088
4.12657358663307
4.120419114468088
4.120419114468088
4.12657358663307
4.12657358663307
4.12657358663307
4.1327280587980795
4.12657358663307
4.12657358663307
4.12657358663307
4.120419114468088
4.12657358663307
4.120419114468088
4.120419114468088
4.120419114468088
4.120419114468088
4.12657358663307
4.120419114468088
4.12657358663307
4.12657358663307
4.12657358663307
4.120419114468088
4.12657358663307
4.114264642303079
4.12657358663307
4.120419114468088
4.12657358663307
4.114264642303079
4.120419114468088
4.114264642303079
4.120419114468088
4.114264642303079
4.120419114468088
4.12657358663307
4.120419114468088
4.120419114468088
4.120419114468088
4.120419114468088
4.114264642303079
4.120419114468088
4.120419114468088
4.12657358663307
4.120419114468088
4.120419114468088
4.114264642303079
4.120419114468088
4.120419114468088
4.120419114468088
4.095801225808078
4.040410976323072
4.120419114468088
4.12657358663307
4.12657358663307
4.120419114468088
4.114264642303079
4.095801225808078
4.101955697973087
4.108110170138069
4.120419114468088
4.114264642303079
4.120419114468088
4.120419114468088
4.114264642303079
4.108110170138069
4.120419114468088
4.114264642303079
4.114264642303079
4.114264642303079
4.114264642303079
4.114264642303079
4.108110170138069
4.114264642303079
4.120419114468088
4.114264642303079
4.12657358663307
4.1327280587980795
4.12657358663307
4.12657358663307
4.120419114468088
4.1327280587980795
4.1327280587980795
4.12657358663307
4.12657358663307
4.12657358663307
4.12657358663307
4.120419114468088
4.114264642303079
4.114264642303079
4.108110170138069
4.114264642303079
4.108110170138069
4.114264642303079
4.108110170138069
4.114264642303079
4.108110170138069
4.108110170138069
4.108110170138069
4.114264642303079
4.108110170138069
4.114264642303079
4.108110170138069
4.101955697973087
4.108110170138069
4.114264642303079
4.114264642303079
4.108110170138069
4.114264642303079
4.114264642303079
4.108110170138069
4.089646753643067
4.101955697973087
4.108110170138069
4.138882530963089
4.2065817247780855
4.292744335088111
4.366598001068117
4.40352483405812
4.329671168078114
4.2065817247780855
4.101955697973087
4.058874392818074
4.0465654484880815
4.052719920653064
4.077337809313075
4.095801225808078
4.101955697973087
4.101955697973087
4.095801225808078
4.095801225808078
4.108110170138069
4.101955697973087
4.101955697973087
4.108110170138069
4.101955697973087
4.108110170138069
4.108110170138069
4.108110170138069
4.114264642303079
4.114264642303079
4.108110170138069
4.114264642303079
4.114264642303079
4.120419114468088
4.120419114468088
4.120419114468088
4.120419114468088
4.120419114468088
4.120419114468088
4.120419114468088
4.114264642303079
4.12657358663307
4.120419114468088
4.12657358663307
4.12657358663307
4.120419114468088
4.12657358663307
4.12657358663307
4.120419114468088
4.1327280587980795
4.12657358663307
4.1327280587980795
4.12657358663307
4.12657358663307
4.1327280587980795
4.12657358663307
4.12657358663307
4.120419114468088
4.12657358663307
4.12657358663307
4.12657358663307
4.101955697973087
4.040410976323072
4.108110170138069
4.114264642303079
4.114264642303079
4.120419114468088
4.12657358663307
4.120419114468088
4.12657358663307
4.120419114468088
4.0465654484880815
4.101955697973087
4.145037003128072
4.145037003128072
4.145037003128072
4.145037003128072
4.151191475293081
4.151191475293081
4.1327280587980795
4.138882530963089
4.145037003128072
4.151191475293081
4.151191475293081
4.157345947458091
4.151191475293081
4.145037003128072
4.138882530963089
4.145037003128072
4.145037003128072
4.138882530963089
4.138882530963089
4.1327280587980795
4.12657358663307
4.120419114468088
4.120419114468088
4.120419114468088
4.120419114468088
4.1327280587980795
4.120419114468088
4.120419114468088
4.12657358663307
4.120419114468088
4.114264642303079
4.12657358663307
4.12657358663307
4.120419114468088
4.12657358663307
4.120419114468088
4.120419114468088
4.120419114468088
4.120419114468088
4.120419114468088
4.120419114468088
4.120419114468088
4.12657358663307
4.120419114468088
4.120419114468088
4.120419114468088
4.12657358663307
4.12657358663307
4.1327280587980795
4.1327280587980795
4.1327280587980795
4.1327280587980795
4.1327280587980795
4.120419114468088
4.1327280587980795
4.138882530963089
4.1327280587980795
4.1327280587980795
4.12657358663307
4.138882530963089
4.12657358663307
4.12657358663307
4.138882530963089
4.1327280587980795
4.1327280587980795
4.1327280587980795
4.1327280587980795
4.1327280587980795
4.1327280587980795
4.12657358663307
4.1327280587980795
4.12657358663307
4.1327280587980795
4.1327280587980795
4.1327280587980795
4.1327280587980795
4.120419114468088
4.12657358663307
4.1327280587980795
4.12657358663307
4.1327280587980795
4.1327280587980795
4.12657358663307
4.1327280587980795
4.1327280587980795
4.12657358663307
4.1327280587980795
4.12657358663307
4.1327280587980795
4.1327280587980795
4.1327280587980795
4.1327280587980795
4.1327280587980795
4.1327280587980795
4.12657358663307
4.138882530963089
4.138882530963089
4.1327280587980795
4.1327280587980795
4.138882530963089
4.1327280587980795
4.138882530963089
4.138882530963089
4.1327280587980795
4.145037003128072
4.138882530963089
4.138882530963089
4.138882530963089
4.1327280587980795
4.1327280587980795
4.114264642303079
4.0465654484880815
4.138882530963089
4.145037003128072
4.145037003128072
4.138882530963089
4.12657358663307
4.120419114468088
4.1327280587980795
4.138882530963089
4.138882530963089
4.1327280587980795
4.1327280587980795
4.138882530963089
4.1327280587980795
4.1327280587980795
4.1327280587980795
4.1327280587980795
4.1327280587980795
4.1327280587980795
4.138882530963089
4.1327280587980795
4.138882530963089
4.145037003128072
4.1327280587980795
4.138882530963089
4.145037003128072
4.157345947458091
4.157345947458091
4.151191475293081
4.145037003128072
4.151191475293081
4.157345947458091
4.157345947458091
4.145037003128072
4.151191475293081
4.145037003128072
4.1327280587980795
4.145037003128072
4.145037003128072
4.145037003128072
4.145037003128072
4.138882530963089
4.145037003128072
4.145037003128072
4.1327280587980795
4.1327280587980795
4.138882530963089
4.138882530963089
4.138882530963089
4.1327280587980795
4.138882530963089
4.12657358663307
4.120419114468088
4.1327280587980795
4.138882530963089
4.138882530963089
4.145037003128072
4.1327280587980795
4.1327280587980795
4.120419114468088
4.12657358663307
4.138882530963089
4.163500419623101
4.231199613438097
4.3173622237481215
4.40352483405812
4.434297194883113
4.366598001068117
4.212736196943095
4.101955697973087
4.0711833371480655
4.065028864983084
4.077337809313075
4.095801225808078
4.114264642303079
4.108110170138069
4.114264642303079
4.120419114468088
4.114264642303079
4.120419114468088
4.120419114468088
4.12657358663307
4.12657358663307
4.12657358663307
4.1327280587980795
4.1327280587980795
4.1327280587980795
4.1327280587980795
4.12657358663307
4.12657358663307
4.12657358663307
4.12657358663307
4.1327280587980795
4.12657358663307
4.1327280587980795
4.12657358663307
4.12657358663307
4.1327280587980795
4.12657358663307
4.12657358663307
4.12657358663307
4.1327280587980795
4.1327280587980795
4.12657358663307
4.1327280587980795
4.1327280587980795
4.12657358663307
4.120419114468088
4.1327280587980795
4.138882530963089
4.138882530963089
4.1327280587980795
4.138882530963089
4.138882530963089
4.12657358663307
4.1327280587980795
4.1327280587980795
4.1327280587980795
4.1327280587980795
4.12657358663307
4.12657358663307
4.101955697973087
4.021947559828071
4.095801225808078
4.108110170138069
4.114264642303079
4.120419114468088
4.114264642303079
4.120419114468088
4.12657358663307
4.120419114468088
4.120419114468088
4.1327280587980795
4.1327280587980795
4.1327280587980795
4.145037003128072
4.145037003128072
4.151191475293081
4.151191475293081
4.157345947458091
4.163500419623101
4.169654891788083
4.163500419623101
4.163500419623101
4.169654891788083
4.157345947458091
4.157345947458091
4.151191475293081
4.151191475293081
4.157345947458091
4.145037003128072
4.145037003128072
4.145037003128072
4.145037003128072
4.12657358663307
4.1327280587980795
4.1327280587980795
4.1327280587980795
4.138882530963089
4.138882530963089
4.1327280587980795
4.12657358663307
4.120419114468088
4.1327280587980795
4.138882530963089
4.138882530963089
4.138882530963089
4.138882530963089
4.1327280587980795
4.1327280587980795
4.12657358663307
4.1327280587980795
4.12657358663307
4.1327280587980795
4.1327280587980795
4.1327280587980795
4.1327280587980795
4.1327280587980795
4.138882530963089
4.1327280587980795
4.138882530963089
4.1327280587980795
4.138882530963089
4.1327280587980795
4.1327280587980795
4.12657358663307
4.1327280587980795
4.138882530963089
4.138882530963089
4.1327280587980795
4.1327280587980795
4.1327280587980795
4.12657358663307
4.12657358663307
4.12657358663307
4.1327280587980795
4.1327280587980795
4.1327280587980795
4.1327280587980795
4.138882530963089
4.1327280587980795
4.058874392818074
4.101955697973087
4.151191475293081
4.157345947458091
4.151191475293081
4.145037003128072
4.138882530963089
4.138882530963089
4.114264642303079
4.120419114468088
4.12657358663307
4.12657358663307
4.1327280587980795
4.1327280587980795
4.1327280587980795
4.1327280587980795
4.12657358663307
4.1327280587980795
4.1327280587980795
4.12657358663307
4.1327280587980795
4.12657358663307
4.1327280587980795
4.12657358663307
4.12657358663307
4.12657358663307
4.12657358663307
4.1327280587980795
4.1327280587980795
4.120419114468088
4.120419114468088
4.12657358663307
4.120419114468088
4.12657358663307
4.120419114468088
4.120419114468088
4.120419114468088
4.12657358663307
4.120419114468088
4.114264642303079
4.12657358663307
4.12657358663307
4.095801225808078
4.040410976323072
4.12657358663307
4.1327280587980795
4.12657358663307
4.114264642303079
4.108110170138069
4.114264642303079
4.114264642303079
4.114264642303079
4.120419114468088
4.114264642303079
4.114264642303079
4.114264642303079
4.120419114468088
4.114264642303079
4.114264642303079
4.120419114468088
4.12657358663307
4.120419114468088
4.120419114468088
4.120419114468088
4.120419114468088
4.12657358663307
4.12657358663307
4.138882530963089
4.1327280587980795
4.138882530963089
4.1327280587980795
4.12657358663307
4.12657358663307
4.12657358663307
4.120419114468088
4.120419114468088
4.12657358663307
4.12657358663307
4.114264642303079
4.108110170138069
4.114264642303079
4.120419114468088
4.120419114468088
4.120419114468088
4.120419114468088
4.114264642303079
4.120419114468088
4.120419114468088
4.120419114468088
4.120419114468088
4.120419114468088
4.120419114468088
4.114264642303079
4.120419114468088
4.114264642303079
4.120419114468088
4.120419114468088
4.12657358663307
4.120419114468088
4.120419114468088
4.108110170138069
4.101955697973087
4.095801225808078
4.120419114468088
4.145037003128072
4.2065817247780855
4.27428091859311
4.360443528903107
4.40352483405812
4.329671168078114
4.188118308283084
4.095801225808078
4.052719920653064
4.040410976323072
4.040410976323072
4.077337809313075
4.095801225808078
4.101955697973087
4.108110170138069
4.108110170138069
4.108110170138069
4.108110170138069
4.108110170138069
4.108110170138069
4.108110170138069
4.101955697973087
4.095801225808078
4.101955697973087
4.114264642303079
4.114264642303079
4.108110170138069
4.101955697973087
4.101955697973087
4.108110170138069
4.101955697973087
4.101955697973087
4.101955697973087
4.108110170138069
4.114264642303079
4.114264642303079
4.108110170138069
4.108110170138069
4.114264642303079
4.114264642303079
4.114264642303079
4.108110170138069
4.108110170138069
4.114264642303079
4.114264642303079
4.120419114468088
4.120419114468088
4.114264642303079
4.114264642303079
4.120419114468088
4.114264642303079
4.120419114468088
4.114264642303079
4.114264642303079
4.120419114468088
4.114264642303079
4.120419114468088
4.12657358663307
4.120419114468088
4.120419114468088
4.095801225808078
4.028102031993082
4.1327280587980795
4.145037003128072
4.145037003128072
4.138882530963089
4.1327280587980795
4.138882530963089
4.1327280587980795
4.120419114468088
4.12657358663307
4.1327280587980795
4.1327280587980795
4.145037003128072
4.151191475293081
4.151191475293081
4.145037003128072
4.157345947458091
4.163500419623101
4.157345947458091
4.157345947458091
4.151191475293081
4.151191475293081
4.145037003128072
4.145037003128072
4.138882530963089
4.145037003128072
4.1327280587980795
4.1327280587980795
4.1327280587980795
4.12657358663307
4.12657358663307
4.114264642303079
4.114264642303079
4.120419114468088
4.114264642303079
4.120419114468088
4.108110170138069
4.108110170138069
4.114264642303079
4.108110170138069
4.101955697973087
4.114264642303079
4.108110170138069
4.101955697973087
4.114264642303079
4.108110170138069
4.108110170138069
4.108110170138069
4.108110170138069
4.108110170138069
4.108110170138069
4.108110170138069
4.108110170138069
4.108110170138069
4.108110170138069
4.108110170138069
4.108110170138069
4.108110170138069
4.108110170138069
4.114264642303079
4.114264642303079
4.114264642303079
4.108110170138069
4.108110170138069
4.114264642303079
4.114264642303079
4.120419114468088
4.114264642303079
4.114264642303079
4.120419114468088
4.120419114468088
4.114264642303079
4.120419114468088
4.12657358663307
4.120419114468088
4.12657358663307
4.120419114468088
4.12657358663307
4.120419114468088
4.120419114468088
4.1327280587980795
4.1327280587980795
4.1327280587980795
4.12657358663307
4.1327280587980795
4.12657358663307
4.120419114468088
4.12657358663307
4.12657358663307
4.12657358663307
4.1327280587980795
4.138882530963089
4.12657358663307
4.138882530963089
4.1327280587980795
4.12657358663307
4.138882530963089
4.138882530963089
4.138882530963089
4.1327280587980795
4.138882530963089
4.138882530963089
4.138882530963089
4.145037003128072
4.138882530963089
4.138882530963089
4.138882530963089
4.1327280587980795
4.1327280587980795
4.1327280587980795
4.1327280587980795
4.145037003128072
4.138882530963089
4.138882530963089
4.1327280587980795
4.138882530963089
4.138882530963089
4.138882530963089
4.1327280587980795
4.1327280587980795
4.1327280587980795
4.120419114468088
4.065028864983084
4.145037003128072
4.145037003128072
4.145037003128072
4.114264642303079
4.12657358663307
4.12657358663307
4.1327280587980795
4.138882530963089
4.1327280587980795
4.138882530963089
4.138882530963089
4.1327280587980795
4.138882530963089
4.145037003128072
4.151191475293081
4.151191475293081
4.151191475293081
4.151191475293081
4.145037003128072
4.151191475293081
4.151191475293081
4.157345947458091
4.157345947458091
4.145037003128072
4.138882530963089
4.1327280587980795
4.0711833371480655
4.077337809313075
4.157345947458091
4.151191475293081
4.145037003128072
4.138882530963089
4.138882530963089
4.1327280587980795
4.114264642303079
4.114264642303079
4.120419114468088
4.120419114468088
4.12657358663307
4.12657358663307
4.1327280587980795
4.120419114468088
4.12657358663307
4.12657358663307
4.12657358663307
4.1327280587980795
4.120419114468088
4.114264642303079
4.114264642303079
4.108110170138069
4.12657358663307
4.1758093639530935
4.243508557768089
4.3173622237481215
4.391215889728128
4.37890694539811
4.27428091859311
4.145037003128072
4.0711833371480655
4.0465654484880815
4.040410976323072
4.065028864983084
4.083492281478085
4.108110170138069
4.114264642303079
4.114264642303079
4.108110170138069
4.114264642303079
4.108110170138069
4.114264642303079
4.120419114468088
4.114264642303079
4.114264642303079
4.114264642303079
4.114264642303079
4.120419114468088
4.120419114468088
4.114264642303079
4.120419114468088
4.120419114468088
4.12657358663307
4.114264642303079
4.120419114468088
4.12657358663307
4.120419114468088
4.120419114468088
4.12657358663307
4.12657358663307
4.12657358663307
4.114264642303079
4.120419114468088
4.12657358663307
4.1327280587980795
4.12657358663307
4.1327280587980795
4.12657358663307
4.12657358663307
4.12657358663307
4.1327280587980795
4.1327280587980795
4.1327280587980795
4.12657358663307
4.12657358663307
4.12657358663307
4.12657358663307
4.120419114468088
4.1327280587980795
4.1327280587980795
4.12657358663307
4.12657358663307
4.12657358663307
4.1327280587980795
4.1327280587980795
4.1327280587980795
4.1327280587980795
4.1327280587980795
4.12657358663307
4.12657358663307
4.1327280587980795
4.138882530963089
4.108110170138069
4.052719920653064
4.151191475293081
4.157345947458091
4.157345947458091
4.157345947458091
4.157345947458091
4.163500419623101
4.145037003128072
4.145037003128072
4.151191475293081
4.157345947458091
4.151191475293081
4.151191475293081
4.151191475293081
4.145037003128072
4.138882530963089
4.138882530963089
4.1327280587980795
4.1327280587980795
4.12657358663307
4.1327280587980795
4.1327280587980795
4.12657358663307
4.120419114468088
4.120419114468088
4.120419114468088
4.120419114468088
4.120419114468088
4.120419114468088
4.120419114468088
4.120419114468088
4.120419114468088
4.120419114468088
4.114264642303079
4.120419114468088
4.114264642303079
4.12657358663307
4.12657358663307
4.114264642303079
4.114264642303079
4.120419114468088
4.120419114468088
4.12657358663307
4.120419114468088
4.120419114468088
4.12657358663307
4.120419114468088
4.120419114468088
4.120419114468088
4.120419114468088
4.12657358663307
4.120419114468088
4.12657358663307
4.120419114468088
4.120419114468088
4.120419114468088
4.12657358663307
4.12657358663307
4.1327280587980795
4.1327280587980795
4.12657358663307
4.1327280587980795
4.12657358663307
4.1327280587980795
4.138882530963089
4.1327280587980795
4.1327280587980795
4.138882530963089
4.138882530963089
4.1327280587980795
4.1327280587980795
4.138882530963089
4.138882530963089
4.1327280587980795
4.1327280587980795
4.138882530963089
4.1327280587980795
4.12657358663307
4.1327280587980795
4.12657358663307
4.138882530963089
4.138882530963089
4.138882530963089
4.1327280587980795
4.1327280587980795
4.1327280587980795
4.12657358663307
4.145037003128072
4.145037003128072
4.1327280587980795
4.1327280587980795
4.145037003128072
4.145037003128072
4.138882530963089
4.138882530963089
4.138882530963089
4.138882530963089
4.138882530963089
4.145037003128072
4.145037003128072
4.138882530963089
4.138882530963089
4.145037003128072
4.151191475293081
4.151191475293081
4.145037003128072
4.145037003128072
4.145037003128072
4.145037003128072
4.145037003128072
4.138882530963089
4.145037003128072
4.145037003128072
4.151191475293081
4.151191475293081
4.151191475293081
4.151191475293081
4.138882530963089
4.151191475293081
4.151191475293081
4.151191475293081
4.1327280587980795
4.058874392818074
4.145037003128072
4.163500419623101
4.145037003128072
4.138882530963089
4.138882530963089
4.138882530963089
4.145037003128072
4.138882530963089
4.138882530963089
4.145037003128072
4.1327280587980795
4.145037003128072
4.145037003128072
4.145037003128072
4.151191475293081
4.163500419623101
4.169654891788083
4.163500419623101
4.163500419623101
4.157345947458091
4.157345947458091
4.163500419623101
4.157345947458091
4.163500419623101
4.157345947458091
4.151191475293081
4.145037003128072
4.145037003128072
4.145037003128072
4.151191475293081
4.145037003128072
4.145037003128072
4.151191475293081
4.145037003128072
4.157345947458091
4.157345947458091
4.151191475293081
4.151191475293081
4.151191475293081
4.151191475293081
4.151191475293081
4.145037003128072
4.151191475293081
4.151191475293081
4.145037003128072
4.145037003128072
4.145037003128072
4.145037003128072
4.138882530963089
4.114264642303079
4.1327280587980795
4.145037003128072
4.1758093639530935
4.243508557768089
4.323516695913104
4.40352483405812
4.452760611378115
4.37890694539811
4.249663029933098
4.138882530963089
4.095801225808078
4.083492281478085
4.095801225808078
4.12657358663307
4.1327280587980795
4.1327280587980795
4.138882530963089
4.145037003128072
4.138882530963089
4.138882530963089
4.138882530963089
4.145037003128072
4.1327280587980795
4.138882530963089
4.151191475293081
4.151191475293081
4.138882530963089
4.151191475293081
4.145037003128072
4.151191475293081
4.145037003128072
4.145037003128072
4.145037003128072
4.151191475293081
4.145037003128072
4.151191475293081
4.151191475293081
4.145037003128072
4.145037003128072
4.145037003128072
4.157345947458091
4.151191475293081
4.151191475293081
4.145037003128072
4.151191475293081
4.151191475293081
4.095801225808078
4.083492281478085
4.163500419623101
4.169654891788083
4.163500419623101
4.169654891788083
4.157345947458091
4.151191475293081
4.1327280587980795
4.1327280587980795
4.1327280587980795
4.138882530963089
4.145037003128072
4.145037003128072
4.145037003128072
4.145037003128072
4.138882530963089
4.151191475293081
4.145037003128072
4.145037003128072
4.138882530963089
4.145037003128072
4.138882530963089
4.138882530963089
4.120419114468088
4.058874392818074
4.151191475293081
4.169654891788083
4.163500419623101
4.169654891788083
4.169654891788083
4.169654891788083
4.157345947458091
4.163500419623101
4.1758093639530935
4.188118308283084
4.188118308283084
4.188118308283084
4.181963836118102
4.1758093639530935
4.181963836118102
4.1758093639530935
4.1758093639530935
4.163500419623101
4.163500419623101
4.163500419623101
4.157345947458091
4.145037003128072
4.138882530963089
4.145037003128072
4.138882530963089
4.145037003128072
4.145037003128072
4.138882530963089
4.145037003128072
4.1327280587980795
4.138882530963089
4.138882530963089
4.138882530963089
4.138882530963089
4.145037003128072
4.1327280587980795
4.1327280587980795
4.12657358663307
4.1327280587980795
4.138882530963089
4.1327280587980795
4.1327280587980795
4.1327280587980795
4.1327280587980795
4.1327280587980795
4.12657358663307
4.138882530963089
4.1327280587980795
4.1327280587980795
4.138882530963089
4.138882530963089
4.138882530963089
4.1327280587980795
4.12657358663307
4.138882530963089
4.138882530963089
4.138882530963089
4.138882530963089
4.1327280587980795
4.138882530963089
4.12657358663307
4.1327280587980795
4.138882530963089
4.138882530963089
4.138882530963089
4.1327280587980795
4.1327280587980795
4.12657358663307
4.1327280587980795
4.1327280587980795
4.12657358663307
4.1327280587980795
4.1327280587980795
4.1327280587980795
4.12657358663307
4.120419114468088
4.120419114468088
4.1327280587980795
4.12657358663307
4.1327280587980795
4.12657358663307
4.1327280587980795
4.120419114468088
4.12657358663307
4.114264642303079
4.120419114468088
4.12657358663307
4.1327280587980795
4.1327280587980795
4.1327280587980795
4.12657358663307
4.12657358663307
4.120419114468088
4.1327280587980795
4.1327280587980795
4.120419114468088
4.12657358663307
4.12657358663307
4.12657358663307
4.12657358663307
4.12657358663307
4.120419114468088
4.12657358663307
4.120419114468088
4.120419114468088
4.114264642303079
4.120419114468088
4.114264642303079
4.108110170138069
4.120419114468088
4.120419114468088
4.12657358663307
4.120419114468088
4.120419114468088
4.12657358663307
4.12657358663307
4.120419114468088
4.12657358663307
4.1327280587980795
4.1327280587980795
4.114264642303079
4.040410976323072
4.138882530963089
4.1327280587980795
4.120419114468088
4.120419114468088
4.12657358663307
4.12657358663307
4.12657358663307
4.12657358663307
4.120419114468088
4.114264642303079
4.12657358663307
4.120419114468088
4.12657358663307
4.12657358663307
4.1327280587980795
4.1327280587980795
4.120419114468088
4.12657358663307
4.138882530963089
4.151191475293081
4.145037003128072
4.145037003128072
4.138882530963089
4.138882530963089
4.138882530963089
4.138882530963089
4.1327280587980795
4.138882530963089
4.1327280587980795
4.1327280587980795
4.12657358663307
4.120419114468088
4.1327280587980795
4.120419114468088
4.1327280587980795
4.120419114468088
4.120419114468088
4.120419114468088
4.12657358663307
4.120419114468088
4.120419114468088
4.114264642303079
4.120419114468088
4.120419114468088
4.120419114468088
4.12657358663307
4.12657358663307
4.12657358663307
4.114264642303079
4.120419114468088
4.12657358663307
4.12657358663307
4.120419114468088
4.108110170138069
4.114264642303079
4.12657358663307
4.157345947458091
4.218890669108104
4.3112077515831135
4.385061417563119
4.40967930622313
4.3173622237481215
4.1758093639530935
4.089646753643067
4.040410976323072
4.040410976323072
4.058874392818074
4.083492281478085
4.101955697973087
4.101955697973087
4.108110170138069
4.108110170138069
4.095801225808078
4.108110170138069
4.108110170138069
4.108110170138069
4.108110170138069
4.108110170138069
4.108110170138069
4.114264642303079
4.114264642303079
4.114264642303079
4.120419114468088
4.120419114468088
4.114264642303079
4.108110170138069
4.114264642303079
4.120419114468088
4.108110170138069
4.114264642303079
4.114264642303079
4.114264642303079
4.114264642303079
4.114264642303079
4.114264642303079
4.114264642303079
4.120419114468088
4.120419114468088
4.12657358663307
4.12657358663307
4.12657358663307
4.120419114468088
4.120419114468088
4.12657358663307
4.120419114468088
4.12657358663307
4.12657358663307
4.120419114468088
4.12657358663307
4.12657358663307
4.120419114468088
4.12657358663307
4.120419114468088
4.120419114468088
4.12657358663307
4.120419114468088
4.12657358663307
4.12657358663307
4.12657358663307
4.12657358663307
4.114264642303079
4.065028864983084
4.145037003128072
4.157345947458091
4.151191475293081
4.151191475293081
4.157345947458091
4.1327280587980795
4.1327280587980795
4.138882530963089
4.145037003128072
4.151191475293081
4.157345947458091
4.163500419623101
4.169654891788083
4.157345947458091
4.163500419623101
4.169654891788083
4.163500419623101
4.157345947458091
4.157345947458091
4.145037003128072
4.151191475293081
4.138882530963089
4.138882530963089
4.138882530963089
4.138882530963089
4.138882530963089
4.1327280587980795
4.1327280587980795
4.12657358663307
4.1327280587980795
4.1327280587980795
4.1327280587980795
4.1327280587980795
4.1327280587980795
4.1327280587980795
4.12657358663307
4.12657358663307
4.1327280587980795
4.12657358663307
4.1327280587980795
4.1327280587980795
4.1327280587980795
4.12657358663307
4.12657358663307
4.101955697973087
4.058874392818074
4.151191475293081
4.151191475293081
4.145037003128072
4.151191475293081
4.138882530963089
4.145037003128072
4.1327280587980795
4.114264642303079
4.1327280587980795
4.12657358663307
4.1327280587980795
4.138882530963089
4.138882530963089
4.138882530963089
4.138882530963089
4.138882530963089
4.138882530963089
4.138882530963089
4.138882530963089
4.145037003128072
4.138882530963089
4.1327280587980795
4.1327280587980795
4.145037003128072
4.145037003128072
4.138882530963089
4.145037003128072
4.145037003128072
4.138882530963089
4.138882530963089
4.138882530963089
4.138882530963089
4.138882530963089
4.138882530963089
4.145037003128072
4.138882530963089
4.138882530963089
4.1327280587980795
4.138882530963089
4.138882530963089
4.145037003128072
4.138882530963089
4.138882530963089
4.138882530963089
4.138882530963089
4.138882530963089
4.138882530963089
4.145037003128072
4.145037003128072
4.151191475293081
4.151191475293081
4.151191475293081
4.151191475293081
4.138882530963089
4.151191475293081
4.145037003128072
4.145037003128072
4.151191475293081
4.151191475293081
4.145037003128072
4.145037003128072
4.138882530963089
4.138882530963089
4.151191475293081
4.151191475293081
4.145037003128072
4.145037003128072
4.151191475293081
4.151191475293081
4.138882530963089
4.151191475293081
4.151191475293081
4.151191475293081
4.151191475293081
4.1327280587980795
4.0711833371480655
4.151191475293081
4.138882530963089
4.138882530963089
4.138882530963089
4.138882530963089
4.145037003128072
4.145037003128072
4.145037003128072
4.151191475293081
4.151191475293081
4.157345947458091
4.157345947458091
4.163500419623101
4.169654891788083
4.169654891788083
4.163500419623101
4.163500419623101
4.151191475293081
4.157345947458091
4.151191475293081
4.151191475293081
4.145037003128072
4.138882530963089
4.138882530963089
4.145037003128072
4.145037003128072
4.138882530963089
4.138882530963089
4.138882530963089
4.138882530963089
4.138882530963089
4.1327280587980795
4.1327280587980795
4.1327280587980795
4.1327280587980795
4.138882530963089
4.1327280587980795
4.12657358663307
4.1327280587980795
4.138882530963089
4.12657358663307
4.1327280587980795
4.1327280587980795
4.120419114468088
4.120419114468088
4.1327280587980795
4.151191475293081
4.200427252613103
4.261971974263091
4.348134584573115
4.40967930622313
4.3727524732331275
4.243508557768089
4.1327280587980795
4.0711833371480655
4.0465654484880815
4.052719920653064
4.077337809313075
4.095801225808078
4.114264642303079
4.12657358663307
4.114264642303079
4.120419114468088
4.120419114468088
4.114264642303079
4.114264642303079
4.120419114468088
4.120419114468088
4.120419114468088
4.120419114468088
4.120419114468088
4.120419114468088
4.114264642303079
4.120419114468088
4.120419114468088
4.12657358663307
4.12657358663307
4.12657358663307
4.12657358663307
4.120419114468088
4.12657358663307
4.12657358663307
4.138882530963089
4.1327280587980795
4.1327280587980795
4.138882530963089
4.1327280587980795
4.12657358663307
4.138882530963089
4.138882530963089
4.1327280587980795
4.138882530963089
4.1327280587980795
4.1327280587980795
4.1327280587980795
4.1327280587980795
4.145037003128072
4.138882530963089
4.145037003128072
4.138882530963089
4.145037003128072
4.145037003128072
4.145037003128072
4.1327280587980795
4.145037003128072
4.145037003128072
4.145037003128072
4.138882530963089
4.145037003128072
4.138882530963089
4.1327280587980795
4.12657358663307
4.138882530963089
4.138882530963089
4.138882530963089
4.151191475293081
4.145037003128072
4.145037003128072
4.151191475293081
4.145037003128072
4.138882530963089
4.077337809313075
4.169654891788083
4.188118308283084
4.181963836118102
4.181963836118102
4.1758093639530935
4.163500419623101
4.163500419623101
4.163500419623101
4.157345947458091
4.157345947458091
4.151191475293081
4.151191475293081
4.145037003128072
4.145037003128072
4.145037003128072
4.138882530963089
4.1327280587980795
4.1327280587980795
4.138882530963089
4.138882530963089
4.1327280587980795
4.138882530963089
4.1327280587980795
4.138882530963089
4.1327280587980795
4.1327280587980795
4.138882530963089
4.1327280587980795
4.12657358663307
4.12657358663307
4.1327280587980795
4.1327280587980795
4.1327280587980795
4.1327280587980795
4.1327280587980795
4.138882530963089
4.12657358663307
4.138882530963089
4.1327280587980795
4.1327280587980795
4.1327280587980795
4.138882530963089
4.138882530963089
4.1327280587980795
4.138882530963089
4.1327280587980795
4.145037003128072
4.145037003128072
4.138882530963089
4.138882530963089
4.138882530963089
4.145037003128072
4.138882530963089
4.138882530963089
4.138882530963089
4.151191475293081
4.145037003128072
4.145037003128072
4.145037003128072
4.138882530963089
4.145037003128072
4.145037003128072
4.145037003128072
4.145037003128072
4.151191475293081
4.151191475293081
4.151191475293081
4.138882530963089
4.145037003128072
4.145037003128072
4.157345947458091
4.145037003128072
4.145037003128072
4.145037003128072
4.145037003128072
4.145037003128072
4.138882530963089
4.151191475293081
4.151191475293081
4.138882530963089
4.145037003128072
4.145037003128072
4.145037003128072
4.1327280587980795
4.138882530963089
4.138882530963089
4.138882530963089
4.138882530963089
4.145037003128072
4.138882530963089
4.1327280587980795
4.138882530963089
4.145037003128072
4.138882530963089
4.145037003128072
4.138882530963089
4.145037003128072
4.138882530963089
4.145037003128072
4.1327280587980795
4.138882530963089
4.138882530963089
4.145037003128072
4.138882530963089
4.145037003128072
4.138882530963089
4.138882530963089
4.1327280587980795
4.145037003128072
4.145037003128072
4.138882530963089
4.138882530963089
4.138882530963089
4.138882530963089
4.114264642303079
4.052719920653064
4.138882530963089
4.145037003128072
4.151191475293081
4.145037003128072
4.120419114468088
4.040410976323072
4.108110170138069
4.120419114468088
4.120419114468088
4.1327280587980795
4.138882530963089
4.151191475293081
4.145037003128072
4.145037003128072
4.145037003128072
4.138882530963089
4.145037003128072
4.138882530963089
4.138882530963089
4.145037003128072
4.1327280587980795
4.1327280587980795
4.1327280587980795
4.1327280587980795
4.138882530963089
4.1327280587980795
4.138882530963089
4.1327280587980795
4.1327280587980795
4.1327280587980795
4.12657358663307
4.12657358663307
4.138882530963089
4.12657358663307
4.1327280587980795
4.1327280587980795
4.1327280587980795
4.1327280587980795
4.120419114468088
4.1327280587980795
4.138882530963089
4.138882530963089
4.1327280587980795
4.12657358663307
4.120419114468088
4.120419114468088
4.1327280587980795
4.169654891788083
4.237354085603107
4.323516695913104
4.415833778388112
4.428142722718132
4.323516695913104
4.181963836118102
4.089646753643067
4.0711833371480655
4.058874392818074
4.083492281478085
