4.1758093639530935
4.237354085603107
4.280435390758092
4.323516695913104
4.40352483405812
4.760484219628157
4.440451667048122
4.3112077515831135
4.2865898629231
4.298898807253093
4.249663029933098
4.188118308283084
4.1327280587980795
4.040410976323072
4.021947559828071
4.0465654484880815
3.9850207268380675
3.9850207268380675
3.886549172198051
3.9604028381780574
4.945118384578201
4.735866330968175
4.2065817247780855
4.218890669108104
4.2681264464281
4.27428091859311
4.255817502098108
3.7757686732280415
2.8095165433228986
3.9357849495180455
4.151191475293081
4.2065817247780855
4.243508557768089
4.120419114468088
4.101955697973087
4.231199613438097
4.089646753643067
4.0711833371480655
4.089646753643067
4.151191475293081
4.12657358663307
4.12657358663307
4.101955697973087
4.212736196943095
4.0711833371480655
4.12657358663307
3.9296304773530633
4.009638615498079
4.138882530963089
4.077337809313075
4.034256504158063
4.0711833371480655
3.9788662546730578
4.083492281478085
4.015793087663061
3.9850207268380675
4.021947559828071
3.9727117825080476
3.948093893848065
3.9973296711680604
4.034256504158063
3.9542483660130467
3.9296304773530633
3.9542483660130467
4.021947559828071
4.015793087663061
4.028102031993082
3.9727117825080476
4.003484143333068
4.108110170138069
4.0465654484880815
4.034256504158063
4.040410976323072
4.157345947458091
4.163500419623101
3.9850207268380675
3.9973296711680604
3.9973296711680604
4.040410976323072
3.9357849495180455
3.9604028381780574
4.003484143333068
3.781923145393024
3.504971897968001
4.495841916533128
4.212736196943095
4.065028864983084
4.360443528903107
4.2865898629231
4.151191475293081
4.1942727804480935
4.077337809313075
4.058874392818074
4.114264642303079
4.169654891788083
4.077337809313075
4.089646753643067
4.1942727804480935
4.181963836118102
4.0465654484880815
3.9296304773530633
3.4741995371429804
3.8680857557030492
4.034256504158063
4.028102031993082
4.052719920653064
4.231199613438097
3.9542483660130467
3.9727117825080476
4.0465654484880815
4.028102031993082
4.040410976323072
4.028102031993082
3.9911751990030497
4.138882530963089
4.034256504158063
3.9665573103430654
3.9973296711680604
4.095801225808078
4.120419114468088
3.9973296711680604
4.0711833371480655
4.0711833371480655
4.101955697973087
4.095801225808078
4.009638615498079
4.108110170138069
4.077337809313075
4.305053279418103
4.2065817247780855
4.028102031993082
4.0711833371480655
4.058874392818074
4.0465654484880815
4.0465654484880815
4.095801225808078
4.065028864983084
4.723557386638155
3.7449963124030208
3.8065410340530352
4.0465654484880815
4.588158999008135
5.326695658808251
3.8803947000330408
4.12657358663307
3.3141832608529764
2.8525978484779113
3.9788662546730578
4.089646753643067
4.095801225808078
4.0711833371480655
4.089646753643067
4.12657358663307
4.138882530963089
4.003484143333068
4.095801225808078
4.231199613438097
4.058874392818074
4.009638615498079
4.101955697973087
4.12657358663307
4.114264642303079
4.058874392818074
4.095801225808078
4.095801225808078
4.089646753643067
4.089646753643067
4.0465654484880815
4.028102031993082
4.2065817247780855
4.065028864983084
3.9788662546730578
4.058874392818074
4.0465654484880815
4.015793087663061
3.9911751990030497
4.003484143333068
4.028102031993082
3.9542483660130467
3.9357849495180455
3.9727117825080476
3.9973296711680604
3.9604028381780574
3.8496223392080475
3.75730525673304
3.8927036443630603
4.058874392818074
3.9296304773530633
3.9727117825080476
4.021947559828071
3.9542483660130467
3.9850207268380675
4.028102031993082
3.9911751990030497
4.028102031993082
4.052719920653064
4.028102031993082
4.058874392818074
4.083492281478085
4.028102031993082
4.028102031993082
4.052719920653064
4.083492281478085
4.058874392818074
3.8496223392080475
3.609597924773
4.575850054678144
4.231199613438097
4.089646753643067
4.021947559828071
4.114264642303079
4.108110170138069
4.021947559828071
4.021947559828071
4.083492281478085
4.052719920653064
4.040410976323072
3.9911751990030497
4.089646753643067
4.120419114468088
4.009638615498079
4.034256504158063
4.058874392818074
4.077337809313075
4.089646753643067
3.9604028381780574
4.034256504158063
4.015793087663061
3.9911751990030497
3.9050125886930522
3.9419394216830552
4.015793087663061
3.9788662546730578
3.837313394878028
3.9788662546730578
3.9173215330230438
3.948093893848065
3.8988581165280416
3.9234760051880535
4.003484143333068
4.015793087663061
3.9296304773530633
3.9727117825080476
4.052719920653064
4.021947559828071
3.9604028381780574
4.058874392818074
4.034256504158063
3.9727117825080476
3.9419394216830552
3.9173215330230438
3.9542483660130467
3.8496223392080475
3.781923145393024
3.7449963124030208
3.886549172198051
3.8065410340530352
3.7942320897230433
3.781923145393024
3.8619312835380395
3.855776811373057
3.8126955062180454
3.8434678670430373
4.341980112408105
4.846646829938185
4.261971974263091
3.9850207268380675
3.8927036443630603
3.9296304773530633
3.886549172198051
3.7265328959080186
2.4894839907428636
3.0680043742529195
3.720378423743037
3.763459728898022
3.7265328959080186
3.6834515907530063
3.788077617558033
3.7080694794130173
3.461890592812989
3.4988174258029914
3.7142239515780275
3.7142239515780275
3.6649881742580046
3.7142239515780275
3.6834515907530063
3.6896060629180156
3.5972889804430093
3.695760535083026
3.738841840238039
3.634215813433012
3.6034434526080172
3.732687368073029
3.9050125886930522
3.671142646423015
3.634215813433012
3.671142646423015
3.652679229928013
3.7142239515780275
3.6896060629180156
3.591134508277999
3.6649881742580046
4.188118308283084
3.9850207268380675
4.003484143333068
4.200427252613103
3.837313394878028
3.8680857557030492
3.677297118588024
3.7449963124030208
2.858752320642893
2.624882378372884
3.634215813433012
3.75730525673304
3.7449963124030208
3.7757686732280415
3.658833702093023
3.640370285598021
3.8188499783830263
3.6649881742580046
4.015793087663061
4.095801225808078
3.8496223392080475
3.738841840238039
3.7265328959080186
3.8065410340530352
3.7942320897230433
3.7942320897230433
3.837313394878028
3.8126955062180454
3.9111670608580615
3.9850207268380675
3.8927036443630603
3.8496223392080475
3.468045064977998
3.640370285598021
3.9234760051880535
3.9234760051880535
3.8988581165280416
3.9727117825080476
4.003484143333068
3.8988581165280416
3.9234760051880535
3.9604028381780574
3.8988581165280416
3.874240227868059
3.886549172198051
3.9850207268380675
3.9665573103430654
3.8188499783830263
3.9111670608580615
3.9973296711680604
3.8988581165280416
3.9296304773530633
3.948093893848065
4.003484143333068
3.9973296711680604
4.0465654484880815
3.9234760051880535
4.0465654484880815
4.052719920653064
4.108110170138069
4.058874392818074
4.065028864983084
4.095801225808078
3.9542483660130467
3.48035400930799
4.501996388698137
4.212736196943095
4.089646753643067
4.009638615498079
4.021947559828071
4.1327280587980795
4.083492281478085
3.9604028381780574
4.021947559828071
4.095801225808078
4.1758093639530935
4.169654891788083
4.151191475293081
4.231199613438097
4.218890669108104
4.151191475293081
4.218890669108104
4.298898807253093
4.803565524783171
5.646728211388286
4.101955697973087
4.1942727804480935
3.264947483532954
3.8619312835380395
4.181963836118102
4.231199613438097
4.305053279418103
4.243508557768089
4.225045141273086
4.225045141273086
4.231199613438097
4.1758093639530935
4.188118308283084
4.151191475293081
4.249663029933098
4.065028864983084
3.837313394878028
4.0465654484880815
4.231199613438097
4.1758093639530935
4.120419114468088
4.077337809313075
4.0711833371480655
4.12657358663307
4.028102031993082
4.0465654484880815
3.9727117825080476
4.089646753643067
4.034256504158063
4.145037003128072
4.040410976323072
4.095801225808078
4.1758093639530935
4.200427252613103
4.095801225808078
4.163500419623101
4.200427252613103
4.151191475293081
4.0711833371480655
4.095801225808078
4.114264642303079
4.052719920653064
3.9234760051880535
4.015793087663061
3.9850207268380675
3.9111670608580615
3.9296304773530633
3.9850207268380675
4.021947559828071
4.015793087663061
3.9665573103430654
4.0465654484880815
4.089646753643067
4.077337809313075
3.9604028381780574
4.188118308283084
4.237354085603107
4.606622415503137
4.237354085603107
4.114264642303079
4.12657358663307
3.886549172198051
3.5357442587929944
4.434297194883113
4.12657358663307
3.9850207268380675
3.9850207268380675
3.9604028381780574
4.034256504158063
4.003484143333068
3.763459728898022
3.4741995371429804
3.948093893848065
4.0465654484880815
4.0711833371480655
4.034256504158063
4.083492281478085
4.114264642303079
4.077337809313075
4.052719920653064
4.145037003128072
4.028102031993082
4.077337809313075
4.058874392818074
4.083492281478085
4.015793087663061
4.040410976323072
3.9911751990030497
3.9973296711680604
3.8619312835380395
3.9542483660130467
3.9234760051880535
3.8988581165280416
3.9604028381780574
4.040410976323072
3.9727117825080476
4.034256504158063
4.015793087663061
4.1942727804480935
4.12657358663307
4.0711833371480655
4.151191475293081
4.181963836118102
4.1327280587980795
4.089646753643067
4.114264642303079
4.145037003128072
4.052719920653064
4.003484143333068
3.9542483660130467
3.9911751990030497
4.009638615498079
4.040410976323072
3.8803947000330408
3.9911751990030497
3.9604028381780574
3.9296304773530633
3.948093893848065
4.034256504158063
4.034256504158063
4.366598001068117
5.018972050558207
4.255817502098108
4.120419114468088
3.9542483660130467
3.874240227868059
3.8680857557030492
3.504971897968001
2.581801073217871
3.763459728898022
3.9850207268380675
3.9788662546730578
3.9973296711680604
3.9850207268380675
3.9788662546730578
4.108110170138069
3.9973296711680604
3.9234760051880535
3.9727117825080476
4.052719920653064
3.9296304773530633
3.9234760051880535
3.8988581165280416
4.021947559828071
3.825004450548036
3.8988581165280416
3.837313394878028
3.9234760051880535
3.9173215330230438
3.8496223392080475
3.9296304773530633
4.003484143333068
3.9973296711680604
4.637394776328158
4.120419114468088
3.9850207268380675
4.083492281478085
4.052719920653064
3.9850207268380675
3.9911751990030497
4.009638615498079
4.021947559828071
3.9665573103430654
3.9665573103430654
3.9665573103430654
3.8619312835380395
3.628061341268002
3.4741995371429804
3.800386561888025
3.8434678670430373
3.837313394878028
3.855776811373057
3.886549172198051
3.9234760051880535
3.9050125886930522
3.837313394878028
3.9357849495180455
3.9850207268380675
3.9357849495180455
3.8988581165280416
3.9542483660130467
3.9234760051880535
3.9296304773530633
3.738841840238039
3.578825563948007
4.526614277358149
4.151191475293081
4.021947559828071
4.077337809313075
4.138882530963089
4.114264642303079
3.9542483660130467
4.009638615498079
4.151191475293081
4.520459805193139
4.212736196943095
4.0465654484880815
4.034256504158063
4.065028864983084
3.8927036443630603
3.9850207268380675
4.021947559828071
3.9973296711680604
4.009638615498079
4.021947559828071
4.065028864983084
4.101955697973087
3.8619312835380395
3.5357442587929944
3.9357849495180455
4.052719920653064
3.9911751990030497
4.003484143333068
4.021947559828071
4.0711833371480655
4.040410976323072
4.015793087663061
3.9850207268380675
4.009638615498079
4.052719920653064
3.9911751990030497
3.9850207268380675
3.9111670608580615
3.9542483660130467
3.9604028381780574
3.9911751990030497
3.9850207268380675
3.9911751990030497
4.015793087663061
4.40352483405812
4.2865898629231
1.5293863330027024
3.6219068691030203
3.8434678670430373
3.9296304773530633
4.157345947458091
4.341980112408105
5.252841992828244
3.763459728898022
3.578825563948007
3.948093893848065
3.9727117825080476
3.9850207268380675
3.8126955062180454
3.8619312835380395
3.9111670608580615
3.4126548154929934
4.237354085603107
4.3112077515831135
3.948093893848065
3.9542483660130467
4.015793087663061
4.028102031993082
3.9727117825080476
3.9911751990030497
4.003484143333068
3.9850207268380675
3.9727117825080476
3.9788662546730578
4.003484143333068
4.034256504158063
4.003484143333068
4.003484143333068
3.9973296711680604
3.9973296711680604
4.003484143333068
3.9542483660130467
3.9727117825080476
4.0711833371480655
4.034256504158063
4.003484143333068
3.9357849495180455
3.9050125886930522
3.9973296711680604
3.9419394216830552
3.9604028381780574
4.058874392818074
4.077337809313075
4.021947559828071
4.040410976323072
4.157345947458091
5.000508634063205
4.575850054678144
4.065028864983084
4.028102031993082
4.81587446911319
4.754329747463175
3.763459728898022
3.9973296711680604
4.0711833371480655
3.9234760051880535
3.886549172198051
3.363419038172971
2.6925815721878803
3.886549172198051
3.9173215330230438
3.9542483660130467
4.065028864983084
4.034256504158063
3.9850207268380675
4.0711833371480655
3.9604028381780574
3.9911751990030497
4.065028864983084
4.040410976323072
3.9542483660130467
4.034256504158063
4.058874392818074
4.145037003128072
3.9542483660130467
4.028102031993082
4.009638615498079
4.077337809313075
4.065028864983084
4.065028864983084
4.003484143333068
4.021947559828071
4.083492281478085
4.12657358663307
4.021947559828071
3.9973296711680604
4.077337809313075
4.114264642303079
4.0711833371480655
4.089646753643067
4.065028864983084
4.1327280587980795
4.163500419623101
4.0711833371480655
4.009638615498079
4.089646753643067
4.292744335088111
4.1942727804480935
3.9973296711680604
4.101955697973087
4.114264642303079
4.003484143333068
4.034256504158063
4.138882530963089
4.108110170138069
4.138882530963089
4.108110170138069
4.157345947458091
4.1327280587980795
4.052719920653064
3.701915007248036
3.9788662546730578
4.2065817247780855
4.12657358663307
3.511126370132983
4.2865898629231
4.465069555708134
4.101955697973087
4.089646753643067
4.12657358663307
4.218890669108104
4.021947559828071
4.009638615498079
3.9727117825080476
4.028102031993082
4.034256504158063
3.9788662546730578
4.015793087663061
4.157345947458091
4.446606139213133
5.4005493247882566
3.855776811373057
4.009638615498079
4.0465654484880815
4.058874392818074
3.886549172198051
2.661809211362886
3.363419038172971
3.9665573103430654
3.9050125886930522
3.874240227868059
3.8988581165280416
3.8988581165280416
3.8927036443630603
3.886549172198051
3.9296304773530633
3.9665573103430654
3.948093893848065
3.9357849495180455
3.948093893848065
3.9419394216830552
3.948093893848065
3.8680857557030492
3.8927036443630603
3.9234760051880535
3.7942320897230433
3.7942320897230433
3.855776811373057
3.8927036443630603
3.855776811373057
3.800386561888025
3.7942320897230433
3.8988581165280416
3.800386561888025
3.738841840238039
3.695760535083026
3.763459728898022
3.8065410340530352
3.720378423743037
3.9050125886930522
3.9604028381780574
4.003484143333068
3.948093893848065
3.9911751990030497
4.0465654484880815
4.138882530963089
3.9727117825080476
4.0465654484880815
4.218890669108104
4.261971974263091
4.089646753643067
4.083492281478085
4.212736196943095
4.280435390758092
4.12657358663307
4.225045141273086
4.348134584573115
4.3727524732331275
4.354289056738125
4.298898807253093
4.434297194883113
4.335825640243124
4.065028864983084
3.8803947000330408
4.8651102464331855
4.557386638183142
4.421988250553122
4.391215889728128
4.37890694539811
4.385061417563119
4.428142722718132
4.37890694539811
4.341980112408105
4.360443528903107
4.434297194883113
4.471224027873144
4.557386638183142
4.458915083543125
4.489687444368147
4.428142722718132
4.428142722718132
4.40967930622313
4.280435390758092
4.1942727804480935
4.1942727804480935
4.237354085603107
4.249663029933098
4.243508557768089
4.114264642303079
4.145037003128072
4.065028864983084
4.138882530963089
4.231199613438097
4.065028864983084
4.225045141273086
4.212736196943095
4.101955697973087
4.101955697973087
4.2065817247780855
4.120419114468088
4.12657358663307
4.077337809313075
4.120419114468088
4.145037003128072
4.021947559828071
4.095801225808078
4.157345947458091
4.181963836118102
4.1942727804480935
4.040410976323072
4.169654891788083
4.2065817247780855
4.2065817247780855
4.095801225808078
4.114264642303079
4.200427252613103
4.138882530963089
4.231199613438097
4.157345947458091
4.114264642303079
4.101955697973087
4.5327687495231315
5.209760687673231
4.200427252613103
2.8279799598179
3.541898730958004
3.9788662546730578
4.101955697973087
4.169654891788083
4.028102031993082
4.1327280587980795
4.157345947458091
4.015793087663061
4.120419114468088
4.095801225808078
4.101955697973087
4.077337809313075
4.151191475293081
4.065028864983084
4.009638615498079
4.1327280587980795
4.138882530963089
4.101955697973087
4.077337809313075
4.249663029933098
4.305053279418103
4.101955697973087
4.120419114468088
4.052719920653064
4.145037003128072
4.0711833371480655
4.0711833371480655
4.145037003128072
4.163500419623101
4.12657358663307
4.188118308283084
4.1327280587980795
4.089646753643067
4.415833778388112
4.385061417563119
4.169654891788083
4.169654891788083
4.145037003128072
4.169654891788083
4.12657358663307
4.120419114468088
4.181963836118102
4.145037003128072
4.114264642303079
4.218890669108104
4.200427252613103
4.095801225808078
3.6219068691030203
3.8988581165280416
4.0465654484880815
4.108110170138069
4.0711833371480655
4.089646753643067
4.2865898629231
4.91434602375318
4.065028864983084
4.871264718598195
4.305053279418103
4.058874392818074
4.108110170138069
4.218890669108104
3.9234760051880535
2.6925815721878803
3.7142239515780275
4.077337809313075
4.151191475293081
4.12657358663307
4.058874392818074
4.114264642303079
4.1327280587980795
4.114264642303079
4.101955697973087
4.015793087663061
4.0711833371480655
4.514305333028129
4.551232166018132
3.9727117825080476
4.200427252613103
4.101955697973087
4.077337809313075
4.095801225808078
4.065028864983084
4.138882530963089
4.12657358663307
4.065028864983084
4.108110170138069
4.034256504158063
3.9973296711680604
3.4311182319879947
3.671142646423015
3.9850207268380675
4.040410976323072
3.9973296711680604
4.108110170138069
4.009638615498079
3.9665573103430654
3.948093893848065
4.028102031993082
4.0465654484880815
3.9850207268380675
4.028102031993082
4.12657358663307
4.569695582513134
4.200427252613103
3.9542483660130467
3.8927036443630603
4.028102031993082
4.040410976323072
3.948093893848065
3.8803947000330408
3.9850207268380675
3.9911751990030497
3.9542483660130467
3.9419394216830552
3.9050125886930522
4.083492281478085
4.157345947458091
3.4126548154929934
4.889728135093197
5.775972126853325
3.948093893848065
4.034256504158063
4.028102031993082
4.083492281478085
3.4926629536379816
2.624882378372884
3.7265328959080186
3.9542483660130467
4.015793087663061
3.4126548154929934
3.4311182319879947
3.9050125886930522
3.9850207268380675
3.874240227868059
3.886549172198051
3.9604028381780574
4.003484143333068
3.9296304773530633
3.948093893848065
3.9850207268380675
4.101955697973087
3.9234760051880535
3.8988581165280416
3.9788662546730578
4.028102031993082
3.9788662546730578
3.8988581165280416
3.9973296711680604
4.028102031993082
3.9850207268380675
3.9604028381780574
3.9973296711680604
4.003484143333068
4.058874392818074
3.9911751990030497
3.9850207268380675
4.114264642303079
4.0711833371480655
3.9727117825080476
4.040410976323072
4.0711833371480655
4.095801225808078
4.040410976323072
3.9727117825080476
4.003484143333068
4.058874392818074
3.9788662546730578
3.9604028381780574
4.0711833371480655
4.052719920653064
3.9788662546730578
3.9234760051880535
3.9788662546730578
4.028102031993082
4.0711833371480655
3.9911751990030497
4.028102031993082
4.1327280587980795
4.021947559828071
5.468248518603279
3.2034027618829395
3.289565372192965
3.578825563948007
4.569695582513134
4.717402914473173
4.471224027873144
4.145037003128072
4.040410976323072
4.034256504158063
4.077337809313075
4.12657358663307
4.114264642303079
4.058874392818074
4.108110170138069
4.145037003128072
4.077337809313075
3.9357849495180455
3.9111670608580615
3.5357442587929944
3.9050125886930522
4.052719920653064
4.058874392818074
4.077337809313075
4.101955697973087
3.9665573103430654
3.9911751990030497
4.083492281478085
4.058874392818074
4.021947559828071
4.058874392818074
4.089646753643067
4.138882530963089
3.9604028381780574
3.9419394216830552
4.021947559828071
4.040410976323072
3.9850207268380675
3.9296304773530633
4.040410976323072
4.034256504158063
3.9111670608580615
3.855776811373057
3.9727117825080476
3.9727117825080476
3.9665573103430654
3.9234760051880535
3.855776811373057
3.9296304773530633
3.9788662546730578
3.8619312835380395
3.9234760051880535
4.040410976323072
3.9542483660130467
3.9604028381780574
4.631240304163148
3.652679229928013
3.7449963124030208
3.9111670608580615
3.9850207268380675
4.034256504158063
4.5327687495231315
5.455939574273261
2.994150708272913
2.754126293837894
3.9173215330230438
4.015793087663061
3.9111670608580615
4.034256504158063
4.101955697973087
4.003484143333068
4.120419114468088
3.9727117825080476
4.089646753643067
4.089646753643067
3.9788662546730578
3.9973296711680604
4.120419114468088
4.065028864983084
3.9357849495180455
3.9234760051880535
4.0711833371480655
3.9727117825080476
3.9050125886930522
3.9234760051880535
3.9665573103430654
4.021947559828071
4.138882530963089
3.9357849495180455
3.9111670608580615
3.9973296711680604
3.9604028381780574
3.855776811373057
3.9419394216830552
3.9788662546730578
3.9111670608580615
3.781923145393024
3.8434678670430373
3.9665573103430654
3.9050125886930522
3.825004450548036
3.7757686732280415
3.8434678670430373
3.8619312835380395
3.8065410340530352
3.8188499783830263
3.800386561888025
3.831158922713046
3.763459728898022
3.7696142010630322
3.9234760051880535
3.855776811373057
3.837313394878028
3.8434678670430373
4.077337809313075
4.68047608148317
4.077337809313075
3.8619312835380395
3.9050125886930522
3.874240227868059
3.886549172198051
3.855776811373057
3.8803947000330408
4.003484143333068
3.7265328959080186
3.418809287657976
4.618931359833156
4.181963836118102
3.9173215330230438
3.6034434526080172
4.089646753643067
4.280435390758092
4.249663029933098
4.1942727804480935
4.145037003128072
4.163500419623101
4.200427252613103
4.1327280587980795
4.0711833371480655
4.169654891788083
4.237354085603107
4.163500419623101
4.1942727804480935
4.163500419623101
4.200427252613103
4.12657358663307
3.9850207268380675
4.003484143333068
4.058874392818074
4.034256504158063
3.837313394878028
3.9050125886930522
3.9850207268380675
3.886549172198051
3.9665573103430654
3.9050125886930522
3.9234760051880535
3.8496223392080475
3.7942320897230433
3.738841840238039
3.7942320897230433
3.837313394878028
3.701915007248036
3.671142646423015
3.6896060629180156
3.7449963124030208
3.695760535083026
3.5972889804430093
3.671142646423015
3.855776811373057
3.788077617558033
3.61575239693801
3.7265328959080186
3.886549172198051
3.75730525673304
3.75115078456803
3.7942320897230433
3.7757686732280415
3.720378423743037
3.640370285598021
3.61575239693801
3.8126955062180454
3.628061341268002
4.181963836118102
4.840492357773174
4.181963836118102
3.8496223392080475
3.701915007248036
3.634215813433012
3.732687368073029
2.83413443198291
4.003484143333068
3.658833702093023
3.529589786627985
3.548053203123014
3.3203377330179586
3.043386485592936
2.446402685587851
3.2280206505429514
3.554207675287996
3.572671091782997
3.578825563948007
3.4926629536379816
3.658833702093023
3.695760535083026
3.75115078456803
3.9111670608580615
3.837313394878028
3.738841840238039
3.8434678670430373
3.9727117825080476
3.258793011367972
3.277256427862973
3.634215813433012
3.8927036443630603
3.9050125886930522
3.8619312835380395
3.9665573103430654
4.0465654484880815
4.2065817247780855
4.1758093639530935
4.095801225808078
4.249663029933098
4.1758093639530935
4.181963836118102
4.2865898629231
4.261971974263091
4.323516695913104
4.292744335088111
4.108110170138069
4.2065817247780855
4.329671168078114
4.292744335088111
4.231199613438097
4.261971974263091
4.341980112408105
4.415833778388112
4.218890669108104
4.360443528903107
4.440451667048122
4.40352483405812
4.335825640243124
4.40967930622313
4.54507769385315
4.495841916533128
4.538923221688139
4.575850054678144
4.649703720658149
4.81587446911319
4.803565524783171
4.797411052618189
4.822028941278172
4.6435492484931675
5.142061493858235
5.172833854683229
4.895882607258178
4.951272856743211
4.9881996897332135
4.9266549680832
4.9266549680832
4.969736273238212
4.994354161898196
5.018972050558207
4.963581801073202
5.0743623000432105
5.006663106228215
4.495841916533128
4.563541110348153
4.760484219628157
4.692785025813162
4.6004679433381535
4.618931359833156
4.6435492484931675
4.5820045268431535
4.458915083543125
4.54507769385315
4.501996388698137
4.575850054678144
4.551232166018132
4.471224027873144
4.514305333028129
4.489687444368147
4.477378500038126
4.440451667048122
4.3727524732331275
4.489687444368147
4.508150860863147
4.440451667048122
4.452760611378115
4.538923221688139
4.538923221688139
4.520459805193139
4.348134584573115
4.975890745403193
4.877419190763177
4.495841916533128
4.440451667048122
4.501996388698137
4.5820045268431535
4.625085831998166
4.495841916533128
4.5943134711731455
4.606622415503137
4.563541110348153
4.5327687495231315
4.994354161898196
5.480557462933272
2.8649067928079033
3.825004450548036
4.458915083543125
4.551232166018132
4.54507769385315
4.477378500038126
4.458915083543125
4.520459805193139
4.551232166018132
4.366598001068117
4.366598001068117
4.501996388698137
4.385061417563119
4.440451667048122
4.385061417563119
4.37890694539811
4.434297194883113
4.385061417563119
4.341980112408105
4.3727524732331275
4.428142722718132
4.37890694539811
4.329671168078114
4.348134584573115
4.354289056738125
4.341980112408105
4.243508557768089
4.188118308283084
4.181963836118102
4.231199613438097
4.231199613438097
4.385061417563119
4.292744335088111
4.2681264464281
4.249663029933098
4.188118308283084
4.292744335088111
4.348134584573115
4.237354085603107
4.218890669108104
4.255817502098108
4.54507769385315
4.354289056738125
4.237354085603107
4.280435390758092
4.341980112408105
4.3112077515831135
4.218890669108104
4.188118308283084
4.298898807253093
4.212736196943095
4.145037003128072
4.151191475293081
4.181963836118102
4.2065817247780855
4.181963836118102
4.138882530963089
4.188118308283084
4.188118308283084
4.12657358663307
4.120419114468088
3.9973296711680604
3.7449963124030208
4.5943134711731455
4.218890669108104
4.101955697973087
4.101955697973087
4.065028864983084
4.0465654484880815
4.089646753643067
4.021947559828071
4.015793087663061
4.0465654484880815
4.089646753643067
4.083492281478085
4.077337809313075
4.015793087663061
4.058874392818074
4.1758093639530935
4.034256504158063
4.040410976323072
4.0465654484880815
4.2065817247780855
4.058874392818074
3.9788662546730578
4.015793087663061
4.028102031993082
3.9296304773530633
3.8803947000330408
3.8803947000330408
3.9419394216830552
3.9788662546730578
3.9050125886930522
3.9173215330230438
3.9357849495180455
3.9173215330230438
3.75115078456803
3.855776811373057
4.015793087663061
4.095801225808078
3.9973296711680604
4.015793087663061
4.021947559828071
4.108110170138069
4.12657358663307
4.065028864983084
4.083492281478085
4.145037003128072
4.200427252613103
4.188118308283084
4.237354085603107
4.163500419623101
4.138882530963089
4.095801225808078
4.151191475293081
4.12657358663307
4.114264642303079
4.0711833371480655
3.9788662546730578
4.040410976323072
4.563541110348153
5.154370438188227
4.3727524732331275
4.3112077515831135
4.261971974263091
3.652679229928013
2.723353933012873
3.9850207268380675
4.261971974263091
4.305053279418103
4.1758093639530935
4.2681264464281
4.298898807253093
4.2865898629231
4.1942727804480935
4.305053279418103
4.2865898629231
4.785102108288171
4.458915083543125
4.255817502098108
4.335825640243124
4.323516695913104
4.157345947458091
4.225045141273086
4.27428091859311
4.261971974263091
4.255817502098108
4.212736196943095
4.225045141273086
4.255817502098108
4.058874392818074
3.5972889804430093
4.065028864983084
4.169654891788083
4.2065817247780855
4.138882530963089
4.157345947458091
4.298898807253093
4.145037003128072
4.101955697973087
4.108110170138069
4.225045141273086
4.181963836118102
4.157345947458091
4.225045141273086
4.200427252613103
4.200427252613103
4.163500419623101
4.12657358663307
4.218890669108104
4.231199613438097
4.151191475293081
4.1758093639530935
4.231199613438097
4.200427252613103
4.157345947458091
4.188118308283084
4.212736196943095
4.1942727804480935
4.114264642303079
4.68047608148317
3.8065410340530352
3.9973296711680604
3.9727117825080476
3.6465247577630033
4.668167137153151
4.360443528903107
4.2065817247780855
4.151191475293081
4.0711833371480655
4.200427252613103
4.225045141273086
3.9542483660130467
4.015793087663061
4.231199613438097
4.1758093639530935
5.006663106228215
5.295923297983257
4.1758093639530935
4.225045141273086
4.249663029933098
4.114264642303079
4.27428091859311
4.225045141273086
2.994150708272913
3.375727982502963
4.348134584573115
4.200427252613103
4.138882530963089
4.12657358663307
4.120419114468088
4.108110170138069
4.028102031993082
3.8496223392080475
3.8927036443630603
3.9296304773530633
3.8680857557030492
3.8619312835380395
3.8434678670430373
3.9727117825080476
3.9911751990030497
3.831158922713046
3.8803947000330408
3.9973296711680604
3.948093893848065
3.9296304773530633
3.9234760051880535
3.9665573103430654
3.9542483660130467
3.9727117825080476
3.886549172198051
3.9234760051880535
3.9973296711680604
4.40352483405812
4.169654891788083
4.698939497978172
3.671142646423015
3.6896060629180156
3.9173215330230438
3.9788662546730578
4.009638615498079
3.9973296711680604
4.465069555708134
4.538923221688139
2.766435238167886
3.8188499783830263
3.8434678670430373
3.511126370132983
3.825004450548036
3.9357849495180455
3.9296304773530633
3.9850207268380675
3.8803947000330408
3.9850207268380675
3.9296304773530633
3.8927036443630603
3.9850207268380675
3.9357849495180455
3.9111670608580615
3.9173215330230438
3.9604028381780574
4.052719920653064
3.9604028381780574
3.8988581165280416
3.8927036443630603
3.9788662546730578
3.9296304773530633
3.9296304773530633
3.8065410340530352
3.9542483660130467
4.034256504158063
3.8496223392080475
3.8803947000330408
3.9542483660130467
4.237354085603107
4.052719920653064
3.9111670608580615
3.9419394216830552
3.9727117825080476
3.9234760051880535
3.855776811373057
3.948093893848065
4.015793087663061
3.886549172198051
3.8496223392080475
3.9173215330230438
3.9542483660130467
3.9296304773530633
3.4434271763179867
3.6465247577630033
3.9604028381780574
3.8680857557030492
3.8065410340530352
3.874240227868059
3.9419394216830552
3.9050125886930522
3.8680857557030492
3.831158922713046
3.9788662546730578
3.886549172198051
3.8619312835380395
3.8619312835380395
4.028102031993082
3.9850207268380675
3.825004450548036
3.609597924773
3.461890592812989
4.329671168078114
3.9665573103430654
3.8434678670430373
3.831158922713046
3.9050125886930522
3.831158922713046
3.7757686732280415
3.874240227868059
4.163500419623101
4.225045141273086
3.886549172198051
3.9111670608580615
3.9296304773530633
3.9173215330230438
3.874240227868059
3.8188499783830263
3.9111670608580615
3.9850207268380675
3.8434678670430373
3.9111670608580615
3.9665573103430654
3.948093893848065
3.4434271763179867
3.504971897968001
3.837313394878028
3.9604028381780574
3.8988581165280416
3.825004450548036
3.9296304773530633
3.9419394216830552
3.9604028381780574
3.886549172198051
3.874240227868059
3.9296304773530633
3.9234760051880535
3.948093893848065
4.015793087663061
4.009638615498079
4.009638615498079
3.8496223392080475
3.8619312835380395
3.9050125886930522
3.8619312835380395
3.825004450548036
3.8065410340530352
3.837313394878028
3.9727117825080476
3.75115078456803
3.7757686732280415
3.9050125886930522
3.8619312835380395
3.825004450548036
3.75730525673304
3.9911751990030497
3.9357849495180455
3.8496223392080475
3.8188499783830263
4.329671168078114
5.0743623000432105
4.231199613438097
3.9173215330230438
3.800386561888025
2.618727906207874
3.1295490959029335
3.695760535083026
3.781923145393024
3.8803947000330408
3.8803947000330408
3.75730525673304
3.7757686732280415
3.8803947000330408
3.831158922713046
3.8126955062180454
3.7942320897230433
3.8619312835380395
3.9604028381780574
3.8126955062180454
3.732687368073029
3.8680857557030492
3.8619312835380395
3.8496223392080475
3.831158922713046
3.8927036443630603
3.9665573103430654
3.9173215330230438
3.8188499783830263
3.8496223392080475
3.9173215330230438
3.8496223392080475
3.763459728898022
4.015793087663061
4.54507769385315
4.034256504158063
3.9111670608580615
3.8680857557030492
3.8988581165280416
3.9419394216830552
3.8803947000330408
3.825004450548036
3.9665573103430654
4.015793087663061
3.9604028381780574
3.8126955062180454
3.874240227868059
3.7449963124030208
3.4311182319879947
3.695760535083026
3.788077617558033
3.9296304773530633
3.8927036443630603
3.677297118588024
3.831158922713046
3.831158922713046
3.8434678670430373
3.7757686732280415
3.732687368073029
3.8988581165280416
3.855776811373057
3.781923145393024
3.8434678670430373
3.738841840238039
3.4434271763179867
4.323516695913104
3.9665573103430654
3.9604028381780574
4.0465654484880815
3.8803947000330408
3.9111670608580615
4.003484143333068
4.065028864983084
3.9788662546730578
3.9604028381780574
3.9850207268380675
3.9419394216830552
3.9665573103430654
3.8927036443630603
3.9357849495180455
4.040410976323072
3.9788662546730578
3.948093893848065
3.9604028381780574
4.058874392818074
3.9911751990030497
3.8927036443630603
3.8803947000330408
3.9604028381780574
3.9542483660130467
3.8927036443630603
3.8803947000330408
3.8434678670430373
3.9727117825080476
3.874240227868059
3.8188499783830263
3.8434678670430373
3.9296304773530633
3.8927036443630603
3.9050125886930522
3.825004450548036
3.9111670608580615
3.948093893848065
3.9542483660130467
3.9419394216830552
3.9542483660130467
3.9850207268380675
3.9665573103430654
3.8496223392080475
4.015793087663061
3.9419394216830552
3.8619312835380395
3.9050125886930522
3.9234760051880535
3.9542483660130467
3.9357849495180455
3.9973296711680604
4.034256504158063
3.9850207268380675
3.9419394216830552
3.9111670608580615
3.9788662546730578
4.3112077515831135
4.877419190763177
4.3173622237481215
3.9727117825080476
3.9911751990030497
3.948093893848065
3.9111670608580615
4.028102031993082
4.009638615498079
2.68642710002287
3.609597924773
3.9727117825080476
3.9911751990030497
3.9850207268380675
3.9542483660130467
3.9111670608580615
3.9973296711680604
4.015793087663061
4.021947559828071
3.9111670608580615
3.9727117825080476
3.7449963124030208
3.5234353144630024
3.788077617558033
4.391215889728128
4.280435390758092
4.243508557768089
4.2865898629231
3.9419394216830552
4.009638615498079
3.8803947000330408
3.8065410340530352
2.9818417639429216
2.9141425701278982
3.8126955062180454
4.354289056738125
4.243508557768089
4.003484143333068
3.8680857557030492
3.8680857557030492
4.034256504158063
4.021947559828071
4.021947559828071
3.874240227868059
3.8496223392080475
3.9296304773530633
4.009638615498079
3.855776811373057
3.7080694794130173
3.234175122707961
3.5972889804430093
3.8188499783830263
3.8126955062180454
3.825004450548036
3.8126955062180454
3.7942320897230433
3.695760535083026
3.732687368073029
3.7757686732280415
3.7265328959080186
3.677297118588024
3.732687368073029
3.837313394878028
3.738841840238039
3.658833702093023
3.671142646423015
3.6834515907530063
3.720378423743037
3.720378423743037
3.671142646423015
3.8126955062180454
3.7696142010630322
3.671142646423015
3.738841840238039
3.8434678670430373
3.800386561888025
3.7449963124030208
3.652679229928013
3.7757686732280415
3.8619312835380395
3.6834515907530063
3.634215813433012
3.7696142010630322
3.825004450548036
3.695760535083026
3.671142646423015
3.788077617558033
3.6219068691030203
3.283410900027955
4.1758093639530935
3.8927036443630603
3.9050125886930522
3.886549172198051
3.9604028381780574
4.003484143333068
4.095801225808078
3.9911751990030497
3.9727117825080476
4.028102031993082
4.083492281478085
4.065028864983084
3.9850207268380675
3.9850207268380675
4.200427252613103
4.495841916533128
4.065028864983084
3.9788662546730578
3.9357849495180455
4.015793087663061
3.9296304773530633
3.8496223392080475
3.9419394216830552
3.9665573103430654
3.9234760051880535
3.9173215330230438
3.9604028381780574
3.9604028381780574
4.065028864983084
4.145037003128072
3.948093893848065
4.009638615498079
3.9665573103430654
4.354289056738125
5.018972050558207
4.40967930622313
4.114264642303079
3.560362147453006
2.618727906207874
3.8065410340530352
3.9357849495180455
4.009638615498079
3.548053203123014
3.5972889804430093
3.9665573103430654
4.089646753643067
3.9173215330230438
3.9234760051880535
4.034256504158063
4.003484143333068
3.9665573103430654
4.015793087663061
4.138882530963089
4.163500419623101
3.9604028381780574
4.114264642303079
4.218890669108104
4.163500419623101
4.095801225808078
4.083492281478085
4.151191475293081
4.225045141273086
4.009638615498079
4.083492281478085
4.114264642303079
4.108110170138069
4.065028864983084
4.028102031993082
4.083492281478085
4.188118308283084
3.9911751990030497
4.015793087663061
4.151191475293081
4.101955697973087
4.095801225808078
4.083492281478085
4.077337809313075
4.157345947458091
4.089646753643067
3.9911751990030497
4.028102031993082
4.095801225808078
4.040410976323072
4.009638615498079
4.0465654484880815
4.009638615498079
4.0711833371480655
4.040410976323072
4.0465654484880815
4.052719920653064
4.0711833371480655
3.948093893848065
4.563541110348153
3.671142646423015
3.7757686732280415
3.9665573103430654
3.7449963124030208
3.6465247577630033
4.538923221688139
4.021947559828071
3.9850207268380675
4.021947559828071
4.028102031993082
4.021947559828071
3.948093893848065
4.2065817247780855
4.415833778388112
4.508150860863147
4.618931359833156
4.477378500038126
4.692785025813162
4.520459805193139
4.5820045268431535
4.7297118588031655
4.803565524783171
4.92050049591819
4.908191551588198
4.68047608148317
4.846646829938185
4.945118384578201
4.803565524783171
4.766638691793168
4.766638691793168
4.797411052618189
4.9266549680832
4.957427328908192
4.772793163958178
4.871264718598195
4.846646829938185
4.766638691793168
5.098980188703223
5.388240380458265
5.345159075303252
5.289768825818246
5.357468019633243
5.394394852623274
5.394394852623274
5.295923297983257
5.129752549528216
5.234378576333243
5.369776963963263
5.21591515983824
5.277459881488256
5.357468019633243
5.289768825818246
5.2405330484982535
5.2405330484982535
5.868289209328331
4.975890745403193
5.018972050558207
5.2220696320032225
5.295923297983257
5.295923297983257
5.2220696320032225
5.209760687673231
5.769817654688314
6.422191704178459
5.105134660868233
5.185142799013221
5.228224104168233
5.258996464993254
5.2405330484982535
5.142061493858235
4.3173622237481215
4.348134584573115
5.185142799013221
5.295923297983257
5.142061493858235
5.19745174334324
5.228224104168233
5.160524910353237
5.080516772208221
5.105134660868233
5.111289133033214
5.000508634063205
4.982045217568204
4.994354161898196
4.969736273238212
4.92050049591819
5.025126522723218
5.129752549528216
4.932809440248209
4.809719996948181
4.7420208031331565
4.81587446911319
4.797411052618189
4.717402914473173
4.662012664988168
4.68047608148317
4.735866330968175
4.67432160931816
4.612776887668146
4.625085831998166
4.354289056738125
4.465069555708134
4.606622415503137
4.6435492484931675
4.735866330968175
4.67432160931816
4.612776887668146
4.551232166018132
4.686630553648152
4.68047608148317
4.520459805193139
4.606622415503137
4.612776887668146
4.606622415503137
4.606622415503137
4.520459805193139
4.452760611378115
4.3173622237481215
4.015793087663061
4.028102031993082
4.163500419623101
4.200427252613103
4.12657358663307
4.163500419623101
4.231199613438097
4.089646753643067
3.8126955062180454
4.803565524783171
4.520459805193139
4.298898807253093
4.231199613438097
4.114264642303079
4.101955697973087
4.114264642303079
4.003484143333068
3.9850207268380675
3.9357849495180455
3.9727117825080476
4.040410976323072
3.9973296711680604
3.8680857557030492
4.101955697973087
4.009638615498079
3.695760535083026
3.640370285598021
3.609597924773
3.5234353144630024
3.363419038172971
3.271101955697964
3.283410900027955
3.461890592812989
3.4988174258029914
3.4926629536379816
3.5665166196180156
3.628061341268002
3.049540957757918
3.6896060629180156
5.080516772208221
3.5172808422979926
3.6219068691030203
3.5665166196180156
3.486508481473
3.511126370132983
3.5234353144630024
2.766435238167886
1.9971262175427773
3.141858040232953
3.277256427862973
3.2957198443579747
3.1295490959029335
3.0864677907479487
3.2403295948729705
3.35111009384298
3.2526385392029624
3.424963759822985
3.5357442587929944
3.591134508277999
3.5665166196180156
3.671142646423015
3.8126955062180454
3.9604028381780574
3.8188499783830263
3.874240227868059
3.9296304773530633
4.305053279418103
4.846646829938185
4.095801225808078
3.7696142010630322
2.495638462907845
2.975687291777912
3.541898730958004
3.548053203123014
3.6034434526080172
3.461890592812989
3.3880369268329824
3.4926629536379816
3.511126370132983
3.3141832608529764
3.424963759822985
3.511126370132983
3.591134508277999
3.529589786627985
3.6034434526080172
3.511126370132983
3.732687368073029
3.9234760051880535
3.7942320897230433
3.855776811373057
3.9234760051880535
3.9542483660130467
3.8188499783830263
3.7942320897230433
3.874240227868059
3.8988581165280416
3.8065410340530352
3.7142239515780275
3.8065410340530352
3.8496223392080475
3.695760535083026
3.609597924773
3.609597924773
3.652679229928013
3.5665166196180156
3.677297118588024
3.8680857557030492
3.738841840238039
3.7142239515780275
3.671142646423015
3.658833702093023
3.831158922713046
3.763459728898022
3.763459728898022
3.788077617558033
3.75730525673304
3.8434678670430373
3.701915007248036
3.609597924773
3.6465247577630033
3.6465247577630033
3.634215813433012
3.61575239693801
3.732687368073029
3.837313394878028
3.874240227868059
3.652679229928013
3.75115078456803
3.8680857557030492
3.609597924773
3.283410900027955
4.249663029933098
3.9665573103430654
3.8126955062180454
3.658833702093023
3.781923145393024
3.788077617558033
3.8126955062180454
3.732687368073029
3.7142239515780275
3.855776811373057
3.7942320897230433
3.763459728898022
3.7265328959080186
3.800386561888025
3.7265328959080186
3.7265328959080186
3.677297118588024
3.652679229928013
3.763459728898022
3.6465247577630033
3.6034434526080172
3.7142239515780275
3.8126955062180454
3.788077617558033
3.7942320897230433
3.9173215330230438
3.9296304773530633
4.021947559828071
3.9296304773530633
4.0465654484880815
4.145037003128072
3.9727117825080476
3.9234760051880535
3.9727117825080476
3.855776811373057
3.9111670608580615
3.800386561888025
3.7449963124030208
3.837313394878028
3.874240227868059
3.781923145393024
3.8065410340530352
3.788077617558033
3.7757686732280415
3.677297118588024
3.640370285598021
3.738841840238039
3.75730525673304
3.7142239515780275
3.591134508277999
3.5665166196180156
3.6649881742580046
3.5665166196180156
3.591134508277999
3.6834515907530063
3.720378423743037
3.763459728898022
4.415833778388112
5.252841992828244
3.75730525673304
3.8188499783830263
3.732687368073029
3.788077617558033
3.8803947000330408
3.5172808422979926
2.391012436102846
3.4988174258029914
3.8188499783830263
3.874240227868059
3.7696142010630322
3.671142646423015
3.572671091782997
3.695760535083026
3.6896060629180156
3.640370285598021
3.75115078456803
3.763459728898022
3.7080694794130173
3.732687368073029
3.7942320897230433
3.9050125886930522
3.831158922713046
3.7757686732280415
3.825004450548036
3.9050125886930522
3.831158922713046
3.671142646423015
3.652679229928013
3.7449963124030208
3.6649881742580046
3.529589786627985
3.511126370132983
3.640370285598021
3.6896060629180156
3.609597924773
3.6896060629180156
3.8927036443630603
3.8619312835380395
3.7757686732280415
3.8927036443630603
3.9357849495180455
3.9727117825080476
3.9234760051880535
3.9173215330230438
3.8927036443630603
3.8619312835380395
3.7696142010630322
3.701915007248036
3.7265328959080186
3.720378423743037
3.7142239515780275
3.677297118588024
3.6896060629180156
3.7080694794130173
3.7265328959080186
3.634215813433012
3.677297118588024
3.788077617558033
3.695760535083026
3.6896060629180156
3.511126370132983
3.277256427862973
4.2065817247780855
3.732687368073029
3.61575239693801
3.75115078456803
3.825004450548036
3.75730525673304
3.7942320897230433
3.9850207268380675
4.120419114468088
4.034256504158063
3.9911751990030497
3.9727117825080476
4.083492281478085
4.0711833371480655
3.8988581165280416
3.9296304773530633
3.9973296711680604
3.9727117825080476
3.8434678670430373
3.9296304773530633
4.040410976323072
4.200427252613103
3.9357849495180455
4.009638615498079
3.9911751990030497
3.9604028381780574
3.874240227868059
3.75730525673304
3.781923145393024
3.8803947000330408
3.837313394878028
3.9665573103430654
3.9050125886930522
3.9973296711680604
3.9850207268380675
3.9727117825080476
3.9973296711680604
4.1327280587980795
4.028102031993082
3.948093893848065
3.9973296711680604
4.0711833371480655
3.948093893848065
3.8496223392080475
3.9419394216830552
3.9911751990030497
3.9419394216830552
3.886549172198051
3.7942320897230433
3.837313394878028
3.837313394878028
3.6896060629180156
3.6896060629180156
3.677297118588024
3.732687368073029
3.61575239693801
3.5357442587929944
3.948093893848065
4.637394776328158
3.9111670608580615
3.049540957757918
2.194069326822812
3.3388011495129604
3.4434271763179867
3.424963759822985
3.4434271763179867
3.468045064977998
3.511126370132983
3.4926629536379816
3.4557361206479786
3.578825563948007
3.6219068691030203
3.9419394216830552
3.855776811373057
3.7757686732280415
3.7696142010630322
3.720378423743037
3.6896060629180156
3.720378423743037
3.781923145393024
3.7265328959080186
3.61575239693801
3.701915007248036
3.701915007248036
3.671142646423015
3.35111009384298
2.96953281961293
3.449581648482997
3.6034434526080172
3.486508481473
3.591134508277999
3.7142239515780275
3.671142646423015
3.609597924773
3.609597924773
3.658833702093023
3.640370285598021
3.628061341268002
3.560362147453006
4.163500419623101
4.91434602375318
3.6896060629180156
4.305053279418103
3.738841840238039
3.554207675287996
3.4557361206479786
3.3880369268329824
3.0372320134279267
2.003280689707787
3.074158846417929
3.363419038172971
3.486508481473
3.529589786627985
3.191093817552948
3.1726304010579467
3.461890592812989
3.6034434526080172
3.6649881742580046
3.578825563948007
3.5849800361130173
3.6465247577630033
3.6219068691030203
3.548053203123014
3.560362147453006
3.529589786627985
3.578825563948007
3.578825563948007
3.6649881742580046
3.7080694794130173
3.75730525673304
3.7449963124030208
3.7265328959080186
3.7696142010630322
3.8803947000330408
3.9604028381780574
3.9419394216830552
4.101955697973087
4.181963836118102
4.138882530963089
4.145037003128072
4.083492281478085
4.138882530963089
4.065028864983084
3.9604028381780574
3.9911751990030497
4.028102031993082
3.9727117825080476
3.9542483660130467
3.9665573103430654
4.101955697973087
4.1758093639530935
4.225045141273086
4.3173622237481215
4.40967930622313
4.551232166018132
4.575850054678144
4.415833778388112
4.501996388698137
4.5943134711731455
4.526614277358149
4.508150860863147
4.569695582513134
4.520459805193139
3.9234760051880535
4.834337885608192
4.711248442308165
4.428142722718132
4.366598001068117
4.157345947458091
4.151191475293081
4.9389639124131905
3.9173215330230438
3.8803947000330408
4.12657358663307
4.1758093639530935
4.169654891788083
4.188118308283084
4.1758093639530935
4.292744335088111
4.772793163958178
5.7328908216983105
4.1758093639530935
4.40967930622313
4.305053279418103
4.1942727804480935
4.1758093639530935
3.191093817552948
3.2403295948729705
4.058874392818074
4.040410976323072
3.9973296711680604
4.058874392818074
4.003484143333068
3.9542483660130467
3.9727117825080476
3.948093893848065
3.9665573103430654
3.9357849495180455
3.9296304773530633
3.9542483660130467
3.9788662546730578
3.9911751990030497
3.9234760051880535
4.028102031993082
4.058874392818074
4.015793087663061
4.028102031993082
4.034256504158063
4.040410976323072
4.428142722718132
4.298898807253093
3.9788662546730578
4.021947559828071
3.9850207268380675
3.886549172198051
3.9050125886930522
3.9788662546730578
3.9357849495180455
3.8927036443630603
3.9111670608580615
3.9050125886930522
3.948093893848065
3.8619312835380395
3.418809287657976
3.7265328959080186
3.9727117825080476
3.8927036443630603
3.9542483660130467
3.9973296711680604
4.058874392818074
3.9973296711680604
3.9973296711680604
4.181963836118102
4.606622415503137
4.526614277358149
4.625085831998166
4.889728135093197
5.271305409323245
4.760484219628157
4.631240304163148
4.6004679433381535
4.6004679433381535
4.2065817247780855
3.948093893848065
4.877419190763177
4.588158999008135
4.446606139213133
4.471224027873144
4.6004679433381535
4.569695582513134
4.354289056738125
4.3112077515831135
4.6435492484931675
4.692785025813162
4.655858192823159
4.618931359833156
4.803565524783171
4.9389639124131905
4.877419190763177
4.957427328908192
5.105134660868233
5.080516772208221
5.092825716538213
5.086671244373231
5.19129727117823
5.19129727117823
5.129752549528216
5.154370438188227
5.2220696320032225
5.209760687673231
5.246687520663236
5.228224104168233
5.19745174334324
5.228224104168233
5.166679382518219
5.123598077363234
4.994354161898196
4.969736273238212
5.295923297983257
5.123598077363234
5.172833854683229
5.185142799013221
5.228224104168233
5.271305409323245
5.33285013097326
5.3390046031382425
5.369776963963263
5.492866407263264
5.523638768088285
5.363622491798253
5.449785102108279
5.3390046031382425
5.178988326848239
5.234378576333243
5.3390046031382425
5.3390046031382425
5.271305409323245
5.154370438188227
5.166679382518219
5.117443605198224
5.098980188703223
5.4620940464382715
5.972915236133329
5.4005493247882566
4.145037003128072
4.5327687495231315
5.154370438188227
5.21591515983824
5.234378576333243
5.2220696320032225
5.258996464993254
5.228224104168233
5.283614353653238
5.135907021693225
5.080516772208221
5.06205335571322
5.06205335571322
5.018972050558207
5.031280994888199
5.326695658808251
5.178988326848239
5.05589888354821
5.0497444113832
5.05589888354821
5.111289133033214
5.117443605198224
5.0497444113832
5.092825716538213
5.148215966023217
5.080516772208221
4.963581801073202
4.9389639124131905
4.8651102464331855
4.588158999008135
4.766638691793168
4.846646829938185
4.975890745403193
5.092825716538213
5.080516772208221
5.092825716538213
4.994354161898196
5.012817578393197
5.012817578393197
4.951272856743211
4.877419190763177
4.91434602375318
5.06205335571322
4.975890745403193
4.963581801073202
4.723557386638155
4.618931359833156
4.649703720658149
4.575850054678144
4.6004679433381535
4.662012664988168
4.618931359833156
4.6004679433381535
4.723557386638155
4.778947636123188
4.822028941278172
4.822028941278172
4.840492357773174
4.858955774268176
4.8528013021031935
4.668167137153151
4.471224027873144
5.252841992828244
4.91434602375318
4.846646829938185
4.840492357773174
4.754329747463175
4.785102108288171
4.717402914473173
4.655858192823159
4.828183413443182
4.91434602375318
4.748175275298167
4.231199613438097
3.800386561888025
3.5849800361130173
3.3880369268329824
3.2034027618829395
3.055695429922928
3.178784873222956
3.1480125123979352
3.092622262912931
3.141858040232953
3.234175122707961
3.2034027618829395
3.1726304010579467
3.1480125123979352
2.9510694031179288
3.0372320134279267
2.9633783474479203
2.9633783474479203
2.96953281961293
2.9633783474479203
3.0126141247679152
3.0003051804379233
2.8218254876528905
2.8218254876528905
2.68642710002287
2.6987360443528896
2.9387604587879093
3.006459652602933
3.2280206505429514
3.3141832608529764
3.3264922051829684
3.3695735103379807
3.406500343327984
3.48035400930799
3.461890592812989
3.418809287657976
3.4926629536379816
4.982045217568204
3.9296304773530633
3.5357442587929944
3.529589786627985
3.5849800361130173
3.591134508277999
3.578825563948007
3.35111009384298
2.194069326822812
3.5234353144630024
4.569695582513134
3.9542483660130467
3.652679229928013
3.634215813433012
3.628061341268002
3.191093817552948
2.150988021667799
3.234175122707961
3.504971897968001
3.486508481473
3.5172808422979926
3.48035400930799
3.48035400930799
3.4926629536379816
3.560362147453006
3.6034434526080172
3.5849800361130173
3.61575239693801
3.855776811373057
3.8680857557030492
3.7265328959080186
3.825004450548036
3.6649881742580046
3.5972889804430093
3.6649881742580046
3.652679229928013
3.640370285598021
3.5665166196180156
3.609597924773
3.695760535083026
3.578825563948007
3.6034434526080172
3.357264566007961
3.486508481473
3.677297118588024
3.720378423743037
3.738841840238039
3.6834515907530063
3.677297118588024
3.738841840238039
3.6219068691030203
3.677297118588024
3.75115078456803
3.7142239515780275
3.7265328959080186
3.7757686732280415
3.8126955062180454
3.763459728898022
3.7080694794130173
3.695760535083026
3.7942320897230433
3.7696142010630322
3.763459728898022
3.7142239515780275
3.763459728898022
3.781923145393024
3.8496223392080475
3.855776811373057
3.800386561888025
3.8496223392080475
3.75730525673304
3.825004450548036
3.7080694794130173
3.5172808422979926
4.428142722718132
4.12657358663307
4.095801225808078
4.101955697973087
3.9665573103430654
3.9419394216830552
4.015793087663061
3.9973296711680604
3.9111670608580615
4.1758093639530935
4.163500419623101
3.886549172198051
3.9234760051880535
3.7696142010630322
3.8126955062180454
3.855776811373057
3.9111670608580615
3.9604028381780574
4.003484143333068
4.058874392818074
4.021947559828071
4.003484143333068
4.0711833371480655
4.483532972203136
4.341980112408105
4.120419114468088
4.108110170138069
4.138882530963089
4.1758093639530935
4.101955697973087
4.1758093639530935
4.077337809313075
4.095801225808078
4.052719920653064
4.058874392818074
4.089646753643067
3.9788662546730578
3.529589786627985
3.9173215330230438
4.0465654484880815
4.0465654484880815
4.052719920653064
4.0465654484880815
4.0711833371480655
4.077337809313075
4.028102031993082
4.028102031993082
4.052719920653064
4.101955697973087
4.040410976323072
4.181963836118102
4.218890669108104
4.0465654484880815
4.181963836118102
4.145037003128072
4.108110170138069
4.1758093639530935
4.649703720658149
5.265150937158236
3.9788662546730578
2.8464433763129016
3.9173215330230438
4.1327280587980795
4.145037003128072
4.452760611378115
4.452760611378115
4.218890669108104
4.163500419623101
4.1327280587980795
4.231199613438097
4.101955697973087
4.157345947458091
4.1942727804480935
4.138882530963089
4.1942727804480935
4.1327280587980795
4.077337809313075
4.12657358663307
3.634215813433012
3.9234760051880535
4.12657358663307
4.169654891788083
4.188118308283084
4.1942727804480935
4.138882530963089
4.2065817247780855
4.1942727804480935
4.145037003128072
4.108110170138069
4.145037003128072
4.151191475293081
4.157345947458091
4.145037003128072
4.058874392818074
4.114264642303079
4.114264642303079
4.120419114468088
4.151191475293081
4.120419114468088
4.021947559828071
4.034256504158063
4.040410976323072
4.034256504158063
4.052719920653064
3.9850207268380675
4.065028864983084
4.120419114468088
4.089646753643067
4.028102031993082
4.052719920653064
4.077337809313075
4.028102031993082
4.003484143333068
3.9665573103430654
4.089646753643067
4.015793087663061
4.015793087663061
3.9973296711680604
3.9911751990030497
3.9850207268380675
3.75115078456803
3.541898730958004
4.508150860863147
4.0465654484880815
4.034256504158063
4.0465654484880815
4.052719920653064
4.021947559828071
4.0465654484880815
4.009638615498079
4.169654891788083
3.9419394216830552
4.021947559828071
4.083492281478085
4.034256504158063
4.034256504158063
4.052719920653064
4.095801225808078
4.0711833371480655
3.9788662546730578
4.089646753643067
4.0465654484880815
4.065028864983084
4.120419114468088
4.108110170138069
4.0711833371480655
4.212736196943095
4.1942727804480935
4.163500419623101
4.12657358663307
4.040410976323072
4.101955697973087
4.065028864983084
4.157345947458091
4.145037003128072
4.083492281478085
4.108110170138069
4.145037003128072
4.077337809313075
4.058874392818074
3.948093893848065
3.9111670608580615
3.8988581165280416
3.8126955062180454
3.75115078456803
3.8434678670430373
3.837313394878028
3.8126955062180454
3.837313394878028
4.446606139213133
3.468045064977998
3.578825563948007
3.8434678670430373
3.788077617558033
3.75730525673304
3.677297118588024
3.732687368073029
3.8927036443630603
3.7080694794130173
4.280435390758092
5.154370438188227
3.658833702093023
3.738841840238039
3.7942320897230433
3.7696142010630322
2.8279799598179
2.772589710332896
3.763459728898022
3.8988581165280416
3.7942320897230433
3.7942320897230433
3.7757686732280415
3.8188499783830263
3.8680857557030492
3.7449963124030208
3.886549172198051
3.8126955062180454
3.837313394878028
3.8927036443630603
3.874240227868059
3.8619312835380395
3.9419394216830552
3.837313394878028
3.8434678670430373
3.874240227868059
3.8496223392080475
3.8126955062180454
3.855776811373057
3.837313394878028
3.831158922713046
3.8434678670430373
3.8188499783830263
3.788077617558033
3.855776811373057
3.831158922713046
3.763459728898022
3.8434678670430373
3.9111670608580615
3.9234760051880535
3.9542483660130467
3.8988581165280416
3.9173215330230438
3.8619312835380395
3.8803947000330408
3.874240227868059
3.8188499783830263
3.8496223392080475
3.8496223392080475
3.9850207268380675
4.465069555708134
4.028102031993082
3.9357849495180455
3.948093893848065
3.8126955062180454
3.886549172198051
3.8680857557030492
3.9296304773530633
3.874240227868059
3.7757686732280415
3.8619312835380395
4.40967930622313
4.009638615498079
4.3173622237481215
3.8619312835380395
3.825004450548036
3.781923145393024
3.8496223392080475
3.7942320897230433
2.5941100175478624
3.0680043742529195
3.7696142010630322
3.825004450548036
3.8927036443630603
3.8619312835380395
3.8065410340530352
3.781923145393024
3.763459728898022
3.554207675287996
3.720378423743037
3.7696142010630322
3.7449963124030208
3.6834515907530063
3.7265328959080186
3.6896060629180156
3.658833702093023
3.75115078456803
3.701915007248036
3.695760535083026
3.7142239515780275
3.763459728898022
4.040410976323072
3.9111670608580615
3.800386561888025
3.800386561888025
3.788077617558033
3.7757686732280415
3.7696142010630322
3.7757686732280415
3.831158922713046
3.781923145393024
3.7696142010630322
3.8188499783830263
3.75730525673304
3.831158922713046
3.855776811373057
3.7942320897230433
3.886549172198051
3.9234760051880535
3.788077617558033
3.8803947000330408
3.9111670608580615
3.8619312835380395
3.8126955062180454
3.874240227868059
3.8619312835380395
3.9234760051880535
3.7449963124030208
3.9234760051880535
4.040410976323072
3.874240227868059
3.886549172198051
4.27428091859311
4.803565524783171
3.0310775412629165
3.191093817552948
3.825004450548036
3.831158922713046
3.8619312835380395
3.8434678670430373
3.825004450548036
3.886549172198051
3.5357442587929944
3.578825563948007
3.9173215330230438
3.8988581165280416
3.9357849495180455
3.948093893848065
3.9419394216830552
3.9542483660130467
3.8988581165280416
3.9111670608580615
3.8680857557030492
3.8988581165280416
3.8496223392080475
3.8496223392080475
3.9542483660130467
3.8188499783830263
3.855776811373057
3.8619312835380395
3.781923145393024
3.7757686732280415
3.8434678670430373
3.8126955062180454
3.874240227868059
3.8434678670430373
3.788077617558033
3.874240227868059
3.8188499783830263
3.8803947000330408
3.831158922713046
3.9173215330230438
3.8988581165280416
4.003484143333068
3.9111670608580615
3.9296304773530633
3.8496223392080475
3.9111670608580615
3.8803947000330408
3.8619312835380395
3.825004450548036
3.8188499783830263
3.763459728898022
3.8065410340530352
3.8126955062180454
3.8496223392080475
3.8496223392080475
3.8126955062180454
3.874240227868059
3.8434678670430373
3.8126955062180454
3.8927036443630603
3.8680857557030492
3.8619312835380395
3.874240227868059
3.6896060629180156
3.418809287657976
4.323516695913104
3.9296304773530633
3.8496223392080475
3.831158922713046
3.75115078456803
3.8680857557030492
3.7757686732280415
3.7757686732280415
3.732687368073029
3.7942320897230433
3.8188499783830263
3.781923145393024
3.75730525673304
3.8065410340530352
3.732687368073029
3.855776811373057
3.8496223392080475
3.837313394878028
3.8803947000330408
3.8434678670430373
3.855776811373057
3.8927036443630603
3.874240227868059
3.9173215330230438
3.837313394878028
3.8803947000330408
3.8496223392080475
4.2865898629231
4.434297194883113
3.948093893848065
3.9296304773530633
3.9234760051880535
3.855776811373057
3.9357849495180455
3.8988581165280416
3.8927036443630603
3.9050125886930522
3.9111670608580615
3.9111670608580615
3.9542483660130467
3.8680857557030492
3.554207675287996
3.5234353144630024
3.8680857557030492
3.9542483660130467
3.9604028381780574
3.9173215330230438
3.9727117825080476
3.9357849495180455
3.8988581165280416
3.9973296711680604
3.9542483660130467
3.9542483660130467
4.003484143333068
3.9850207268380675
4.065028864983084
3.9727117825080476
4.54507769385315
5.308232242313249
3.9050125886930522
4.034256504158063
4.034256504158063
3.6896060629180156
2.6433457948678853
3.658833702093023
4.021947559828071
4.0465654484880815
3.9296304773530633
3.9665573103430654
3.886549172198051
3.9357849495180455
4.015793087663061
3.9973296711680604
4.028102031993082
4.040410976323072
4.015793087663061
4.0465654484880815
4.040410976323072
4.101955697973087
4.003484143333068
3.9850207268380675
3.9973296711680604
4.354289056738125
4.2865898629231
4.021947559828071
4.0465654484880815
4.077337809313075
3.9727117825080476
4.034256504158063
4.009638615498079
3.9665573103430654
4.0711833371480655
4.015793087663061
4.015793087663061
4.034256504158063
3.9542483660130467
3.578825563948007
3.701915007248036
3.9850207268380675
3.948093893848065
4.003484143333068
3.9542483660130467
3.9542483660130467
3.886549172198051
3.9542483660130467
3.9788662546730578
3.9419394216830552
3.948093893848065
3.9542483660130467
3.9788662546730578
4.040410976323072
3.9542483660130467
3.9296304773530633
3.8619312835380395
3.9296304773530633
3.9357849495180455
3.9419394216830552
3.9419394216830552
3.9234760051880535
3.9542483660130467
3.7942320897230433
3.5234353144630024
4.385061417563119
4.12657358663307
3.9173215330230438
3.9111670608580615
4.009638615498079
4.040410976323072
3.9542483660130467
3.9788662546730578
3.9850207268380675
3.9973296711680604
4.052719920653064
4.138882530963089
3.9850207268380675
3.9727117825080476
3.9419394216830552
3.9850207268380675
4.003484143333068
3.9050125886930522
3.9111670608580615
3.8988581165280416
3.8496223392080475
3.886549172198051
3.9234760051880535
3.9050125886930522
3.948093893848065
4.458915083543125
4.81587446911319
4.8651102464331855
4.698939497978172
4.692785025813162
4.705093970143154
4.7297118588031655
4.754329747463175
4.723557386638155
4.723557386638155
4.803565524783171
4.5820045268431535
4.618931359833156
4.67432160931816
4.668167137153151
4.686630553648152
4.692785025813162
4.803565524783171
5.148215966023217
4.68047608148317
4.631240304163148
4.655858192823159
4.631240304163148
4.637394776328158
4.637394776328158
4.6435492484931675
4.6004679433381535
4.67432160931816
4.631240304163148
4.618931359833156
4.68047608148317
4.446606139213133
4.883573662928187
5.0497444113832
3.628061341268002
4.54507769385315
4.612776887668146
4.6004679433381535
4.6004679433381535
4.625085831998166
4.569695582513134
5.086671244373231
4.92050049591819
4.963581801073202
5.006663106228215
4.428142722718132
4.434297194883113
4.5943134711731455
4.5820045268431535
3.640370285598021
3.609597924773
4.483532972203136
4.471224027873144
4.575850054678144
4.538923221688139
4.5327687495231315
4.5943134711731455
4.625085831998166
4.483532972203136
4.618931359833156
4.557386638183142
4.495841916533128
4.526614277358149
4.538923221688139
4.54507769385315
4.489687444368147
4.514305333028129
4.508150860863147
4.5327687495231315
4.526614277358149
4.526614277358149
4.514305333028129
4.612776887668146
4.5327687495231315
4.508150860863147
4.5820045268431535
4.575850054678144
4.557386638183142
4.569695582513134
4.588158999008135
4.5327687495231315
4.551232166018132
4.538923221688139
4.5327687495231315
4.495841916533128
4.501996388698137
4.495841916533128
4.421988250553122
4.465069555708134
4.483532972203136
4.489687444368147
4.483532972203136
4.495841916533128
4.489687444368147
4.508150860863147
4.495841916533128
4.563541110348153
4.489687444368147
4.520459805193139
4.428142722718132
4.538923221688139
4.520459805193139
4.526614277358149
4.514305333028129
4.354289056738125
4.12657358663307
4.982045217568204
4.5820045268431535
4.538923221688139
4.557386638183142
4.514305333028129
4.5943134711731455
4.495841916533128
4.631240304163148
4.662012664988168
4.526614277358149
4.520459805193139
4.538923221688139
4.551232166018132
4.5327687495231315
4.569695582513134
4.514305333028129
4.501996388698137
4.569695582513134
4.551232166018132
4.489687444368147
4.508150860863147
4.81587446911319
4.91434602375318
4.625085831998166
4.5820045268431535
4.5327687495231315
4.501996388698137
4.520459805193139
4.557386638183142
4.569695582513134
4.538923221688139
4.495841916533128
4.5327687495231315
4.489687444368147
4.440451667048122
4.101955697973087
4.1942727804480935
5.782126599018307
3.701915007248036
3.8927036443630603
4.428142722718132
4.477378500038126
4.37890694539811
4.434297194883113
4.471224027873144
4.471224027873144
4.397370361893111
4.434297194883113
4.871264718598195
5.388240380458265
4.748175275298167
4.465069555708134
4.434297194883113
3.541898730958004
3.461890592812989
4.298898807253093
4.3727524732331275
4.3727524732331275
4.40352483405812
4.397370361893111
4.440451667048122
4.421988250553122
4.385061417563119
4.335825640243124
4.366598001068117
4.421988250553122
4.415833778388112
4.385061417563119
4.452760611378115
4.508150860863147
4.415833778388112
4.434297194883113
4.397370361893111
4.40967930622313
4.366598001068117
4.415833778388112
4.557386638183142
4.495841916533128
4.440451667048122
4.40967930622313
4.385061417563119
4.440451667048122
4.421988250553122
4.40352483405812
4.446606139213133
4.37890694539811
4.341980112408105
4.385061417563119
4.385061417563119
4.366598001068117
4.7297118588031655
4.557386638183142
4.994354161898196
4.058874392818074
4.145037003128072
4.348134584573115
4.40967930622313
4.37890694539811
4.360443528903107
4.397370361893111
4.37890694539811
4.341980112408105
4.391215889728128
4.261971974263091
3.7449963124030208
4.2065817247780855
4.3112077515831135
4.292744335088111
4.114264642303079
3.9911751990030497
3.9850207268380675
3.8496223392080475
3.658833702093023
4.471224027873144
4.138882530963089
4.009638615498079
4.021947559828071
4.108110170138069
4.101955697973087
4.0711833371480655
4.12657358663307
4.028102031993082
4.040410976323072
4.034256504158063
3.9911751990030497
3.9419394216830552
4.009638615498079
3.9850207268380675
3.9850207268380675
3.9973296711680604
3.948093893848065
4.028102031993082
3.9973296711680604
3.8803947000330408
3.9788662546730578
3.948093893848065
3.9665573103430654
3.9727117825080476
4.021947559828071
4.040410976323072
4.021947559828071
3.9911751990030497
3.9604028381780574
3.9665573103430654
4.015793087663061
4.0711833371480655
3.9788662546730578
3.948093893848065
3.9665573103430654
3.9911751990030497
3.9665573103430654
3.9727117825080476
4.003484143333068
3.9911751990030497
4.009638615498079
4.065028864983084
3.948093893848065
3.9911751990030497
4.015793087663061
3.9111670608580615
3.9788662546730578
4.015793087663061
4.003484143333068
4.015793087663061
3.886549172198051
3.9665573103430654
3.9604028381780574
3.9911751990030497
3.9665573103430654
3.9911751990030497
4.360443528903107
4.754329747463175
4.1327280587980795
3.9604028381780574
4.028102031993082
4.021947559828071
4.0465654484880815
4.0465654484880815
3.874240227868059
2.7910531268278973
3.486508481473
3.9542483660130467
4.015793087663061
3.9973296711680604
3.9788662546730578
3.9727117825080476
4.237354085603107
4.065028864983084
3.9050125886930522
3.9296304773530633
4.052719920653064
4.009638615498079
3.9296304773530633
4.009638615498079
4.065028864983084
4.0465654484880815
4.058874392818074
4.015793087663061
4.034256504158063
4.108110170138069
3.9727117825080476
4.009638615498079
4.101955697973087
4.089646753643067
4.058874392818074
4.034256504158063
4.021947559828071
4.077337809313075
4.021947559828071
4.034256504158063
4.169654891788083
4.028102031993082
4.015793087663061
4.034256504158063
4.052719920653064
4.095801225808078
4.095801225808078
4.101955697973087
4.101955697973087
4.040410976323072
4.120419114468088
4.021947559828071
4.0711833371480655
4.058874392818074
4.015793087663061
4.021947559828071
3.9727117825080476
4.077337809313075
4.120419114468088
3.9788662546730578
3.9911751990030497
4.021947559828071
4.015793087663061
3.800386561888025
3.5849800361130173
4.446606139213133
4.108110170138069
4.009638615498079
3.9727117825080476
4.052719920653064
4.077337809313075
4.077337809313075
4.028102031993082
4.021947559828071
4.015793087663061
3.9665573103430654
4.003484143333068
3.9665573103430654
4.065028864983084
4.354289056738125
4.963581801073202
4.385061417563119
4.114264642303079
3.9850207268380675
3.9788662546730578
4.009638615498079
4.003484143333068
3.418809287657976
2.8525978484779113
3.8927036443630603
4.212736196943095
4.3727524732331275
4.2065817247780855
4.335825640243124
4.37890694539811
4.335825640243124
4.237354085603107
4.27428091859311
4.3173622237481215
4.354289056738125
4.335825640243124
4.27428091859311
4.255817502098108
4.329671168078114
4.249663029933098
4.2681264464281
4.3112077515831135
4.249663029933098
4.305053279418103
4.3112077515831135
4.218890669108104
4.2681264464281
4.305053279418103
4.292744335088111
4.2681264464281
4.2865898629231
4.27428091859311
4.280435390758092
4.255817502098108
4.261971974263091
4.3112077515831135
4.243508557768089
4.778947636123188
5.640573739223304
4.1758093639530935
4.292744335088111
3.9911751990030497
2.975687291777912
4.021947559828071
4.305053279418103
4.255817502098108
4.305053279418103
4.298898807253093
4.323516695913104
4.231199613438097
4.3173622237481215
4.335825640243124
4.3112077515831135
4.305053279418103
4.280435390758092
4.298898807253093
4.366598001068117
4.329671168078114
4.243508557768089
4.348134584573115
4.354289056738125
4.305053279418103
4.2865898629231
4.335825640243124
4.348134584573115
4.341980112408105
4.231199613438097
4.255817502098108
4.415833778388112
4.348134584573115
4.231199613438097
4.3173622237481215
4.341980112408105
4.348134584573115
4.27428091859311
4.298898807253093
4.292744335088111
4.292744335088111
4.2681264464281
4.1942727804480935
4.292744335088111
4.397370361893111
4.12657358663307
4.151191475293081
4.243508557768089
4.255817502098108
4.231199613438097
4.212736196943095
4.280435390758092
4.323516695913104
4.298898807253093
4.1942727804480935
4.255817502098108
4.305053279418103
4.255817502098108
4.3173622237481215
4.348134584573115
4.237354085603107
4.3173622237481215
4.188118308283084
4.003484143333068
3.886549172198051
4.692785025813162
4.3112077515831135
4.181963836118102
4.255817502098108
4.360443528903107
4.261971974263091
4.231199613438097
4.391215889728128
4.37890694539811
4.280435390758092
4.261971974263091
4.151191475293081
4.231199613438097
4.2065817247780855
4.200427252613103
4.169654891788083
4.2065817247780855
4.188118308283084
4.163500419623101
4.077337809313075
4.200427252613103
4.2681264464281
4.12657358663307
4.218890669108104
4.2681264464281
4.298898807253093
4.237354085603107
4.12657358663307
4.292744335088111
4.27428091859311
4.243508557768089
4.231199613438097
4.212736196943095
4.243508557768089
4.200427252613103
3.9419394216830552
4.114264642303079
4.255817502098108
4.1758093639530935
4.169654891788083
4.212736196943095
4.3173622237481215
4.329671168078114
4.2065817247780855
4.243508557768089
4.292744335088111
4.200427252613103
4.101955697973087
4.348134584573115
4.397370361893111
4.2065817247780855
4.1327280587980795
4.095801225808078
4.169654891788083
4.200427252613103
4.120419114468088
4.108110170138069
4.3173622237481215
5.148215966023217
4.569695582513134
4.200427252613103
4.200427252613103
4.341980112408105
4.305053279418103
4.157345947458091
3.554207675287996
3.1726304010579467
4.052719920653064
4.114264642303079
4.145037003128072
4.108110170138069
4.12657358663307
4.0711833371480655
4.138882530963089
4.095801225808078
4.12657358663307
4.440451667048122
4.225045141273086
4.169654891788083
4.1758093639530935
4.12657358663307
4.1942727804480935
4.12657358663307
4.237354085603107
4.188118308283084
4.157345947458091
4.237354085603107
4.292744335088111
4.255817502098108
4.089646753643067
3.800386561888025
4.089646753643067
4.145037003128072
4.1327280587980795
4.157345947458091
4.188118308283084
4.212736196943095
4.188118308283084
4.188118308283084
4.200427252613103
4.169654891788083
4.138882530963089
4.083492281478085
4.298898807253093
4.397370361893111
4.101955697973087
4.1942727804480935
4.225045141273086
4.2681264464281
4.225045141273086
4.200427252613103
4.237354085603107
4.188118308283084
4.169654891788083
4.1942727804480935
4.249663029933098
4.280435390758092
3.9850207268380675
3.9111670608580615
4.114264642303079
4.015793087663061
3.652679229928013
4.471224027873144
4.1758093639530935
4.1758093639530935
4.101955697973087
4.058874392818074
4.120419114468088
4.181963836118102
4.015793087663061
4.089646753643067
3.9788662546730578
4.077337809313075
4.157345947458091
4.114264642303079
4.101955697973087
4.243508557768089
4.114264642303079
4.0465654484880815
4.0465654484880815
4.040410976323072
4.077337809313075
4.034256504158063
4.003484143333068
4.077337809313075
4.151191475293081
4.058874392818074
4.015793087663061
4.065028864983084
4.188118308283084
4.108110170138069
4.0465654484880815
4.058874392818074
4.12657358663307
4.120419114468088
4.077337809313075
4.058874392818074
4.101955697973087
4.243508557768089
4.212736196943095
3.9850207268380675
4.089646753643067
4.145037003128072
4.015793087663061
4.040410976323072
4.1327280587980795
4.114264642303079
4.058874392818074
4.065028864983084
4.083492281478085
4.095801225808078
4.101955697973087
3.9296304773530633
3.9911751990030497
4.12657358663307
4.1758093639530935
3.9727117825080476
4.089646753643067
4.2065817247780855
4.6435492484931675
5.369776963963263
4.058874392818074
4.212736196943095
3.381882454667973
3.215711706212959
4.0465654484880815
4.12657358663307
4.120419114468088
4.077337809313075
4.138882530963089
4.212736196943095
4.188118308283084
4.028102031993082
4.101955697973087
4.151191475293081
4.169654891788083
4.138882530963089
4.040410976323072
4.077337809313075
4.434297194883113
4.563541110348153
4.12657358663307
4.083492281478085
4.1758093639530935
4.108110170138069
4.058874392818074
4.2681264464281
5.246687520663236
3.7757686732280415
4.5327687495231315
4.1758093639530935
4.151191475293081
4.145037003128072
3.763459728898022
3.381882454667973
2.797207598992907
3.9234760051880535
4.015793087663061
3.9850207268380675
4.077337809313075
4.138882530963089
4.040410976323072
3.9727117825080476
4.089646753643067
4.108110170138069
4.1327280587980795
4.065028864983084
4.1327280587980795
4.138882530963089
4.120419114468088
4.12657358663307
4.065028864983084
4.108110170138069
4.083492281478085
4.101955697973087
4.0711833371480655
4.120419114468088
4.1758093639530935
4.255817502098108
4.218890669108104
4.3112077515831135
4.3173622237481215
4.465069555708134
4.557386638183142
4.735866330968175
4.8528013021031935
4.797411052618189
4.7420208031331565
4.902037079423188
4.871264718598195
4.778947636123188
4.686630553648152
4.735866330968175
4.834337885608192
4.846646829938185
4.735866330968175
4.723557386638155
4.772793163958178
4.785102108288171
4.705093970143154
4.754329747463175
4.822028941278172
4.7912565804531795
4.748175275298167
4.711248442308165
4.785102108288171
4.846646829938185
4.822028941278172
5.19745174334324
5.025126522723218
4.385061417563119
5.111289133033214
4.908191551588198
4.803565524783171
4.834337885608192
4.7420208031331565
4.686630553648152
4.67432160931816
4.797411052618189
4.7297118588031655
4.588158999008135
4.520459805193139
4.1758093639530935
4.637394776328158
4.655858192823159
4.68047608148317
4.692785025813162
4.723557386638155
4.612776887668146
4.618931359833156
4.698939497978172
4.686630553648152
4.612776887668146
4.668167137153151
4.557386638183142
4.692785025813162
4.649703720658149
4.569695582513134
4.618931359833156
4.692785025813162
4.625085831998166
5.068207827878203
5.899061570153325
4.5327687495231315
4.618931359833156
4.625085831998166
4.588158999008135
4.6435492484931675
4.557386638183142
3.468045064977998
4.101955697973087
4.575850054678144
4.6004679433381535
4.588158999008135
4.563541110348153
4.606622415503137
4.637394776328158
4.54507769385315
4.501996388698137
4.569695582513134
4.631240304163148
4.538923221688139
4.551232166018132
4.692785025813162
4.668167137153151
4.5943134711731455
4.551232166018132
4.563541110348153
4.625085831998166
4.6004679433381535
4.477378500038126
4.54507769385315
5.19129727117823
4.231199613438097
4.27428091859311
4.477378500038126
4.557386638183142
4.483532972203136
4.489687444368147
4.526614277358149
4.67432160931816
4.563541110348153
4.501996388698137
4.520459805193139
4.563541110348153
4.5327687495231315
4.501996388698137
4.514305333028129
4.588158999008135
4.495841916533128
4.520459805193139
4.446606139213133
4.483532972203136
4.5327687495231315
4.415833778388112
4.421988250553122
4.489687444368147
4.391215889728128
4.434297194883113
4.385061417563119
4.428142722718132
4.434297194883113
4.458915083543125
4.415833778388112
4.3173622237481215
4.040410976323072
4.877419190763177
4.495841916533128
4.3727524732331275
4.452760611378115
4.434297194883113
4.391215889728128
4.421988250553122
4.40352483405812
4.366598001068117
4.280435390758092
4.329671168078114
4.354289056738125
4.292744335088111
4.298898807253093
4.225045141273086
4.292744335088111
4.348134584573115
4.305053279418103
4.298898807253093
4.323516695913104
4.40352483405812
4.957427328908192
3.9357849495180455
4.065028864983084
4.360443528903107
4.428142722718132
4.3727524732331275
4.37890694539811
4.3727524732331275
4.465069555708134
4.27428091859311
4.3112077515831135
4.3727524732331275
4.354289056738125
4.2681264464281
4.218890669108104
4.335825640243124
4.348134584573115
4.1942727804480935
4.477378500038126
4.477378500038126
4.27428091859311
4.231199613438097
4.163500419623101
4.212736196943095
4.280435390758092
4.095801225808078
4.077337809313075
4.083492281478085
4.1327280587980795
4.114264642303079
3.9604028381780574
4.003484143333068
3.609597924773
3.8988581165280416
3.8927036443630603
3.8927036443630603
4.5327687495231315
5.135907021693225
3.308028788687967
3.0249230690979347
2.1017522443478045
3.055695429922928
3.3141832608529764
3.3264922051829684
3.2957198443579747
3.1726304010579467
3.0987767350779407
2.944914930952919
3.0126141247679152
3.043386485592936
2.96953281961293
2.9879962361079313
2.96953281961293
2.975687291777912
3.006459652602933
3.0310775412629165
3.018768596932925
3.1357035680679433
3.1110856794079322
3.271101955697964
3.3264922051829684
3.117240151572942
3.1357035680679433
3.160321456727955
3.055695429922928
3.191093817552948
3.160321456727955
3.092622262912931
3.117240151572942
3.166475928892937
3.1972482897179573
3.215711706212959
3.0680043742529195
3.0249230690979347
2.9633783474479203
3.1233946237379517
3.018768596932925
3.1049312072429505
3.1849393453879378
3.117240151572942
3.006459652602933
3.1295490959029335
3.191093817552948
3.178784873222956
3.1049312072429505
3.1110856794079322
3.2280206505429514
3.2403295948729705
3.1480125123979352
3.1480125123979352
3.2095572340479492
3.2034027618829395
3.215711706212959
3.166475928892937
3.215711706212959
3.2526385392029624
3.191093817552948
3.1357035680679433
3.166475928892937
3.0864677907479487
2.9572238752829105
3.886549172198051
3.357264566007961
3.2957198443579747
3.234175122707961
3.160321456727955
3.215711706212959
3.283410900027955
3.221866178377941
3.141858040232953
3.1357035680679433
3.154166984562945
3.178784873222956
3.1357035680679433
3.1972482897179573
3.2403295948729705
3.2464840670379527
3.221866178377941
3.234175122707961
3.1849393453879378
3.289565372192965
3.2280206505429514
3.215711706212959
3.2526385392029624
3.289565372192965
3.277256427862973
3.2034027618829395
3.2095572340479492
3.1726304010579467
3.0864677907479487
3.160321456727955
3.258793011367972
3.2464840670379527
3.301874316522957
4.249663029933098
3.5849800361130173
3.504971897968001
3.3141832608529764
3.1972482897179573
3.2095572340479492
3.1849393453879378
3.166475928892937
2.4217847969278394
2.723353933012873
3.1295490959029335
3.234175122707961
3.221866178377941
3.1849393453879378
3.160321456727955
3.1972482897179573
3.1849393453879378
3.160321456727955
3.1726304010579467
3.2280206505429514
3.1849393453879378
2.901833625797906
2.766435238167886
3.2526385392029624
3.7080694794130173
4.218890669108104
3.6034434526080172
3.3695735103379807
3.3388011495129604
3.277256427862973
3.2464840670379527
2.624882378372884
2.0278985783677985
3.055695429922928
3.1233946237379517
3.289565372192965
3.308028788687967
3.277256427862973
3.283410900027955
3.283410900027955
3.2526385392029624
3.271101955697964
3.215711706212959
3.308028788687967
3.375727982502963
3.264947483532954
3.1972482897179573
3.2957198443579747
3.289565372192965
3.5357442587929944
3.308028788687967
3.277256427862973
3.3449556216779697
3.461890592812989
3.5172808422979926
3.554207675287996
3.578825563948007
3.652679229928013
3.628061341268002
3.548053203123014
3.652679229928013
3.7142239515780275
3.529589786627985
3.381882454667973
3.5972889804430093
3.6834515907530063
3.554207675287996
3.5172808422979926
3.578825563948007
3.640370285598021
3.5972889804430093
3.591134508277999
3.609597924773
3.591134508277999
3.394191398997992
3.4926629536379816
3.7142239515780275
3.7942320897230433
3.652679229928013
3.658833702093023
3.701915007248036
3.732687368073029
3.7449963124030208
3.738841840238039
3.6896060629180156
3.831158922713046
3.8680857557030492
3.5357442587929944
3.308028788687967
4.2681264464281
3.9973296711680604
3.8434678670430373
3.7449963124030208
3.800386561888025
3.8927036443630603
3.701915007248036
3.695760535083026
3.8126955062180454
3.855776811373057
3.855776811373057
3.7757686732280415
3.8065410340530352
3.9050125886930522
3.9419394216830552
3.8126955062180454
3.831158922713046
3.9788662546730578
3.9727117825080476
3.9296304773530633
3.9234760051880535
4.021947559828071
4.009638615498079
4.034256504158063
3.9419394216830552
4.058874392818074
4.12657358663307
4.052719920653064
4.083492281478085
4.163500419623101
4.138882530963089
4.114264642303079
4.021947559828071
4.015793087663061
4.0465654484880815
3.9911751990030497
3.9173215330230438
3.9111670608580615
3.9850207268380675
3.9296304773530633
3.8680857557030492
3.9111670608580615
3.837313394878028
3.886549172198051
3.9173215330230438
3.9419394216830552
4.028102031993082
4.0465654484880815
3.8927036443630603
3.8988581165280416
3.9911751990030497
4.0465654484880815
3.9296304773530633
3.825004450548036
3.9419394216830552
4.021947559828071
4.034256504158063
4.458915083543125
5.295923297983257
3.9234760051880535
3.0249230690979347
2.858752320642893
3.9111670608580615
3.9665573103430654
4.028102031993082
3.9604028381780574
3.948093893848065
4.009638615498079
4.058874392818074
3.8188499783830263
3.8619312835380395
3.9542483660130467
3.9234760051880535
3.8680857557030492
3.8496223392080475
3.9111670608580615
3.9419394216830552
3.788077617558033
3.837313394878028
3.9604028381780574
3.948093893848065
3.9111670608580615
3.8988581165280416
4.009638615498079
3.9911751990030497
3.9850207268380675
3.855776811373057
3.9357849495180455
3.9850207268380675
3.8803947000330408
3.8434678670430373
3.9173215330230438
3.9665573103430654
3.948093893848065
3.8988581165280416
3.8434678670430373
3.8927036443630603
3.9419394216830552
3.8126955062180454
3.781923145393024
3.9111670608580615
3.9050125886930522
3.8188499783830263
3.7757686732280415
3.8188499783830263
3.874240227868059
3.800386561888025
3.8065410340530352
3.7942320897230433
3.8927036443630603
3.800386561888025
3.7265328959080186
3.8188499783830263
3.8434678670430373
3.7142239515780275
3.695760535083026
3.591134508277999
3.75730525673304
3.7449963124030208
3.788077617558033
3.640370285598021
3.424963759822985
4.3112077515831135
3.9296304773530633
3.8680857557030492
3.9542483660130467
3.837313394878028
3.75730525673304
3.695760535083026
3.738841840238039
3.732687368073029
3.591134508277999
3.6219068691030203
3.658833702093023
3.7265328959080186
3.720378423743037
3.7696142010630322
3.781923145393024
4.157345947458091
4.12657358663307
3.8803947000330408
3.9173215330230438
4.040410976323072
4.052719920653064
4.028102031993082
3.9850207268380675
4.065028864983084
4.040410976323072
3.9604028381780574
3.9419394216830552
3.9542483660130467
3.874240227868059
3.4311182319879947
3.652679229928013
3.8188499783830263
3.9111670608580615
3.7942320897230433
3.7942320897230433
3.855776811373057
3.886549172198051
3.7942320897230433
3.831158922713046
3.9542483660130467
3.831158922713046
3.8496223392080475
3.9357849495180455
3.9357849495180455
3.9050125886930522
3.9604028381780574
3.9111670608580615
3.9665573103430654
3.9604028381780574
3.9296304773530633
3.8803947000330408
3.948093893848065
3.9973296711680604
4.021947559828071
3.9296304773530633
3.8803947000330408
4.40967930622313
5.043589939218219
4.169654891788083
3.9357849495180455
3.9542483660130467
3.9419394216830552
3.8065410340530352
2.55718318455786
3.3141832608529764
3.886549172198051
3.8680857557030492
3.831158922713046
3.9173215330230438
3.9665573103430654
4.052719920653064
3.9850207268380675
3.9665573103430654
4.015793087663061
3.9788662546730578
3.9173215330230438
3.9050125886930522
3.9727117825080476
3.9727117825080476
3.8126955062180454
3.8988581165280416
3.9296304773530633
3.886549172198051
3.837313394878028
3.634215813433012
3.855776811373057
3.8988581165280416
3.9296304773530633
3.8803947000330408
3.9973296711680604
3.9973296711680604
3.9173215330230438
3.8988581165280416
3.9727117825080476
4.003484143333068
3.9111670608580615
3.8434678670430373
3.9234760051880535
3.9665573103430654
3.9050125886930522
3.886549172198051
3.9665573103430654
4.717402914473173
4.366598001068117
4.188118308283084
4.200427252613103
3.9973296711680604
4.009638615498079
3.8927036443630603
3.886549172198051
2.772589710332896
3.215711706212959
3.837313394878028
3.9111670608580615
3.9234760051880535
3.9665573103430654
3.9050125886930522
3.8065410340530352
3.9727117825080476
3.9604028381780574
3.8619312835380395
3.9111670608580615
3.8927036443630603
3.9665573103430654
3.948093893848065
3.9727117825080476
3.8927036443630603
3.9542483660130467
3.9296304773530633
3.8434678670430373
3.8680857557030492
3.9357849495180455
3.8927036443630603
3.9111670608580615
3.874240227868059
3.8680857557030492
3.9727117825080476
3.8803947000330408
3.9111670608580615
3.9419394216830552
3.8803947000330408
4.557386638183142
3.554207675287996
3.6219068691030203
3.8927036443630603
3.855776811373057
3.837313394878028
3.8680857557030492
3.9542483660130467
3.9111670608580615
3.7696142010630322
4.083492281478085
4.692785025813162
4.717402914473173
4.68047608148317
4.711248442308165
4.760484219628157
4.754329747463175
4.5327687495231315
4.618931359833156
4.705093970143154
4.698939497978172
4.625085831998166
4.6435492484931675
4.655858192823159
4.341980112408105
4.471224027873144
5.05589888354821
4.735866330968175
4.7297118588031655
4.637394776328158
4.575850054678144
4.67432160931816
4.68047608148317
4.612776887668146
4.625085831998166
4.54507769385315
4.606622415503137
5.111289133033214
5.905216042318334
4.181963836118102
3.2280206505429514
4.2065817247780855
4.495841916533128
4.495841916533128
4.551232166018132
4.563541110348153
4.440451667048122
4.489687444368147
4.421988250553122
3.8619312835380395
3.634215813433012
3.6649881742580046
3.732687368073029
3.763459728898022
3.634215813433012
3.652679229928013
3.7757686732280415
3.75115078456803
3.6649881742580046
3.658833702093023
3.701915007248036
3.7449963124030208
3.7142239515780275
3.7142239515780275
3.640370285598021
3.7080694794130173
4.077337809313075
3.9357849495180455
3.7265328959080186
3.7449963124030208
3.7265328959080186
3.800386561888025
3.6465247577630033
3.8126955062180454
3.837313394878028
3.7265328959080186
3.7080694794130173
3.8188499783830263
3.788077617558033
3.738841840238039
3.3264922051829684
3.5357442587929944
3.738841840238039
3.7757686732280415
3.781923145393024
3.8188499783830263
3.9234760051880535
3.9604028381780574
3.8496223392080475
3.8434678670430373
3.8619312835380395
3.825004450548036
3.7142239515780275
3.781923145393024
3.8803947000330408
3.8434678670430373
3.7449963124030208
3.7080694794130173
3.7696142010630322
3.720378423743037
3.4557361206479786
3.1972482897179573
4.151191475293081
3.825004450548036
3.732687368073029
3.695760535083026
3.7942320897230433
3.9050125886930522
3.7080694794130173
3.7449963124030208
3.8927036443630603
3.9050125886930522
3.886549172198051
3.8126955062180454
3.8619312835380395
3.9419394216830552
3.9357849495180455
3.7696142010630322
3.855776811373057
3.800386561888025
3.7696142010630322
3.8619312835380395
3.8496223392080475
3.8126955062180454
3.75115078456803
3.7265328959080186
3.6834515907530063
3.628061341268002
3.7142239515780275
3.6465247577630033
3.634215813433012
3.763459728898022
3.7696142010630322
3.800386561888025
3.8496223392080475
4.015793087663061
3.9665573103430654
3.9296304773530633
3.8803947000330408
3.9050125886930522
3.9850207268380675
3.9665573103430654
3.9050125886930522
3.9419394216830552
3.9911751990030497
4.015793087663061
3.9173215330230438
3.825004450548036
4.021947559828071
4.1327280587980795
3.8434678670430373
3.825004450548036
3.9234760051880535
3.886549172198051
3.800386561888025
3.8188499783830263
3.788077617558033
3.8680857557030492
3.837313394878028
4.188118308283084
4.840492357773174
4.169654891788083
3.732687368073029
3.511126370132983
3.800386561888025
3.2403295948729705
2.5387197680628577
3.609597924773
3.788077617558033
3.8680857557030492
3.8065410340530352
3.7142239515780275
3.825004450548036
3.9296304773530633
3.7942320897230433
3.7696142010630322
3.7265328959080186
3.8126955062180454
3.8619312835380395
3.855776811373057
3.8619312835380395
3.9911751990030497
3.8803947000330408
3.9111670608580615
3.855776811373057
3.8619312835380395
3.9419394216830552
3.8680857557030492
3.8619312835380395
4.0465654484880815
4.003484143333068
3.8496223392080475
3.8496223392080475
3.8803947000330408
3.8619312835380395
3.8803947000330408
3.8434678670430373
3.9050125886930522
3.948093893848065
3.9665573103430654
3.9173215330230438
3.9665573103430654
4.0465654484880815
4.034256504158063
3.9727117825080476
3.9419394216830552
4.052719920653064
4.0711833371480655
3.9357849495180455
3.9173215330230438
3.9542483660130467
3.9911751990030497
3.9111670608580615
3.8803947000330408
3.8619312835380395
3.8803947000330408
3.886549172198051
3.8496223392080475
3.855776811373057
3.9296304773530633
3.9050125886930522
3.7757686732280415
3.6649881742580046
3.461890592812989
4.40967930622313
3.9788662546730578
3.886549172198051
3.9419394216830552
3.9850207268380675
3.788077617558033
3.8927036443630603
3.9850207268380675
3.9173215330230438
3.8619312835380395
3.8988581165280416
3.9296304773530633
4.015793087663061
3.8803947000330408
3.8126955062180454
3.8680857557030492
3.8988581165280416
3.837313394878028
3.837313394878028
3.948093893848065
4.120419114468088
4.028102031993082
3.9050125886930522
3.9727117825080476
4.015793087663061
4.028102031993082
3.9357849495180455
3.9542483660130467
4.083492281478085
4.028102031993082
3.9604028381780574
3.9604028381780574
3.9727117825080476
3.9357849495180455
3.8065410340530352
3.6219068691030203
3.855776811373057
3.8619312835380395
3.8065410340530352
3.800386561888025
3.8619312835380395
3.8619312835380395
3.825004450548036
3.8188499783830263
3.825004450548036
3.8988581165280416
3.8496223392080475
3.763459728898022
3.9665573103430654
3.9111670608580615
3.825004450548036
4.329671168078114
4.735866330968175
4.225045141273086
4.021947559828071
3.9788662546730578
3.9419394216830552
4.341980112408105
3.9604028381780574
2.624882378372884
2.877215737137895
4.0465654484880815
4.508150860863147
4.040410976323072
3.948093893848065
3.9419394216830552
4.034256504158063
4.028102031993082
3.886549172198051
3.948093893848065
3.9665573103430654
3.9296304773530633
3.948093893848065
3.8988581165280416
3.9727117825080476
3.7757686732280415
3.381882454667973
3.8188499783830263
3.9542483660130467
3.8680857557030492
3.8619312835380395
3.8619312835380395
3.9788662546730578
3.9911751990030497
3.837313394878028
3.9111670608580615
3.9419394216830552
3.9727117825080476
3.837313394878028
4.3112077515831135
4.231199613438097
3.9542483660130467
3.9173215330230438
3.874240227868059
3.9296304773530633
4.034256504158063
3.9357849495180455
3.8927036443630603
3.9850207268380675
4.120419114468088
4.052719920653064
3.9296304773530633
3.9419394216830552
3.634215813433012
3.7449963124030208
3.886549172198051
3.8988581165280416
3.9050125886930522
3.9357849495180455
3.855776811373057
3.8619312835380395
3.8680857557030492
3.8680857557030492
3.8927036443630603
3.9234760051880535
3.9234760051880535
3.9419394216830552
3.7142239515780275
3.7942320897230433
3.948093893848065
3.8188499783830263
3.554207675287996
4.385061417563119
3.9850207268380675
3.9604028381780574
3.9419394216830552
3.831158922713046
3.874240227868059
3.9357849495180455
3.9357849495180455
4.083492281478085
3.8619312835380395
3.9111670608580615
3.8803947000330408
3.874240227868059
3.9050125886930522
3.9357849495180455
3.9173215330230438
3.9111670608580615
3.837313394878028
3.8988581165280416
3.9419394216830552
3.9542483660130467
3.886549172198051
3.9665573103430654
3.9542483660130467
3.9727117825080476
3.8680857557030492
3.9050125886930522
3.9850207268380675
3.9173215330230438
3.8927036443630603
3.9111670608580615
3.8434678670430373
3.9357849495180455
3.9419394216830552
3.9419394216830552
4.034256504158063
3.9604028381780574
3.8803947000330408
3.9727117825080476
4.0465654484880815
3.8988581165280416
3.9419394216830552
3.9419394216830552
3.948093893848065
3.9357849495180455
3.9050125886930522
3.9357849495180455
4.065028864983084
3.9419394216830552
3.9973296711680604
3.8927036443630603
3.9234760051880535
4.015793087663061
4.003484143333068
4.003484143333068
4.040410976323072
4.021947559828071
4.495841916533128
5.2220696320032225
3.837313394878028
4.034256504158063
4.028102031993082
3.886549172198051
2.8033620711578893
3.406500343327984
3.9973296711680604
3.9850207268380675
3.9973296711680604
4.021947559828071
4.101955697973087
4.0711833371480655
4.052719920653064
4.101955697973087
4.101955697973087
4.040410976323072
4.0711833371480655
4.095801225808078
3.9727117825080476
3.9727117825080476
3.9604028381780574
4.028102031993082
4.089646753643067
4.009638615498079
3.9788662546730578
4.015793087663061
3.9727117825080476
3.948093893848065
3.9911751990030497
3.9788662546730578
4.028102031993082
4.120419114468088
4.058874392818074
3.9604028381780574
3.9973296711680604
4.052719920653064
3.886549172198051
3.9419394216830552
4.015793087663061
4.058874392818074
4.003484143333068
3.9357849495180455
3.9973296711680604
4.028102031993082
3.8988581165280416
3.9850207268380675
3.9911751990030497
4.021947559828071
3.9727117825080476
3.9542483660130467
4.040410976323072
4.065028864983084
3.9173215330230438
3.948093893848065
4.009638615498079
4.034256504158063
4.015793087663061
4.028102031993082
4.101955697973087
4.108110170138069
3.948093893848065
3.7942320897230433
3.591134508277999
4.5327687495231315
4.188118308283084
4.003484143333068
4.0711833371480655
4.12657358663307
4.028102031993082
4.0465654484880815
3.9911751990030497
3.9973296711680604
4.145037003128072
4.003484143333068
3.9850207268380675
4.028102031993082
4.009638615498079
4.003484143333068
4.003484143333068
4.021947559828071
3.9911751990030497
4.052719920653064
3.9665573103430654
4.015793087663061
4.089646753643067
4.0465654484880815
4.058874392818074
4.114264642303079
4.040410976323072
4.065028864983084
4.077337809313075
4.015793087663061
4.0711833371480655
4.114264642303079
4.065028864983084
4.003484143333068
4.052719920653064
4.101955697973087
4.108110170138069
3.9604028381780574
4.065028864983084
4.095801225808078
4.058874392818074
3.9542483660130467
4.034256504158063
4.114264642303079
4.077337809313075
3.9296304773530633
4.009638615498079
4.0465654484880815
4.021947559828071
3.9850207268380675
3.9665573103430654
4.009638615498079
4.028102031993082
3.9604028381780574
3.9911751990030497
3.9788662546730578
4.003484143333068
3.9419394216830552
4.421988250553122
5.098980188703223
2.520256351567857
3.572671091782997
3.837313394878028
3.9419394216830552
3.9296304773530633
3.8988581165280416
3.75730525673304
3.8927036443630603
3.886549172198051
3.8496223392080475
3.874240227868059
3.825004450548036
3.8927036443630603
3.8434678670430373
3.781923145393024
3.75730525673304
3.855776811373057
3.8496223392080475
3.855776811373057
3.9542483660130467
3.855776811373057
3.8496223392080475
3.8803947000330408
3.855776811373057
3.886549172198051
3.9788662546730578
4.021947559828071
4.015793087663061
4.101955697973087
4.138882530963089
4.218890669108104
4.218890669108104
4.145037003128072
4.052719920653064
4.077337809313075
4.12657358663307
4.157345947458091
4.163500419623101
4.077337809313075
4.120419114468088
3.9173215330230438
4.003484143333068
3.9173215330230438
3.8188499783830263
3.75115078456803
3.800386561888025
3.886549172198051
3.948093893848065
3.8065410340530352
3.8988581165280416
3.9357849495180455
3.9911751990030497
4.065028864983084
4.120419114468088
4.237354085603107
4.348134584573115
4.2681264464281
4.360443528903107
4.360443528903107
4.280435390758092
4.348134584573115
4.151191475293081
4.095801225808078
5.554411128913278
4.575850054678144
4.218890669108104
4.169654891788083
4.12657358663307
3.9911751990030497
4.003484143333068
4.108110170138069
2.4217847969278394
3.554207675287996
3.8680857557030492
3.8927036443630603
3.9727117825080476
3.9973296711680604
4.009638615498079
4.157345947458091
4.028102031993082
4.089646753643067
4.120419114468088
4.138882530963089
4.12657358663307
4.138882530963089
4.1327280587980795
4.181963836118102
4.163500419623101
4.077337809313075
3.9788662546730578
4.0711833371480655
4.108110170138069
4.0465654484880815
4.065028864983084
4.065028864983084
3.9604028381780574
4.077337809313075
4.083492281478085
4.058874392818074
4.058874392818074
3.9665573103430654
4.0711833371480655
4.101955697973087
4.015793087663061
4.0465654484880815
4.028102031993082
4.021947559828071
4.058874392818074
4.095801225808078
4.058874392818074
4.052719920653064
4.108110170138069
4.089646753643067
4.052719920653064
4.052719920653064
4.095801225808078
4.083492281478085
4.052719920653064
3.9788662546730578
4.040410976323072
4.569695582513134
5.683655044378289
4.711248442308165
4.1942727804480935
4.163500419623101
3.554207675287996
2.200223798987821
3.049540957757918
4.415833778388112
4.0465654484880815
4.015793087663061
4.083492281478085
4.163500419623101
4.157345947458091
3.9973296711680604
4.058874392818074
4.034256504158063
4.120419114468088
4.120419114468088
4.034256504158063
4.0465654484880815
4.181963836118102
4.095801225808078
4.526614277358149
4.163500419623101
4.077337809313075
4.101955697973087
4.065028864983084
4.052719920653064
4.120419114468088
4.065028864983084
4.015793087663061
4.034256504158063
4.095801225808078
4.040410976323072
4.052719920653064
3.8126955062180454
3.4926629536379816
3.9665573103430654
4.089646753643067
4.040410976323072
4.040410976323072
4.0465654484880815
4.065028864983084
4.778947636123188
4.397370361893111
4.095801225808078
4.052719920653064
3.9604028381780574
3.277256427862973
3.8188499783830263
4.040410976323072
4.052719920653064
4.0711833371480655
4.040410976323072
4.040410976323072
4.052719920653064
4.0711833371480655
4.083492281478085
4.083492281478085
4.0711833371480655
4.040410976323072
4.040410976323072
4.052719920653064
4.138882530963089
4.108110170138069
4.077337809313075
4.095801225808078
4.095801225808078
3.948093893848065
4.034256504158063
4.058874392818074
4.065028864983084
4.028102031993082
4.034256504158063
4.040410976323072
4.077337809313075
4.009638615498079
3.886549172198051
3.9973296711680604
4.058874392818074
3.9604028381780574
4.003484143333068
4.028102031993082
4.083492281478085
3.9973296711680604
3.9542483660130467
3.9604028381780574
4.021947559828071
4.009638615498079
3.9604028381780574
4.065028864983084
4.163500419623101
3.9911751990030497
3.9542483660130467
4.0465654484880815
3.9542483660130467
3.9665573103430654
3.9973296711680604
4.003484143333068
4.028102031993082
3.9665573103430654
3.9419394216830552
3.9604028381780574
3.9973296711680604
3.9419394216830552
3.9788662546730578
4.015793087663061
3.9727117825080476
3.9973296711680604
3.9788662546730578
3.486508481473
4.108110170138069
4.415833778388112
3.948093893848065
3.9788662546730578
3.9850207268380675
4.003484143333068
4.034256504158063
3.9911751990030497
3.9604028381780574
4.015793087663061
4.477378500038126
4.428142722718132
2.8033620711578893
3.886549172198051
3.9542483660130467
3.9542483660130467
3.9111670608580615
3.9419394216830552
3.9911751990030497
3.9788662546730578
4.034256504158063
4.163500419623101
4.015793087663061
3.9604028381780574
4.009638615498079
4.065028864983084
4.021947559828071
4.003484143333068
3.9850207268380675
4.003484143333068
4.101955697973087
4.058874392818074
4.077337809313075
4.114264642303079
4.1758093639530935
4.12657358663307
4.040410976323072
4.0465654484880815
3.9173215330230438
3.8803947000330408
3.8065410340530352
3.732687368073029
3.7449963124030208
3.6649881742580046
3.541898730958004
3.529589786627985
3.5357442587929944
3.554207675287996
3.855776811373057
3.6834515907530063
3.6219068691030203
3.7449963124030208
3.6834515907530063
3.671142646423015
3.7142239515780275
3.75730525673304
3.7449963124030208
3.75730525673304
3.7757686732280415
3.738841840238039
3.7942320897230433
3.732687368073029
3.554207675287996
3.8619312835380395
3.9357849495180455
3.948093893848065
4.052719920653064
4.108110170138069
4.114264642303079
4.058874392818074
4.040410976323072
4.003484143333068
4.009638615498079
3.75730525673304
3.48035400930799
4.446606139213133
4.058874392818074
3.8803947000330408
3.9357849495180455
3.9542483660130467
4.015793087663061
4.108110170138069
4.108110170138069
4.188118308283084
4.261971974263091
4.305053279418103
4.335825640243124
4.37890694539811
4.471224027873144
4.92050049591819
4.797411052618189
4.5327687495231315
4.526614277358149
4.526614277358149
4.514305333028129
4.520459805193139
4.551232166018132
4.538923221688139
4.471224027873144
4.458915083543125
4.538923221688139
4.477378500038126
4.434297194883113
4.015793087663061
4.329671168078114
4.508150860863147
4.612776887668146
4.686630553648152
4.68047608148317
4.698939497978172
4.698939497978172
4.723557386638155
4.717402914473173
4.7912565804531795
4.67432160931816
4.637394776328158
4.760484219628157
4.7420208031331565
4.563541110348153
4.483532972203136
4.471224027873144
4.508150860863147
4.3727524732331275
4.341980112408105
4.280435390758092
4.335825640243124
4.3727524732331275
4.335825640243124
4.348134584573115
4.298898807253093
4.452760611378115
4.501996388698137
4.723557386638155
5.351313547468262
4.6004679433381535
4.415833778388112
4.151191475293081
2.9387604587879093
3.554207675287996
4.1942727804480935
4.243508557768089
4.1327280587980795
4.188118308283084
4.138882530963089
3.948093893848065
4.7912565804531795
4.218890669108104
4.803565524783171
4.188118308283084
4.095801225808078
4.0711833371480655
4.077337809313075
3.7942320897230433
2.6925815721878803
3.7449963124030208
4.052719920653064
4.015793087663061
4.12657358663307
4.101955697973087
4.040410976323072
4.052719920653064
4.120419114468088
4.0711833371480655
4.12657358663307
4.145037003128072
4.120419114468088
4.120419114468088
4.114264642303079
4.083492281478085
3.9788662546730578
4.034256504158063
4.120419114468088
3.9911751990030497
3.9542483660130467
3.9911751990030497
4.009638615498079
3.9788662546730578
3.9111670608580615
4.040410976323072
3.9911751990030497
4.009638615498079
4.12657358663307
4.058874392818074
4.052719920653064
4.138882530963089
4.218890669108104
4.1758093639530935
4.120419114468088
4.101955697973087
4.077337809313075
4.089646753643067
4.089646753643067
4.138882530963089
4.028102031993082
4.021947559828071
4.101955697973087
4.120419114468088
4.040410976323072
4.077337809313075
3.8988581165280416
3.874240227868059
4.009638615498079
3.9911751990030497
4.095801225808078
4.169654891788083
4.157345947458091
4.120419114468088
4.058874392818074
3.5849800361130173
4.421988250553122
4.3727524732331275
4.0465654484880815
4.108110170138069
4.058874392818074
4.021947559828071
4.003484143333068
4.058874392818074
4.145037003128072
4.083492281478085
4.0711833371480655
4.095801225808078
4.028102031993082
4.077337809313075
4.151191475293081
4.009638615498079
4.114264642303079
4.3727524732331275
4.458915083543125
4.37890694539811
4.385061417563119
4.40967930622313
4.415833778388112
4.27428091859311
4.335825640243124
4.440451667048122
4.391215889728128
4.3727524732331275
4.391215889728128
4.415833778388112
4.360443528903107
3.9604028381780574
4.095801225808078
4.243508557768089
4.237354085603107
4.292744335088111
4.169654891788083
4.2065817247780855
4.243508557768089
4.065028864983084
4.200427252613103
4.120419114468088
4.108110170138069
4.120419114468088
4.225045141273086
4.945118384578201
5.277459881488256
4.563541110348153
4.212736196943095
4.181963836118102
4.169654891788083
4.120419114468088
4.108110170138069
3.732687368073029
2.631036850537866
3.8496223392080475
4.114264642303079
4.145037003128072
4.021947559828071
3.738841840238039
4.0711833371480655
4.0711833371480655
4.169654891788083
4.212736196943095
4.218890669108104
4.225045141273086
4.225045141273086
4.2681264464281
4.212736196943095
4.157345947458091
4.077337809313075
4.015793087663061
3.9973296711680604
4.1327280587980795
4.163500419623101
4.163500419623101
4.145037003128072
4.083492281478085
3.825004450548036
3.948093893848065
4.040410976323072
3.9850207268380675
4.077337809313075
4.114264642303079
4.138882530963089
4.231199613438097
4.151191475293081
4.169654891788083
4.231199613438097
4.231199613438097
4.27428091859311
4.323516695913104
4.3727524732331275
4.3727524732331275
4.255817502098108
4.218890669108104
4.323516695913104
4.341980112408105
4.255817502098108
4.440451667048122
4.662012664988168
4.323516695913104
4.292744335088111
4.298898807253093
4.2681264464281
4.243508557768089
4.280435390758092
4.212736196943095
4.200427252613103
3.7265328959080186
4.6435492484931675
4.40352483405812
4.218890669108104
4.212736196943095
3.9234760051880535
4.243508557768089
4.292744335088111
4.341980112408105
4.366598001068117
4.397370361893111
4.366598001068117
4.415833778388112
4.421988250553122
4.421988250553122
4.421988250553122
4.440451667048122
4.501996388698137
4.575850054678144
4.495841916533128
4.501996388698137
4.483532972203136
4.477378500038126
4.538923221688139
4.335825640243124
4.434297194883113
4.428142722718132
4.37890694539811
4.385061417563119
4.415833778388112
4.440451667048122
4.551232166018132
4.335825640243124
4.354289056738125
4.446606139213133
4.5327687495231315
4.563541110348153
4.5820045268431535
4.551232166018132
4.569695582513134
4.5820045268431535
4.655858192823159
4.6004679433381535
4.5820045268431535
4.6435492484931675
4.655858192823159
4.5820045268431535
4.68047608148317
4.692785025813162
4.760484219628157
4.7297118588031655
4.7420208031331565
4.735866330968175
4.67432160931816
4.662012664988168
4.655858192823159
4.606622415503137
4.569695582513134
5.123598077363234
6.576053508303481
4.81587446911319
4.6435492484931675
4.625085831998166
2.8156710154879088
4.015793087663061
4.508150860863147
4.501996388698137
4.458915083543125
4.434297194883113
4.520459805193139
4.54507769385315
4.391215889728128
4.446606139213133
3.9973296711680604
4.120419114468088
4.360443528903107
4.40967930622313
4.366598001068117
4.526614277358149
4.40352483405812
4.341980112408105
4.385061417563119
4.483532972203136
4.40352483405812
4.428142722718132
4.428142722718132
4.514305333028129
4.428142722718132
4.385061417563119
4.434297194883113
4.428142722718132
4.391215889728128
4.366598001068117
4.415833778388112
4.483532972203136
4.391215889728128
4.397370361893111
4.40967930622313
4.397370361893111
4.366598001068117
4.348134584573115
4.231199613438097
4.360443528903107
4.323516695913104
4.335825640243124
4.329671168078114
4.27428091859311
4.3112077515831135
4.243508557768089
4.27428091859311
4.163500419623101
4.237354085603107
4.261971974263091
4.1942727804480935
4.40352483405812
4.348134584573115
4.27428091859311
4.255817502098108
4.151191475293081
4.2681264464281
4.354289056738125
4.0711833371480655
3.8188499783830263
4.834337885608192
4.526614277358149
4.415833778388112
4.3112077515831135
4.385061417563119
4.471224027873144
4.335825640243124
4.1942727804480935
4.1327280587980795
4.052719920653064
3.9050125886930522
3.7449963124030208
3.7265328959080186
3.658833702093023
3.677297118588024
3.5665166196180156
3.634215813433012
3.7449963124030208
4.92050049591819
4.292744335088111
4.188118308283084
4.12657358663307
4.145037003128072
4.225045141273086
4.255817502098108
4.058874392818074
2.7848986546628876
3.486508481473
3.9973296711680604
4.145037003128072
4.231199613438097
4.243508557768089
4.157345947458091
4.200427252613103
4.218890669108104
4.305053279418103
4.2681264464281
4.360443528903107
4.354289056738125
4.305053279418103
4.237354085603107
4.255817502098108
4.1327280587980795
4.077337809313075
4.114264642303079
4.1327280587980795
4.631240304163148
4.225045141273086
3.9788662546730578
3.9604028381780574
3.8434678670430373
3.788077617558033
3.7449963124030208
3.800386561888025
3.855776811373057
3.8434678670430373
3.9357849495180455
4.440451667048122
5.154370438188227
4.200427252613103
3.4557361206479786
3.8434678670430373
3.9727117825080476
4.077337809313075
4.145037003128072
3.0864677907479487
3.0249230690979347
4.12657358663307
4.163500419623101
4.2065817247780855
4.323516695913104
4.323516695913104
4.298898807253093
4.557386638183142
4.40967930622313
4.348134584573115
4.440451667048122
4.421988250553122
4.434297194883113
4.434297194883113
4.40352483405812
4.452760611378115
4.434297194883113
4.452760611378115
4.538923221688139
4.631240304163148
4.5820045268431535
4.434297194883113
4.440451667048122
4.489687444368147
4.495841916533128
4.483532972203136
4.477378500038126
4.557386638183142
4.655858192823159
4.662012664988168
4.662012664988168
4.68047608148317
4.625085831998166
4.575850054678144
4.754329747463175
5.252841992828244
4.834337885608192
4.692785025813162
4.618931359833156
4.458915083543125
4.514305333028129
4.483532972203136
4.421988250553122
4.360443528903107
4.37890694539811
4.329671168078114
4.440451667048122
4.1942727804480935
3.9788662546730578
3.652679229928013
4.151191475293081
4.1758093639530935
4.163500419623101
4.138882530963089
3.9727117825080476
3.48035400930799
4.415833778388112
4.0465654484880815
3.855776811373057
3.825004450548036
3.7757686732280415
3.732687368073029
3.874240227868059
3.8434678670430373
3.837313394878028
3.8619312835380395
3.9234760051880535
4.034256504158063
4.065028864983084
4.1758093639530935
4.1327280587980795
3.9850207268380675
4.212736196943095
4.2065817247780855
4.188118308283084
4.188118308283084
4.6435492484931675
4.3173622237481215
4.077337809313075
4.077337809313075
4.077337809313075
4.015793087663061
3.9911751990030497
3.9788662546730578
4.009638615498079
3.9234760051880535
3.9911751990030497
3.948093893848065
3.9727117825080476
3.8434678670430373
3.4311182319879947
3.9234760051880535
3.9727117825080476
3.9973296711680604
3.9542483660130467
3.948093893848065
3.9911751990030497
4.009638615498079
3.9173215330230438
3.9727117825080476
3.9788662546730578
4.009638615498079
3.886549172198051
3.9234760051880535
3.9604028381780574
3.9419394216830552
3.9973296711680604
3.9973296711680604
3.9911751990030497
4.101955697973087
3.9173215330230438
3.9788662546730578
3.9604028381780574
4.428142722718132
5.203606215508222
4.37890694539811
4.101955697973087
2.8095165433228986
3.3449556216779697
4.089646753643067
4.120419114468088
4.249663029933098
4.40352483405812
4.458915083543125
4.501996388698137
4.569695582513134
4.606622415503137
4.625085831998166
4.67432160931816
4.6435492484931675
4.668167137153151
4.612776887668146
4.458915083543125
4.434297194883113
4.434297194883113
4.428142722718132
4.415833778388112
4.440451667048122
4.465069555708134
4.483532972203136
4.514305333028129
4.569695582513134
4.569695582513134
4.575850054678144
4.520459805193139
4.415833778388112
4.452760611378115
4.446606139213133
4.434297194883113
4.354289056738125
4.366598001068117
4.323516695913104
4.397370361893111
4.354289056738125
4.329671168078114
4.348134584573115
4.360443528903107
4.280435390758092
4.618931359833156
4.391215889728128
4.341980112408105
4.354289056738125
4.3112077515831135
4.366598001068117
4.440451667048122
4.2865898629231
4.2681264464281
4.335825640243124
4.2865898629231
4.261971974263091
4.243508557768089
4.292744335088111
4.526614277358149
4.280435390758092
4.169654891788083
4.120419114468088
3.9542483660130467
3.677297118588024
4.631240304163148
4.323516695913104
4.255817502098108
4.120419114468088
4.200427252613103
4.1758093639530935
4.083492281478085
4.0711833371480655
3.763459728898022
4.083492281478085
4.145037003128072
4.108110170138069
4.188118308283084
4.1758093639530935
4.114264642303079
4.114264642303079
4.138882530963089
4.089646753643067
4.095801225808078
4.077337809313075
4.028102031993082
4.163500419623101
4.157345947458091
3.9788662546730578
4.021947559828071
4.077337809313075
4.003484143333068
4.021947559828071
4.052719920653064
4.003484143333068
4.065028864983084
4.058874392818074
4.040410976323072
4.138882530963089
3.9296304773530633
3.9111670608580615
3.8927036443630603
3.9665573103430654
3.9727117825080476
3.9973296711680604
4.009638615498079
4.021947559828071
3.874240227868059
3.9665573103430654
3.9542483660130467
3.9850207268380675
3.9727117825080476
3.9973296711680604
4.212736196943095
4.7912565804531795
4.280435390758092
4.120419114468088
4.151191475293081
4.12657358663307
4.101955697973087
4.120419114468088
4.058874392818074
4.501996388698137
5.05589888354821
4.335825640243124
4.138882530963089
4.114264642303079
3.720378423743037
3.418809287657976
3.591134508277999
2.5325652958978484
3.6896060629180156
3.9788662546730578
4.021947559828071
4.0711833371480655
4.0711833371480655
4.0465654484880815
4.034256504158063
4.0711833371480655
4.120419114468088
4.077337809313075
4.181963836118102
4.151191475293081
4.181963836118102
4.12657358663307
4.151191475293081
4.095801225808078
4.101955697973087
4.015793087663061
4.077337809313075
4.040410976323072
3.9973296711680604
4.0465654484880815
4.723557386638155
4.0465654484880815
4.557386638183142
4.329671168078114
4.058874392818074
4.0711833371480655
4.120419114468088
4.114264642303079
3.0126141247679152
3.234175122707961
4.12657358663307
4.145037003128072
4.089646753643067
4.169654891788083
4.163500419623101
4.151191475293081
4.120419114468088
4.040410976323072
4.083492281478085
4.12657358663307
4.0465654484880815
4.028102031993082
4.0711833371480655
4.052719920653064
3.9050125886930522
3.8496223392080475
3.9911751990030497
3.9111670608580615
3.9234760051880535
3.9542483660130467
3.9419394216830552
3.9604028381780574
3.9604028381780574
3.9727117825080476
3.9850207268380675
4.021947559828071
4.003484143333068
4.034256504158063
4.052719920653064
3.8927036443630603
3.948093893848065
3.9542483660130467
3.9542483660130467
4.077337809313075
4.114264642303079
4.101955697973087
4.120419114468088
4.163500419623101
4.065028864983084
4.163500419623101
4.169654891788083
4.151191475293081
4.114264642303079
4.1327280587980795
4.12657358663307
4.12657358663307
4.101955697973087
3.948093893848065
3.9234760051880535
4.108110170138069
4.015793087663061
4.237354085603107
4.108110170138069
3.7449963124030208
3.8680857557030492
4.631240304163148
4.188118308283084
4.145037003128072
4.108110170138069
4.065028864983084
4.108110170138069
3.9234760051880535
3.9727117825080476
4.083492281478085
4.114264642303079
4.120419114468088
4.163500419623101
4.151191475293081
4.108110170138069
4.188118308283084
4.163500419623101
4.145037003128072
4.181963836118102
4.1942727804480935
4.40967930622313
4.397370361893111
4.292744335088111
4.2065817247780855
4.181963836118102
4.181963836118102
4.151191475293081
4.618931359833156
5.320541186643241
4.477378500038126
4.1942727804480935
2.4894839907428636
3.75730525673304
4.138882530963089
4.114264642303079
4.151191475293081
4.1758093639530935
4.181963836118102
4.231199613438097
4.114264642303079
4.157345947458091
4.2065817247780855
4.218890669108104
4.218890669108104
4.169654891788083
4.1942727804480935
4.231199613438097
4.255817502098108
4.225045141273086
4.1758093639530935
4.188118308283084
4.200427252613103
4.1942727804480935
4.243508557768089
4.261971974263091
4.12657358663307
4.225045141273086
4.261971974263091
4.169654891788083
4.200427252613103
4.1758093639530935
4.1327280587980795
4.108110170138069
4.145037003128072
4.114264642303079
4.151191475293081
4.1942727804480935
4.181963836118102
4.169654891788083
4.157345947458091
4.225045141273086
4.157345947458091
4.151191475293081
4.120419114468088
4.120419114468088
4.169654891788083
4.089646753643067
4.212736196943095
4.231199613438097
4.169654891788083
4.138882530963089
4.157345947458091
4.200427252613103
4.1758093639530935
4.1942727804480935
4.822028941278172
3.781923145393024
3.9111670608580615
4.200427252613103
4.434297194883113
4.077337809313075
3.738841840238039
4.68047608148317
4.354289056738125
4.181963836118102
4.261971974263091
4.231199613438097
4.1942727804480935
4.2681264464281
4.255817502098108
4.237354085603107
4.218890669108104
4.218890669108104
4.120419114468088
4.157345947458091
4.225045141273086
4.1942727804480935
4.225045141273086
4.237354085603107
4.200427252613103
4.101955697973087
4.157345947458091
4.188118308283084
4.2065817247780855
4.181963836118102
4.200427252613103
4.341980112408105
4.3112077515831135
4.255817502098108
4.243508557768089
4.188118308283084
4.231199613438097
4.249663029933098
4.27428091859311
4.255817502098108
4.231199613438097
4.225045141273086
4.237354085603107
4.181963836118102
4.249663029933098
4.5820045268431535
4.428142722718132
4.280435390758092
4.249663029933098
4.249663029933098
4.2065817247780855
4.298898807253093
4.280435390758092
4.243508557768089
4.27428091859311
4.305053279418103
4.237354085603107
4.237354085603107
4.212736196943095
3.8434678670430373
4.181963836118102
4.212736196943095
4.1942727804480935
4.298898807253093
4.606622415503137
5.234378576333243
4.5943134711731455
4.329671168078114
4.2681264464281
4.298898807253093
4.2865898629231
3.141858040232953
3.258793011367972
4.077337809313075
4.243508557768089
4.329671168078114
4.354289056738125
4.249663029933098
4.3112077515831135
4.341980112408105
4.261971974263091
4.2865898629231
4.261971974263091
4.231199613438097
4.237354085603107
4.27428091859311
4.785102108288171
4.6435492484931675
4.298898807253093
4.2681264464281
4.298898807253093
4.200427252613103
4.243508557768089
4.261971974263091
4.27428091859311
4.243508557768089
4.3112077515831135
4.323516695913104
4.255817502098108
4.261971974263091
3.8803947000330408
4.028102031993082
4.200427252613103
4.1942727804480935
4.188118308283084
4.225045141273086
4.120419114468088
4.163500419623101
4.138882530963089
4.1327280587980795
4.1758093639530935
4.120419114468088
4.151191475293081
4.145037003128072
4.108110170138069
4.151191475293081
4.163500419623101
4.218890669108104
4.255817502098108
4.145037003128072
4.231199613438097
4.157345947458091
4.200427252613103
4.163500419623101
4.1327280587980795
4.212736196943095
4.188118308283084
3.9296304773530633
3.6834515907530063
4.649703720658149
4.2681264464281
4.157345947458091
4.1942727804480935
4.157345947458091
