-2.200223798987821
-2.674118155692878
-2.612573434042864
-2.618727906207874
-2.612573434042864
-2.624882378372884
-2.6433457948678853
-3.0864677907479487
-3.055695429922928
-2.7171994608478913
-2.661809211362886
-2.760280766002876
-2.704890516517872
-2.711044988682881
-2.680272627857888
-2.6925815721878803
-2.7171994608478913
-2.6925815721878803
-2.674118155692878
-2.674118155692878
-2.661809211362886
-2.661809211362886
-2.655654739197877
-2.631036850537866
-2.606418961877855
-2.6987360443528896
-2.655654739197877
-2.655654739197877
-2.667963683527869
-2.6925815721878803
-2.6987360443528896
-2.6925815721878803
-2.704890516517872
-2.747971821672884
-2.766435238167886
-2.8218254876528905
-2.766435238167886
-2.544874240227868
-2.298695353627811
-3.468045064977998
-3.0003051804379233
-2.8525978484779113
-2.8402889041478923
-2.8402889041478923
-2.871061264972913
-2.8649067928079033
-2.8402889041478923
-2.83413443198291
-2.8464433763129016
-2.8402889041478923
-2.8649067928079033
-2.9202970422929075
-2.83413443198291
-2.520256351567857
-2.871061264972913
-2.9633783474479203
-2.9879962361079313
-3.0310775412629165
-3.080313318582939
-3.074158846417929
-3.117240151572942
-3.1357035680679433
-3.0864677907479487
-3.0987767350779407
-3.0618499020879373
-3.049540957757918
-3.154166984562973
-3.492662953638009
-3.357264566007989
-3.24648406703798
-3.191093817552976
-3.1664759288929645
-3.141858040232953
-3.1049312072429505
-3.160321456727955
-3.0864677907479487
-3.006459652602933
-2.96953281961293
-2.9633783474479203
-2.9510694031179288
-2.907988097962916
-2.932605986622927
-2.9818417639429216
-2.932605986622927
-2.9202970422929075
-2.9202970422929075
-2.8895246814679143
-2.9387604587879093
-2.975687291777912
-2.9572238752829105
-2.9879962361079313
-3.0249230690979347
-3.092622262912931
-3.1110856794079322
-3.1664759288929645
-3.1110856794079322
-3.258793011367972
-3.2403295948729705
-3.25263853920299
-3.264947483532982
-3.2711019556979917
-3.1295490959029335
-3.301874316522985
-3.400345871163002
-3.308028788687994
-3.289565372192993
-3.2834109000279827
-3.3203377330179857
-3.3326466773480057
-3.264947483532982
-3.215711706212987
-3.3141832608529764
-3.301874316522985
-3.381882454668
-3.301874316522985
-3.308028788687994
-3.357264566007989
-3.363419038172999
-3.3511100938430074
-3.357264566007989
-3.38803692683301
-3.4188092876580036
-3.4126548154929934
-3.4126548154929934
-3.511126370133011
-3.4803540093080176
-3.4434271763180146
-3.4434271763180146
-3.424963759823013
-3.4126548154929934
-3.400345871163002
-3.406500343328012
-3.375727982502991
-3.363419038172999
-3.363419038172999
-3.375727982502991
-3.38803692683301
-3.3203377330179857
-3.301874316522985
-3.406500343328012
-3.3511100938430074
-3.338801149512988
-3.3203377330179857
-3.301874316522985
-3.2834109000279827
-3.25263853920299
-3.258793011367972
-3.2280206505429785
-3.1664759288929645
-3.1049312072429505
-3.0680043742529195
-3.0864677907479487
-3.1295490959029335
-3.344955621677997
-3.2403295948729705
-3.258793011367972
-3.25263853920299
-3.258793011367972
-3.338801149512988
-3.160321456727955
-2.8895246814679143
-3.184939345387966
-3.25263853920299
-3.3141832608529764
-3.357264566007989
-3.8434678670430653
-3.7634597288980496
-3.6034434526080172
-3.554207675288024
-3.517280842298021
-3.529589786628012
-3.5418987309580316
-3.517280842298021
-3.4988174258030194
-3.517280842298021
-3.535744258793022
-3.511126370133011
-3.504971897968029
-3.4865084814730274
-3.4865084814730274
-3.437272704153005
-3.437272704153005
-3.4126548154929934
-3.3511100938430074
-3.301874316522985
-3.24648406703798
-3.2034027618829675
-3.215711706212987
-3.1972482897179852
-3.1295490959029335
-3.074158846417929
-3.0249230690979347
-2.9141425701278982
-2.649500267032867
-2.5941100175478624
-2.6002644897128726
-2.612573434042864
-2.661809211362886
-2.674118155692878
-2.6987360443528896
-2.766435238167886
-2.8095165433228986
-2.8649067928079033
-2.907988097962916
-3.006459652602933
-3.055695429922928
-3.1357035680679433
-3.184939345387966
-3.2218661783779687
-3.2341751227079882
-3.258793011367972
-3.2095572340479768
-3.2218661783779687
-3.264947483532982
-3.24648406703798
-3.2403295948729705
-3.2218661783779687
-3.2341751227079882
-3.2341751227079882
-3.24648406703798
-3.2280206505429785
-3.24648406703798
-3.2218661783779687
-3.0618499020879373
-3.3141832608529764
-3.4126548154929934
-3.326492205182996
-3.326492205182996
-3.326492205182996
-3.3511100938430074
-3.3511100938430074
-3.424963759823013
-3.3326466773480057
-3.357264566007989
-3.375727982502991
-3.381882454668
-3.381882454668
-3.400345871163002
-3.4126548154929934
-3.406500343328012
-3.400345871163002
-3.437272704153005
-3.4434271763180146
-3.449581648482997
-3.4557361206480066
-3.4803540093080176
-3.437272704153005
-3.437272704153005
-3.4557361206480066
-3.449581648482997
-3.468045064977998
-3.468045064977998
-3.634215813433039
-3.554207675288024
-3.4988174258030194
-3.461890592813016
-3.449581648482997
-3.468045064977998
-3.4557361206480066
-3.4803540093080176
-3.461890592813016
-3.4557361206480066
-3.461890592813016
-3.461890592813016
-3.4434271763180146
-3.363419038172999
-3.2218661783779687
-3.381882454668
-3.357264566007989
-3.363419038172999
-3.38803692683301
-3.381882454668
-3.2957198443579747
-3.338801149512988
-3.338801149512988
-3.326492205182996
-3.3326466773480057
-3.3511100938430074
-3.357264566007989
-3.3141832608529764
-3.301874316522985
-3.24648406703798
-2.907988097962916
-3.400345871163002
-3.8311589227130742
-3.474199537143008
-3.406500343328012
-3.400345871163002
-3.406500343328012
-3.4311182319879947
-3.449581648482997
-3.4434271763180146
-3.4557361206480066
-3.4434271763180146
-3.38803692683301
-3.474199537143008
-3.4311182319879947
-3.400345871163002
-3.375727982502991
-3.338801149512988
-3.3511100938430074
-3.3511100938430074
-3.344955621677997
-3.3203377330179857
-3.338801149512988
-3.3511100938430074
-3.338801149512988
-3.289565372192993
-3.375727982502991
-3.4988174258030194
-3.400345871163002
-3.4188092876580036
-3.308028788687994
-3.308028788687994
-3.338801149512988
-3.0372320134279267
-2.883370209302905
-3.074158846417929
-3.338801149512988
-3.277256427862973
-3.289565372192993
-3.2834109000279827
-3.25263853920299
-3.609597924773028
-3.5849800361130173
-3.344955621677997
-3.308028788687994
-3.3141832608529764
-3.2957198443579747
-3.2834109000279827
-3.289565372192993
-3.2957198443579747
-3.2957198443579747
-3.301874316522985
-3.326492205182996
-3.326492205182996
-3.2711019556979917
-3.2280206505429785
-3.2280206505429785
-3.1357035680679433
-3.1480125123979352
-3.1972482897179852
-3.2034027618829675
-3.2034027618829675
-3.141858040232953
-3.1480125123979352
-3.1726304010579747
-3.1664759288929645
-3.1664759288929645
-3.1664759288929645
-3.2218661783779687
-3.055695429922928
-3.2095572340479768
-3.191093817552976
-3.160321456727955
-3.184939345387966
-3.1726304010579747
-3.154166984562973
-3.141858040232953
-3.141858040232953
-3.1295490959029335
-3.1110856794079322
-2.8279799598179
-3.117240151572942
-3.018768596932925
-2.680272627857888
-2.471020574247862
-2.323313242287822
-2.298695353627811
-2.249459576307816
-2.255614048472826
-2.2802319371328093
-2.2679229928028177
-2.2679229928028177
-2.286386409297819
-2.286386409297819
-2.3110042979578305
-2.3171587701228398
-2.2433051041428067
-2.1756059103278105
-2.4156303247628297
-2.3848579639378364
-2.3540856031128428
-2.3417766587828237
-2.378703491772827
-2.3848579639378364
-2.3848579639378364
-2.446402685587851
-2.4156303247628297
-2.471020574247862
-2.360240075277825
-2.391012436102846
-2.378703491772827
-2.3971669082678284
-2.434093741257831
-2.3971669082678284
-2.3110042979578305
-2.2925408814628288
-2.3171587701228398
-2.372549019607845
-2.4279392690928487
-2.4894839907428636
-2.526410823732866
-2.403321380432838
-2.1263701330077875
-2.4648661020828517
-2.55102871239285
-2.5694921288878514
-2.298695353627811
-2.495638462907845
-3.1972482897179852
-2.9572238752829105
-2.747971821672884
-2.735662877342893
-2.735662877342893
-2.704890516517872
-2.723353933012873
-2.754126293837894
-2.754126293837894
-2.772589710332896
-2.766435238167886
-2.747971821672884
-2.96953281961293
-3.0372320134279267
-2.8402889041478923
-2.83413443198291
-2.8156710154879088
-2.8156710154879088
-2.858752320642893
-2.883370209302905
-2.760280766002876
-2.8033620711578893
-2.8464433763129016
-2.871061264972913
-2.8649067928079033
-2.871061264972913
-2.8464433763129016
-2.778744182497905
-2.8279799598179
-2.83413443198291
-2.83413443198291
-2.8464433763129016
-2.8156710154879088
-2.8279799598179
-2.877215737137895
-2.9387604587879093
-2.944914930952919
-2.883370209302905
-2.8649067928079033
-2.8525978484779113
-2.9141425701278982
-3.006459652602933
-2.9633783474479203
-2.883370209302905
-2.8649067928079033
-2.895679153632896
-2.9202970422929075
-2.901833625797906
-2.932605986622927
-2.932605986622927
-2.9387604587879093
-2.9572238752829105
-2.944914930952919
-2.9633783474479203
-2.932605986622927
-2.9633783474479203
-3.006459652602933
-2.8525978484779113
-3.006459652602933
-3.154166984562973
-2.932605986622927
-2.944914930952919
-2.9510694031179288
-2.9387604587879093
-2.944914930952919
-2.932605986622927
-2.975687291777912
-2.9572238752829105
-2.9264515144579173
-2.932605986622927
-3.0372320134279267
-2.9818417639429216
-3.0249230690979347
-3.0249230690979347
-3.018768596932925
-3.006459652602933
-3.006459652602933
-3.0372320134279267
-3.043386485592936
-3.018768596932925
-3.049540957757918
-3.0987767350779407
-3.1295490959029335
-3.074158846417929
-3.1972482897179852
-3.2280206505429785
-3.3203377330179857
-3.38803692683301
-3.437272704153005
-3.4988174258030194
-3.578825563948035
-3.6896060629180436
-3.7449963124030474
-3.7696142010630598
-3.7449963124030474
-3.7696142010630598
-3.781923145393051
-3.788077617558061
-3.7942320897230712
-3.640370285598049
-3.6957605350830534
-3.7080694794130453
-3.7080694794130453
-3.6772971185880525
-3.6957605350830534
-3.6957605350830534
-3.6896060629180436
-3.6711426464230414
-3.652679229928041
-3.640370285598049
-3.6034434526080172
-3.5418987309580316
-3.5418987309580316
-3.5726710917830253
-3.535744258793022
-3.338801149512988
-2.994150708272913
-3.2711019556979917
-3.6280613412680296
-3.7757686732280415
-3.344955621677997
-3.25263853920299
-3.301874316522985
-3.3326466773480057
-3.3511100938430074
-3.258793011367972
-2.9879962361079313
-3.117240151572942
-3.215711706212987
-3.184939345387966
-3.184939345387966
-3.178784873222984
-3.2034027618829675
-3.2095572340479768
-3.191093817552976
-3.2280206505429785
-3.2034027618829675
-3.191093817552976
-3.258793011367972
-3.178784873222984
-3.2957198443579747
-3.357264566007989
-3.1664759288929645
-3.1726304010579747
-3.160321456727955
-3.1480125123979352
-3.1357035680679433
-3.1233946237379517
-3.092622262912931
-3.0987767350779407
-3.0987767350779407
-3.080313318582939
-3.0864677907479487
-3.0310775412629165
-3.0126141247679152
-3.018768596932925
-3.006459652602933
-2.994150708272913
-3.006459652602933
-3.0126141247679152
-3.055695429922928
-3.0680043742529195
-3.0680043742529195
-3.080313318582939
-3.080313318582939
-3.074158846417929
-3.117240151572942
-3.074158846417929
-3.043386485592936
-3.0372320134279267
-3.043386485592936
-2.9818417639429216
-2.9572238752829105
-3.0003051804379233
-3.0003051804379233
-3.0249230690979347
-3.0126141247679152
-3.018768596932925
-3.0864677907479487
-2.858752320642893
-3.0003051804379233
-2.895679153632896
-3.0618499020879373
-3.1110856794079322
-3.117240151572942
-3.1049312072429505
-3.1110856794079322
-3.1295490959029335
-3.154166984562973
-3.178784873222984
-3.184939345387966
-3.2095572340479768
-3.1972482897179852
-3.1972482897179852
-3.2218661783779687
-3.258793011367972
-3.2403295948729705
-2.8649067928079033
-2.994150708272913
-3.191093817552976
-3.1972482897179852
-3.178784873222984
-3.178784873222984
-3.2095572340479768
-3.154166984562973
-3.154166984562973
-3.184939345387966
-3.1726304010579747
-3.1295490959029335
-3.1049312072429505
-3.0680043742529195
-3.301874316522985
-3.4126548154929934
-3.1726304010579747
-3.1357035680679433
-3.117240151572942
-3.141858040232953
-3.191093817552976
-3.0987767350779407
-3.1480125123979352
-3.1480125123979352
-2.544874240227868
-3.0310775412629165
-3.184939345387966
-3.2034027618829675
-3.2218661783779687
-3.264947483532982
-3.2957198443579747
-3.369573510338009
-3.849622339208075
-3.578825563948035
-3.4126548154929934
-3.363419038172999
-3.369573510338009
-3.381882454668
-3.369573510338009
-3.3511100938430074
-3.1357035680679433
-2.729508405177883
-3.2957198443579747
-3.2711019556979917
-3.381882454668
-3.357264566007989
-3.369573510338009
-3.511126370133011
-3.9480938938480934
-3.5726710917830253
-3.468045064977998
-3.4311182319879947
-3.4126548154929934
-3.4126548154929934
-3.38803692683301
-3.406500343328012
-3.381882454668
-3.3511100938430074
-3.4557361206480066
-3.381882454668
-3.381882454668
-3.363419038172999
-3.344955621677997
-3.3511100938430074
-3.363419038172999
-3.3326466773480057
-3.338801149512988
-3.326492205182996
-3.3203377330179857
-3.3203377330179857
-3.289565372192993
-3.3141832608529764
-3.3511100938430074
-3.3141832608529764
-3.289565372192993
-3.301874316522985
-3.2957198443579747
-3.24648406703798
-3.2341751227079882
-3.2280206505429785
-3.25263853920299
-3.2095572340479768
-3.184939345387966
-3.2095572340479768
-3.1726304010579747
-2.901833625797906
-2.680272627857888
-2.994150708272913
-3.0864677907479487
-3.0680043742529195
-3.0680043742529195
-3.0372320134279267
-3.074158846417929
-3.0864677907479487
-3.0864677907479487
-3.092622262912931
-3.0987767350779407
-3.160321456727955
-3.074158846417929
-3.2095572340479768
-3.560362147453033
-3.326492205182996
-3.2341751227079882
-3.1972482897179852
-3.1049312072429505
-3.258793011367972
-3.338801149512988
-3.2341751227079882
-3.2403295948729705
-3.24648406703798
-3.24648406703798
-3.258793011367972
-3.289565372192993
-3.2218661783779687
-3.1972482897179852
-3.2218661783779687
-3.092622262912931
-3.0003051804379233
-2.871061264972913
-2.747971821672884
-2.729508405177883
-2.83413443198291
-2.8464433763129016
-2.8218254876528905
-2.7418173495078744
-2.711044988682881
-2.704890516517872
-2.68642710002287
-2.624882378372884
-2.729508405177883
-2.704890516517872
-2.680272627857888
-2.680272627857888
-2.661809211362886
-2.6987360443528896
-2.680272627857888
-2.674118155692878
-2.7171994608478913
-2.6002644897128726
-2.6433457948678853
-2.655654739197877
-2.655654739197877
-2.667963683527869
-2.7171994608478913
-2.711044988682881
-2.729508405177883
-2.747971821672884
-2.772589710332896
-2.772589710332896
-2.766435238167886
-2.766435238167886
-2.797207598992907
-2.778744182497905
-2.7848986546628876
-2.766435238167886
-2.772589710332896
-2.772589710332896
-2.8402889041478923
-2.8095165433228986
-2.8218254876528905
-2.8033620711578893
-2.8095165433228986
-2.606418961877855
-2.138679077337807
-2.8033620711578893
-2.772589710332896
-3.2218661783779687
-3.1972482897179852
-2.8895246814679143
-2.858752320642893
-2.8033620711578893
-2.8033620711578893
-2.8649067928079033
-2.8649067928079033
-2.83413443198291
-2.871061264972913
-2.858752320642893
-2.8279799598179
-2.858752320642893
-2.8464433763129016
-2.8649067928079033
-2.877215737137895
-2.8649067928079033
-2.895679153632896
-2.883370209302905
-2.8525978484779113
-2.994150708272913
-2.9510694031179288
-2.932605986622927
-2.9572238752829105
-2.9572238752829105
-2.975687291777912
-2.96953281961293
-2.96953281961293
-2.9572238752829105
-2.975687291777912
-2.975687291777912
-2.9879962361079313
-2.9818417639429216
-2.932605986622927
-3.0618499020879373
-3.018768596932925
-2.9879962361079313
-3.006459652602933
-3.018768596932925
-3.0372320134279267
-3.0310775412629165
-3.0126141247679152
-3.018768596932925
-3.049540957757918
-3.0310775412629165
-3.018768596932925
-3.0249230690979347
-2.932605986622927
-2.754126293837894
-3.0680043742529195
-3.0310775412629165
-3.074158846417929
-3.092622262912931
-3.1049312072429505
-3.0987767350779407
-3.1049312072429505
-3.1110856794079322
-3.080313318582939
-3.1233946237379517
-3.117240151572942
-2.9572238752829105
-3.258793011367972
-3.634215813433039
-3.2711019556979917
-3.191093817552976
-3.1664759288929645
-3.1233946237379517
-3.1049312072429505
-3.0987767350779407
-3.0864677907479487
-3.080313318582939
-3.0864677907479487
-3.0987767350779407
-3.074158846417929
-3.0680043742529195
-3.043386485592936
-3.0126141247679152
-3.092622262912931
-3.0680043742529195
-3.049540957757918
-3.0680043742529195
-3.074158846417929
-3.055695429922928
-3.043386485592936
-3.049540957757918
-3.055695429922928
-3.0680043742529195
-3.0618499020879373
-3.055695429922928
-3.1295490959029335
-2.944914930952919
-2.96953281961293
-3.0618499020879373
-3.092622262912931
-3.1049312072429505
-3.0987767350779407
-3.1049312072429505
-3.1295490959029335
-3.1357035680679433
-3.1357035680679433
-3.141858040232953
-3.1357035680679433
-3.117240151572942
-3.1357035680679433
-3.2403295948729705
-3.3141832608529764
-3.160321456727955
-3.141858040232953
-3.117240151572942
-3.092622262912931
-3.0987767350779407
-3.0987767350779407
-3.0987767350779407
-3.1110856794079322
-3.117240151572942
-3.1233946237379517
-3.1233946237379517
-3.1110856794079322
-3.0310775412629165
-2.7171994608478913
-2.895679153632896
-3.074158846417929
-3.141858040232953
-3.154166984562973
-3.191093817552976
-3.2034027618829675
-3.4803540093080176
-3.8188499783830547
-3.4557361206480066
-3.338801149512988
-3.258793011367972
-3.2834109000279827
-3.289565372192993
-3.2834109000279827
-3.2711019556979917
-3.2834109000279827
-3.2834109000279827
-3.258793011367972
-3.184939345387966
-3.1480125123979352
-3.141858040232953
-3.1357035680679433
-3.1049312072429505
-3.117240151572942
-3.1049312072429505
-3.0987767350779407
-3.0680043742529195
-3.0310775412629165
-3.0987767350779407
-3.0003051804379233
-2.8895246814679143
-2.8095165433228986
-2.723353933012873
-2.754126293837894
-2.871061264972913
-2.9202970422929075
-2.895679153632896
-2.8464433763129016
-2.8156710154879088
-2.8279799598179
-2.8156710154879088
-2.8156710154879088
-2.8649067928079033
-2.871061264972913
-2.858752320642893
-2.8464433763129016
-2.8464433763129016
-2.8649067928079033
-2.8895246814679143
-2.8649067928079033
-2.8464433763129016
-2.877215737137895
-2.883370209302905
-2.8525978484779113
-2.4156303247628297
-2.4648661020828517
-2.7910531268278973
-2.907988097962916
-2.8279799598179
-2.8156710154879088
-2.83413443198291
-2.975687291777912
-3.4803540093080176
-3.1110856794079322
-2.9510694031179288
-2.9141425701278982
-2.9202970422929075
-2.9264515144579173
-2.9264515144579173
-2.8525978484779113
-2.772589710332896
-2.871061264972913
-2.883370209302905
-2.895679153632896
-2.8895246814679143
-2.901833625797906
-2.907988097962916
-2.9387604587879093
-2.9202970422929075
-2.9202970422929075
-2.9387604587879093
-2.9264515144579173
-2.9141425701278982
-2.932605986622927
-3.0864677907479487
-3.0126141247679152
-2.9818417639429216
-2.9633783474479203
-3.043386485592936
-2.895679153632896
-2.907988097962916
-2.932605986622927
-2.9510694031179288
-2.9510694031179288
-2.9387604587879093
-2.9572238752829105
-2.9879962361079313
-2.9510694031179288
-2.9202970422929075
-3.006459652602933
-2.9879962361079313
-3.0372320134279267
-3.018768596932925
-2.994150708272913
-3.043386485592936
-3.0618499020879373
-3.055695429922928
-3.0680043742529195
-3.080313318582939
-3.080313318582939
-3.1049312072429505
-3.0864677907479487
-3.055695429922928
-3.191093817552976
-3.178784873222984
-3.160321456727955
-3.1357035680679433
-3.0680043742529195
-3.1110856794079322
-3.326492205182996
-3.0003051804379233
-2.5325652958978484
-3.2034027618829675
-3.1480125123979352
-3.2034027618829675
-3.701915007248036
-3.535744258793022
-3.2957198443579747
-3.2403295948729705
-3.25263853920299
-3.24648406703798
-3.2341751227079882
-3.264947483532982
-3.258793011367972
-3.2403295948729705
-3.25263853920299
-3.2403295948729705
-3.2341751227079882
-3.25263853920299
-3.24648406703798
-3.2280206505429785
-3.2034027618829675
-3.24648406703798
-3.2341751227079882
-3.2034027618829675
-3.2218661783779687
-3.2218661783779687
-3.2341751227079882
-3.2218661783779687
-3.2218661783779687
-3.1972482897179852
-3.2034027618829675
-3.2280206505429785
-3.1972482897179852
-3.1664759288929645
-3.264947483532982
-2.649500267032867
-3.394191398997992
-3.4988174258030194
-3.25263853920299
-3.2095572340479768
-3.191093817552976
-3.1726304010579747
-3.184939345387966
-3.2341751227079882
-3.25263853920299
-3.117240151572942
-3.178784873222984
-3.154166984562973
-3.092622262912931
-3.191093817552976
-3.154166984562973
-3.154166984562973
-3.178784873222984
-3.178784873222984
-3.154166984562973
-3.141858040232953
-3.178784873222984
-3.178784873222984
-3.1480125123979352
-3.1726304010579747
-3.1972482897179852
-3.1972482897179852
-3.117240151572942
-3.117240151572942
-3.258793011367972
-3.3326466773480057
-3.264947483532982
-3.264947483532982
-3.2711019556979917
-3.25263853920299
-3.264947483532982
-3.264947483532982
-3.277256427862973
-3.25263853920299
-3.24648406703798
-3.24648406703798
-3.2218661783779687
-3.2095572340479768
-3.2403295948729705
-3.2341751227079882
-3.2403295948729705
-3.25263853920299
-3.289565372192993
-3.1726304010579747
-3.2218661783779687
-3.264947483532982
-3.2341751227079882
-3.258793011367972
-3.264947483532982
-3.2403295948729705
-3.2095572340479768
-3.277256427862973
-3.3141832608529764
-3.2711019556979917
-3.289565372192993
-3.289565372192993
-3.2834109000279827
-3.2957198443579747
-3.3141832608529764
-3.301874316522985
-3.2957198443579747
-3.308028788687994
-3.3203377330179857
-3.2834109000279827
-3.301874316522985
-3.3326466773480057
-3.437272704153005
-3.369573510338009
-3.338801149512988
-3.289565372192993
-3.184939345387966
-3.1233946237379517
-3.1726304010579747
-3.24648406703798
-3.264947483532982
-3.2341751227079882
-3.2095572340479768
-3.2218661783779687
-3.1972482897179852
-3.1726304010579747
-3.3141832608529764
-3.1480125123979352
-3.2711019556979917
-3.5665166196180156
-3.338801149512988
-3.3511100938430074
-3.338801149512988
-3.3203377330179857
-3.3141832608529764
-3.3326466773480057
-3.3326466773480057
-3.344955621677997
-3.2957198443579747
-3.24648406703798
-3.326492205182996
-3.3203377330179857
-3.301874316522985
-3.2834109000279827
-3.2957198443579747
-3.3203377330179857
-3.3326466773480057
-3.326492205182996
-3.326492205182996
-3.3141832608529764
-3.3203377330179857
-3.338801149512988
-3.338801149512988
-3.3511100938430074
-3.357264566007989
-3.344955621677997
-3.344955621677997
-3.326492205182996
-3.3511100938430074
-3.3326466773480057
-3.2957198443579747
-3.3141832608529764
-3.308028788687994
-3.3326466773480057
-3.3141832608529764
-3.308028788687994
-3.308028788687994
-3.3511100938430074
-3.2218661783779687
-3.3326466773480057
-3.301874316522985
-3.3326466773480057
-3.3203377330179857
-3.277256427862973
-3.2957198443579747
-3.264947483532982
-3.215711706212987
-3.178784873222984
-3.184939345387966
-3.184939345387966
-3.1972482897179852
-3.1726304010579747
-3.154166984562973
-3.184939345387966
-3.191093817552976
-3.178784873222984
-3.1726304010579747
-3.1664759288929645
-3.1972482897179852
-3.178784873222984
-3.1726304010579747
-3.0680043742529195
-3.178784873222984
-3.289565372192993
-3.2034027618829675
-3.154166984562973
-3.0864677907479487
-3.0864677907479487
-2.9818417639429216
-2.83413443198291
-2.6987360443528896
-2.587955545382853
-2.544874240227868
-2.55718318455786
-2.55102871239285
-2.575646601052861
-2.5387197680628577
-2.5325652958978484
-2.606418961877855
-2.575646601052861
-2.55102871239285
-2.520256351567857
-2.6002644897128726
-2.618727906207874
-2.631036850537866
-2.612573434042864
-2.667963683527869
-2.655654739197877
-2.667963683527869
-2.649500267032867
-2.667963683527869
-2.655654739197877
-2.661809211362886
-2.655654739197877
-2.6925815721878803
-2.747971821672884
-2.723353933012873
-2.6925815721878803
-2.68642710002287
-2.6987360443528896
-2.68642710002287
-2.6925815721878803
-2.6987360443528896
-2.711044988682881
-2.729508405177883
-2.7418173495078744
-2.7418173495078744
-2.747971821672884
-2.711044988682881
-2.704890516517872
-2.760280766002876
-2.7418173495078744
-2.747971821672884
-2.747971821672884
-2.6987360443528896
-2.711044988682881
-2.6371913227028756
-2.587955545382853
-2.618727906207874
-2.4156303247628297
-1.9971262175427773
-2.587955545382853
-2.507947407237865
-2.483329518577854
-2.6433457948678853
-2.5141018794028467
-2.563337656722869
-2.674118155692878
-2.618727906207874
-2.563337656722869
-2.5694921288878514
-2.575646601052861
-2.7418173495078744
-3.184939345387966
-2.760280766002876
-2.655654739197877
-2.612573434042864
-2.55718318455786
-2.6987360443528896
-2.8156710154879088
-2.378703491772827
-3.2034027618829675
-3.2711019556979917
-3.0003051804379233
-2.9633783474479203
-2.9202970422929075
-2.9141425701278982
-2.9264515144579173
-2.907988097962916
-2.907988097962916
-2.8649067928079033
-2.8464433763129016
-2.883370209302905
-2.8464433763129016
-2.895679153632896
-2.8218254876528905
-2.7910531268278973
-2.8525978484779113
-2.8525978484779113
-2.871061264972913
-2.871061264972913
-2.871061264972913
-2.8649067928079033
-2.858752320642893
-2.8464433763129016
-2.8218254876528905
-2.8402889041478923
-2.8464433763129016
-2.778744182497905
-2.7418173495078744
-2.735662877342893
-2.711044988682881
-2.68642710002287
-2.711044988682881
-2.667963683527869
-2.680272627857888
-2.661809211362886
-2.649500267032867
-2.667963683527869
-2.6371913227028756
-2.624882378372884
-2.6925815721878803
-2.655654739197877
-2.655654739197877
-2.6371913227028756
-2.587955545382853
-2.55718318455786
-2.520256351567857
-2.3540856031128428
-2.5325652958978484
-2.772589710332896
-2.7848986546628876
-2.8218254876528905
-2.7418173495078744
-2.7848986546628876
-2.895679153632896
-2.680272627857888
-2.6987360443528896
-2.680272627857888
-2.680272627857888
-2.704890516517872
-2.704890516517872
-2.6987360443528896
-2.704890516517872
-2.7171994608478913
-2.711044988682881
-2.711044988682881
-2.68642710002287
-2.606418961877855
-2.618727906207874
-2.7418173495078744
-2.797207598992907
-2.797207598992907
-2.7910531268278973
-2.8156710154879088
-2.8279799598179
-2.8402889041478923
-2.8156710154879088
-2.8095165433228986
-2.8218254876528905
-2.8279799598179
-2.8525978484779113
-2.8279799598179
-2.8095165433228986
-2.8156710154879088
-2.778744182497905
-2.766435238167886
-2.7418173495078744
-2.747971821672884
-2.704890516517872
-2.704890516517872
-2.711044988682881
-2.723353933012873
-2.704890516517872
-2.8033620711578893
-2.772589710332896
-2.760280766002876
-2.8279799598179
-2.932605986622927
-2.895679153632896
-2.871061264972913
-2.704890516517872
-2.4217847969278394
-3.1295490959029335
-3.215711706212987
-2.9264515144579173
-2.883370209302905
-2.8649067928079033
-2.871061264972913
-2.83413443198291
-2.8464433763129016
-2.871061264972913
-2.932605986622927
-2.901833625797906
-2.907988097962916
-2.9141425701278982
-2.895679153632896
-2.9264515144579173
-3.0003051804379233
-3.0680043742529195
-3.1110856794079322
-3.1233946237379517
-3.1480125123979352
-3.1726304010579747
-3.1480125123979352
-3.0680043742529195
-3.1480125123979352
-3.117240151572942
-3.1233946237379517
-3.0864677907479487
-3.0987767350779407
-3.0987767350779407
-3.0680043742529195
-3.1049312072429505
-3.141858040232953
-2.9818417639429216
-3.0310775412629165
-3.0372320134279267
-3.055695429922928
-2.944914930952919
-2.766435238167886
-2.9510694031179288
-3.0003051804379233
-2.994150708272913
-3.0126141247679152
-3.018768596932925
-3.055695429922928
-3.0310775412629165
-3.043386485592936
-3.049540957757918
-3.0618499020879373
-3.0126141247679152
-3.006459652602933
-3.0618499020879373
-3.308028788687994
-3.0987767350779407
-3.049540957757918
-3.018768596932925
-3.0003051804379233
-3.0126141247679152
-3.0003051804379233
-3.006459652602933
-3.006459652602933
-2.975687291777912
-2.9818417639429216
-2.8649067928079033
-3.0372320134279267
-3.0680043742529195
-2.994150708272913
-3.043386485592936
-3.006459652602933
-3.018768596932925
-3.0126141247679152
-3.074158846417929
-2.944914930952919
-2.9572238752829105
-3.0003051804379233
-2.9879962361079313
-2.96953281961293
-2.994150708272913
-2.96953281961293
-2.96953281961293
-2.9879962361079313
-3.0249230690979347
-2.9818417639429216
-2.96953281961293
-2.975687291777912
-2.96953281961293
-2.9879962361079313
-2.9633783474479203
-2.96953281961293
-2.96953281961293
-2.9387604587879093
-2.9510694031179288
-2.96953281961293
-2.9633783474479203
-2.907988097962916
-3.043386485592936
-3.0003051804379233
-2.9818417639429216
-2.9818417639429216
-2.9633783474479203
-2.975687291777912
-2.975687291777912
-2.994150708272913
-3.006459652602933
-2.994150708272913
-3.0003051804379233
-3.043386485592936
-3.0310775412629165
-3.0003051804379233
-3.0126141247679152
-3.0372320134279267
-3.080313318582939
-3.0126141247679152
-2.96953281961293
-2.9879962361079313
-3.0126141247679152
-3.0126141247679152
-3.0249230690979347
-2.9879962361079313
-2.9879962361079313
-3.0003051804379233
-2.778744182497905
-2.323313242287822
-2.944914930952919
-2.9141425701278982
-2.944914930952919
-2.932605986622927
-3.1664759288929645
-3.529589786628012
-3.1110856794079322
-3.0310775412629165
-3.018768596932925
-3.0249230690979347
-3.018768596932925
-3.0126141247679152
-3.018768596932925
-3.0126141247679152
-3.018768596932925
-3.141858040232953
-3.0680043742529195
-3.043386485592936
-3.0680043742529195
-3.074158846417929
-3.080313318582939
-3.1110856794079322
-3.117240151572942
-3.1110856794079322
-3.092622262912931
-3.074158846417929
-3.0003051804379233
-3.0249230690979347
-2.932605986622927
-3.0618499020879373
-3.160321456727955
-3.154166984562973
-3.1233946237379517
-3.0987767350779407
-3.0864677907479487
-3.074158846417929
-3.080313318582939
-3.1110856794079322
-3.1110856794079322
-3.1480125123979352
-3.1664759288929645
-3.1664759288929645
-3.1233946237379517
-3.160321456727955
-3.141858040232953
-3.160321456727955
-3.154166984562973
-3.154166984562973
-3.1664759288929645
-3.1664759288929645
-3.1726304010579747
-3.1726304010579747
-3.1664759288929645
-3.1726304010579747
-3.1480125123979352
-3.154166984562973
-3.0618499020879373
-2.7418173495078744
-3.0003051804379233
-3.080313318582939
-3.074158846417929
-3.0680043742529195
-2.9264515144579173
-3.1233946237379517
-3.191093817552976
-3.0864677907479487
-3.0680043742529195
-3.141858040232953
-3.074158846417929
-3.0249230690979347
-3.092622262912931
-3.381882454668
-3.2034027618829675
-3.080313318582939
-3.043386485592936
-2.932605986622927
-2.526410823732866
-2.8218254876528905
-2.9202970422929075
-2.9572238752829105
-2.9879962361079313
-2.975687291777912
-2.9818417639429216
-3.2403295948729705
-3.535744258793022
-3.080313318582939
-3.1480125123979352
-3.0618499020879373
-3.0372320134279267
-3.0310775412629165
-3.0126141247679152
-3.0003051804379233
-3.018768596932925
-3.0249230690979347
-3.0126141247679152
-3.0126141247679152
-3.0310775412629165
-3.0003051804379233
-3.006459652602933
-2.975687291777912
-3.0249230690979347
-3.0126141247679152
-3.0003051804379233
-3.0126141247679152
-3.0126141247679152
-3.006459652602933
-3.018768596932925
-3.049540957757918
-3.006459652602933
-3.0126141247679152
-3.0126141247679152
-3.0249230690979347
-3.006459652602933
-2.9141425701278982
-2.778744182497905
-2.96953281961293
-3.006459652602933
-3.0003051804379233
-3.0310775412629165
-3.006459652602933
-2.8033620711578893
-2.3848579639378364
-3.0310775412629165
-3.504971897968029
-3.308028788687994
-3.0618499020879373
-3.043386485592936
-3.0680043742529195
-3.2957198443579747
-3.154166984562973
-3.055695429922928
-3.0310775412629165
-3.055695429922928
-3.055695429922928
-3.043386485592936
-3.049540957757918
-3.055695429922928
-3.080313318582939
-3.0864677907479487
-3.1049312072429505
-3.1233946237379517
-3.074158846417929
-3.0249230690979347
-3.154166984562973
-3.178784873222984
-3.178784873222984
-3.178784873222984
-3.25263853920299
-3.1664759288929645
-3.1357035680679433
-3.1972482897179852
-3.1972482897179852
-3.1664759288929645
-3.1480125123979352
-3.160321456727955
-3.1357035680679433
-3.1049312072429505
-3.1664759288929645
-3.1357035680679433
-3.1110856794079322
-3.074158846417929
-3.049540957757918
-3.0680043742529195
-3.0864677907479487
-3.1233946237379517
-3.160321456727955
-3.184939345387966
-3.191093817552976
-3.1726304010579747
-3.178784873222984
-3.1357035680679433
-3.154166984562973
-3.1664759288929645
-3.1664759288929645
-3.1664759288929645
-3.1664759288929645
-3.178784873222984
-3.1664759288929645
-3.160321456727955
-3.1480125123979352
-3.141858040232953
-3.1726304010579747
-3.141858040232953
-3.1664759288929645
-2.9264515144579173
-2.901833625797906
-3.2280206505429785
-3.1357035680679433
-3.215711706212987
-3.2218661783779687
-3.2957198443579747
-3.3141832608529764
-3.3326466773480057
-3.326492205182996
-3.38803692683301
-3.474199537143008
-3.468045064977998
-3.4803540093080176
-3.5726710917830253
-3.868085755703077
-3.6772971185880525
-3.578825563948035
-3.560362147453033
-3.517280842298021
-3.511126370133011
-3.4865084814730274
-3.492662953638009
-3.4988174258030194
-3.474199537143008
-3.474199537143008
-3.461890592813016
-3.468045064977998
-3.449581648482997
-3.4557361206480066
-3.554207675288024
-3.492662953638009
-3.4865084814730274
-3.474199537143008
-3.474199537143008
-3.4865084814730274
-3.474199537143008
-3.4557361206480066
-3.4803540093080176
-3.4557361206480066
-3.474199537143008
-3.504971897968029
-3.4803540093080176
-3.38803692683301
-3.517280842298021
-3.4988174258030194
-3.517280842298021
-3.517280842298021
-3.4988174258030194
-3.5234353144630304
-3.4434271763180146
-3.38803692683301
-3.3141832608529764
-3.2834109000279827
-3.3326466773480057
-3.400345871163002
-3.4188092876580036
-3.3511100938430074
-3.25263853920299
-2.932605986622927
-3.184939345387966
-3.301874316522985
-3.3326466773480057
-3.357264566007989
-3.406500343328012
-3.738841840238039
-3.8865491721980785
-3.535744258793022
-3.4803540093080176
-3.449581648482997
-3.437272704153005
-3.394191398997992
-3.369573510338009
-3.406500343328012
-3.4188092876580036
-3.375727982502991
-3.363419038172999
-3.406500343328012
-3.363419038172999
-3.357264566007989
-3.3511100938430074
-3.394191398997992
-3.4865084814730274
-3.301874316522985
-3.363419038172999
-3.344955621677997
-3.308028788687994
-3.375727982502991
-3.326492205182996
-3.326492205182996
-3.3203377330179857
-3.308028788687994
-3.3203377330179857
-3.308028788687994
-3.3141832608529764
-3.338801149512988
-3.3326466773480057
-3.2834109000279827
-3.301874316522985
-3.2834109000279827
-3.2341751227079882
-3.326492205182996
-3.2957198443579747
-3.2834109000279827
-3.3141832608529764
-3.308028788687994
-3.3141832608529764
-3.326492205182996
-3.301874316522985
-3.308028788687994
-3.326492205182996
-3.326492205182996
-3.2957198443579747
-3.2957198443579747
-3.2711019556979917
-3.3203377330179857
-3.2957198443579747
-3.2834109000279827
-3.258793011367972
-3.2834109000279827
-3.301874316522985
-3.3326466773480057
-3.117240151572942
-3.2403295948729705
-3.3511100938430074
-3.308028788687994
-3.2711019556979917
-3.258793011367972
-3.258793011367972
-3.468045064977998
-3.381882454668
-3.2957198443579747
-3.2711019556979917
-3.277256427862973
-3.289565372192993
-3.2711019556979917
-3.2711019556979917
-3.289565372192993
-3.2711019556979917
-3.25263853920299
-3.258793011367972
-3.2403295948729705
-3.160321456727955
-2.9572238752829105
-3.141858040232953
-3.191093817552976
-3.2034027618829675
-3.2095572340479768
-3.2095572340479768
-3.2280206505429785
-3.2034027618829675
-3.215711706212987
-3.2403295948729705
-3.24648406703798
-3.2341751227079882
-3.2403295948729705
-3.2218661783779687
-3.2711019556979917
-3.301874316522985
-3.289565372192993
-3.2957198443579747
-3.1972482897179852
-3.264947483532982
-3.2834109000279827
-3.2957198443579747
-3.308028788687994
-3.301874316522985
-3.308028788687994
-3.301874316522985
-3.326492205182996
-3.264947483532982
-3.178784873222984
-3.160321456727955
-3.0310775412629165
-2.901833625797906
-2.7848986546628876
-2.723353933012873
-2.6925815721878803
-2.704890516517872
-2.704890516517872
-2.5325652958978484
-2.249459576307816
-2.587955545382853
-2.778744182497905
-3.2834109000279827
-2.932605986622927
-2.883370209302905
-2.8464433763129016
-2.858752320642893
-2.871061264972913
-2.8895246814679143
-2.883370209302905
-2.8895246814679143
-2.9202970422929075
-2.932605986622927
-2.975687291777912
-2.9879962361079313
-3.0003051804379233
-3.0864677907479487
-3.080313318582939
-3.1357035680679433
-3.1110856794079322
-3.1233946237379517
-3.117240151572942
-3.141858040232953
-3.1664759288929645
-3.154166984562973
-2.9510694031179288
-2.526410823732866
-3.092622262912931
-3.3203377330179857
-3.2403295948729705
-3.2218661783779687
-3.191093817552976
-3.1049312072429505
-3.5665166196180156
-3.75730525673304
-3.381882454668
-3.3203377330179857
-3.301874316522985
-3.308028788687994
-3.2957198443579747
-3.301874316522985
-3.3326466773480057
-3.3326466773480057
-3.2957198443579747
-3.3203377330179857
-3.3203377330179857
-3.2957198443579747
-3.400345871163002
-3.3326466773480057
-3.338801149512988
-3.424963759823013
-3.4126548154929934
-3.375727982502991
-3.375727982502991
-3.394191398997992
-3.461890592813016
-3.326492205182996
-3.369573510338009
-3.400345871163002
-3.375727982502991
-3.2957198443579747
-3.38803692683301
-3.357264566007989
-3.3511100938430074
-3.357264566007989
-3.381882454668
-3.394191398997992
-3.381882454668
-3.400345871163002
-3.424963759823013
-3.406500343328012
-3.369573510338009
-3.308028788687994
-3.2280206505429785
-3.0987767350779407
-3.184939345387966
-3.2034027618829675
-3.215711706212987
-3.154166984562973
-2.96953281961293
-2.747971821672884
-2.680272627857888
-2.6433457948678853
-2.655654739197877
-2.655654739197877
-2.6925815721878803
-2.711044988682881
-2.7418173495078744
-2.711044988682881
-2.606418961877855
-2.8464433763129016
-2.8895246814679143
-2.8402889041478923
-2.83413443198291
-2.8464433763129016
-2.895679153632896
-2.4894839907428636
-2.96953281961293
-3.043386485592936
-2.907988097962916
-2.907988097962916
-2.9202970422929075
-2.871061264972913
-2.8279799598179
-2.944914930952919
-2.9510694031179288
-2.944914930952919
-2.9633783474479203
-2.932605986622927
-2.8895246814679143
-2.871061264972913
-2.883370209302905
-2.877215737137895
-2.932605986622927
-2.9141425701278982
-2.8895246814679143
-2.883370209302905
-2.8464433763129016
-2.9633783474479203
-2.932605986622927
-2.754126293837894
-2.477175046412844
-2.747971821672884
-2.8218254876528905
-2.8218254876528905
-2.8156710154879088
-2.8218254876528905
-2.8525978484779113
-3.344955621677997
-3.24648406703798
-2.932605986622927
-2.8464433763129016
-2.9264515144579173
-2.9510694031179288
-2.9879962361079313
-2.8525978484779113
-2.858752320642893
-2.883370209302905
-2.8525978484779113
-2.8402889041478923
-2.877215737137895
-2.901833625797906
-2.907988097962916
-2.895679153632896
-2.895679153632896
-2.8525978484779113
-2.883370209302905
-2.883370209302905
-2.8464433763129016
-2.83413443198291
-2.83413443198291
-2.8156710154879088
-2.8156710154879088
-2.8279799598179
-2.8279799598179
-2.8279799598179
-2.8279799598179
-2.8156710154879088
-2.8033620711578893
-2.7848986546628876
-2.8525978484779113
-2.8649067928079033
-2.83413443198291
-2.83413443198291
-2.8218254876528905
-2.8095165433228986
-2.8218254876528905
-2.9202970422929075
-2.907988097962916
-2.932605986622927
-2.944914930952919
-2.9202970422929075
-2.9633783474479203
-2.895679153632896
-2.8402889041478923
-2.9387604587879093
-2.9202970422929075
-2.9264515144579173
-2.9202970422929075
-2.9141425701278982
-2.9202970422929075
-2.9141425701278982
-2.877215737137895
-2.877215737137895
-2.778744182497905
-2.9387604587879093
-2.9879962361079313
-2.883370209302905
-2.83413443198291
-2.932605986622927
-2.871061264972913
-2.871061264972913
-2.895679153632896
-2.8895246814679143
-2.895679153632896
-2.883370209302905
-2.9202970422929075
-2.9387604587879093
-2.9202970422929075
-2.9387604587879093
-2.9818417639429216
-2.96953281961293
-2.8895246814679143
-2.8525978484779113
-2.9387604587879093
-2.9264515144579173
-2.932605986622927
-2.9387604587879093
-2.9387604587879093
-2.9387604587879093
-2.895679153632896
-2.901833625797906
-2.9510694031179288
-2.8156710154879088
-2.8464433763129016
-2.8279799598179
-2.858752320642893
-2.994150708272913
-2.907988097962916
-2.8649067928079033
-2.883370209302905
-2.871061264972913
-2.8649067928079033
-2.83413443198291
-2.858752320642893
-2.858752320642893
-2.8525978484779113
-2.8464433763129016
-2.8464433763129016
-2.8464433763129016
-2.8156710154879088
-2.729508405177883
-2.877215737137895
-2.8402889041478923
-2.858752320642893
-2.8525978484779113
-2.8525978484779113
-2.883370209302905
-2.901833625797906
-2.883370209302905
-2.8895246814679143
-2.901833625797906
-2.68642710002287
-2.323313242287822
-2.907988097962916
-2.8464433763129016
-3.1110856794079322
-3.4988174258030194
-3.080313318582939
-2.9633783474479203
-2.9264515144579173
-2.9818417639429216
-2.858752320642893
-2.8895246814679143
-2.895679153632896
-2.932605986622927
-2.932605986622927
-2.9202970422929075
-2.871061264972913
-2.858752320642893
-2.9633783474479203
-2.9202970422929075
-2.9141425701278982
-2.9387604587879093
-2.944914930952919
-2.96953281961293
-2.9879962361079313
-3.0003051804379233
-3.0003051804379233
-3.006459652602933
-3.0126141247679152
-3.055695429922928
-3.0680043742529195
-3.0680043742529195
-3.277256427862973
-3.1480125123979352
-3.043386485592936
-2.975687291777912
-2.9141425701278982
-2.8895246814679143
-2.9818417639429216
-3.080313318582939
-3.117240151572942
-3.092622262912931
-3.0249230690979347
-3.006459652602933
-3.006459652602933
-2.9264515144579173
-2.754126293837894
-2.9879962361079313
-3.0249230690979347
-3.055695429922928
-3.049540957757918
-3.0372320134279267
-3.049540957757918
-3.0618499020879373
-3.0618499020879373
-3.080313318582939
-3.055695429922928
-3.043386485592936
-3.0310775412629165
-3.0372320134279267
-3.0372320134279267
-3.1110856794079322
-3.018768596932925
-3.0003051804379233
-2.8402889041478923
-3.0249230690979347
-3.092622262912931
-3.0249230690979347
-3.018768596932925
-2.9818417639429216
-2.96953281961293
-2.9879962361079313
-2.9633783474479203
-2.975687291777912
-2.9264515144579173
-3.049540957757918
-3.0249230690979347
-3.0618499020879373
-3.092622262912931
-3.1110856794079322
-3.1049312072429505
-3.1110856794079322
-3.1357035680679433
-3.1110856794079322
-3.1233946237379517
-3.1295490959029335
-3.1049312072429505
-3.0987767350779407
-3.2034027618829675
-3.080313318582939
-3.0864677907479487
-3.080313318582939
-3.0618499020879373
-3.055695429922928
-3.074158846417929
-3.0864677907479487
-3.074158846417929
-3.0987767350779407
-3.1295490959029335
-2.8033620711578893
-2.655654739197877
-3.191093817552976
-3.1049312072429505
-3.1049312072429505
-3.1357035680679433
-3.1480125123979352
-3.184939345387966
-3.652679229928041
-3.609597924773028
-3.2280206505429785
-3.2095572340479768
-3.2034027618829675
-3.2218661783779687
-3.2218661783779687
-3.2403295948729705
-3.258793011367972
-3.258793011367972
-3.308028788687994
-3.3141832608529764
-3.277256427862973
-3.3141832608529764
-3.289565372192993
-3.1295490959029335
-2.858752320642893
-3.0618499020879373
-3.2095572340479768
-3.301874316522985
-3.1480125123979352
-3.191093817552976
-3.215711706212987
-3.264947483532982
-3.701915007248036
-3.468045064977998
-3.2711019556979917
-3.2341751227079882
-3.178784873222984
-3.178784873222984
-3.1726304010579747
-3.160321456727955
-3.1726304010579747
-3.1726304010579747
-3.2403295948729705
-3.2834109000279827
-3.2834109000279827
-3.2834109000279827
-3.2403295948729705
-3.326492205182996
-3.301874316522985
-3.301874316522985
-3.2711019556979917
-3.2711019556979917
-3.264947483532982
-3.2711019556979917
-3.2711019556979917
-3.264947483532982
-3.24648406703798
-3.24648406703798
-3.2341751227079882
-3.258793011367972
-3.2280206505429785
-3.289565372192993
-3.2711019556979917
-3.24648406703798
-3.25263853920299
-3.2341751227079882
-3.3141832608529764
-3.215711706212987
-3.1972482897179852
-3.215711706212987
-3.2280206505429785
-3.2034027618829675
-3.2280206505429785
-3.2218661783779687
-3.1664759288929645
-3.191093817552976
-3.2280206505429785
-3.2341751227079882
-3.2403295948729705
-3.1972482897179852
-3.2034027618829675
-3.2218661783779687
-3.215711706212987
-3.215711706212987
-3.2095572340479768
-3.2280206505429785
-3.2034027618829675
-3.0310775412629165
-3.191093817552976
-3.308028788687994
-3.258793011367972
-3.1726304010579747
-3.191093817552976
-3.2095572340479768
-3.1972482897179852
-3.191093817552976
-3.191093817552976
-3.178784873222984
-3.191093817552976
-3.178784873222984
-3.215711706212987
-3.191093817552976
-3.154166984562973
-3.1295490959029335
-3.264947483532982
-3.2280206505429785
-3.1664759288929645
-3.2034027618829675
-3.178784873222984
-3.191093817552976
-3.2034027618829675
-3.178784873222984
-3.160321456727955
-3.160321456727955
-3.1480125123979352
-3.1480125123979352
-3.1357035680679433
-3.0987767350779407
-3.1726304010579747
-3.160321456727955
-3.141858040232953
-3.1357035680679433
-3.160321456727955
-3.154166984562973
-3.1295490959029335
-3.1233946237379517
-3.1726304010579747
-3.154166984562973
-3.1480125123979352
-3.141858040232953
-3.141858040232953
-3.141858040232953
-3.2034027618829675
-3.1664759288929645
-2.9387604587879093
-3.2034027618829675
-3.264947483532982
-3.191093817552976
-3.1972482897179852
-3.191093817552976
-3.2034027618829675
-3.1972482897179852
-3.1726304010579747
-3.1726304010579747
-3.074158846417929
-2.711044988682881
-2.3110042979578305
-3.018768596932925
-3.0372320134279267
-3.0310775412629165
-3.375727982502991
-3.511126370133011
-3.160321456727955
-3.141858040232953
-3.1233946237379517
-3.117240151572942
-3.1357035680679433
-3.1357035680679433
-3.1357035680679433
-3.1295490959029335
-3.141858040232953
-3.2034027618829675
-3.154166984562973
-3.141858040232953
-3.160321456727955
-3.1726304010579747
-3.1664759288929645
-3.1726304010579747
-3.154166984562973
-3.160321456727955
-3.141858040232953
-3.154166984562973
-3.154166984562973
-3.141858040232953
-3.215711706212987
-3.381882454668
-3.2095572340479768
-3.184939345387966
-3.184939345387966
-3.1295490959029335
-3.1110856794079322
-3.092622262912931
-3.074158846417929
-3.154166984562973
-3.0372320134279267
-3.0310775412629165
-3.0249230690979347
-3.0126141247679152
-2.9141425701278982
-2.944914930952919
-3.006459652602933
-2.96953281961293
-2.9633783474479203
-2.9818417639429216
-2.9387604587879093
-2.9264515144579173
-2.9510694031179288
-2.944914930952919
-2.9141425701278982
-2.9141425701278982
-2.944914930952919
-2.9202970422929075
-2.7910531268278973
-2.520256351567857
-2.8156710154879088
-2.895679153632896
-2.9202970422929075
-2.9510694031179288
-2.9572238752829105
-2.8156710154879088
-3.0310775412629165
-3.1049312072429505
-3.0126141247679152
-3.0003051804379233
-3.0372320134279267
-3.018768596932925
-3.092622262912931
-3.4434271763180146
-3.2280206505429785
-3.117240151572942
-3.1110856794079322
-3.141858040232953
-3.1233946237379517
-3.0618499020879373
-3.074158846417929
-3.074158846417929
-3.080313318582939
-3.080313318582939
-3.0864677907479487
-3.080313318582939
-3.092622262912931
-3.0987767350779407
-3.1233946237379517
-3.1110856794079322
-3.141858040232953
-3.1664759288929645
-3.160321456727955
-3.1664759288929645
-3.1972482897179852
-3.2280206505429785
-3.2341751227079882
-3.2403295948729705
-3.25263853920299
-3.25263853920299
-3.2341751227079882
-3.24648406703798
-3.301874316522985
-3.258793011367972
-3.2341751227079882
-3.2280206505429785
-3.2280206505429785
-3.2280206505429785
-3.215711706212987
-3.2218661783779687
-3.215711706212987
-3.2034027618829675
-3.2034027618829675
-3.2034027618829675
-3.191093817552976
-3.006459652602933
-2.8156710154879088
-3.0618499020879373
-3.1726304010579747
-3.1233946237379517
-3.1480125123979352
-3.154166984562973
-3.154166984562973
-2.9572238752829105
-2.8218254876528905
-3.5911345082780266
-3.326492205182996
-3.1972482897179852
-3.1664759288929645
-3.258793011367972
-3.5726710917830253
-3.2957198443579747
-3.215711706212987
-3.184939345387966
-3.178784873222984
-3.2034027618829675
-3.2034027618829675
-3.178784873222984
-3.1664759288929645
-3.160321456727955
-3.1726304010579747
-3.141858040232953
-3.1480125123979352
-3.1233946237379517
-3.0864677907479487
-3.184939345387966
-3.117240151572942
-3.117240151572942
-3.1233946237379517
-3.1480125123979352
-3.1233946237379517
-3.141858040232953
-3.1480125123979352
-3.141858040232953
-3.154166984562973
-3.154166984562973
-2.9510694031179288
-3.400345871163002
-3.1357035680679433
-3.2711019556979917
-3.2341751227079882
-3.24648406703798
-3.25263853920299
-3.25263853920299
-3.2957198443579747
-3.301874316522985
-3.289565372192993
-3.326492205182996
-3.326492205182996
-3.344955621677997
-3.338801149512988
-3.3203377330179857
-2.9818417639429216
-2.858752320642893
-3.018768596932925
-3.301874316522985
-3.215711706212987
-3.2095572340479768
-3.215711706212987
-3.3141832608529764
-3.855776811373057
-3.7449963124030474
-3.548053203123014
-3.578825563948035
-3.609597924773028
-3.609597924773028
-3.504971897968029
-3.38803692683301
-3.560362147453033
-3.560362147453033
-3.535744258793022
-3.548053203123014
-3.517280842298021
-3.424963759823013
-3.381882454668
-3.344955621677997
-3.2957198443579747
-3.3141832608529764
-3.1357035680679433
-3.1480125123979352
-3.178784873222984
-3.578825563948035
-3.308028788687994
-3.1664759288929645
-3.178784873222984
-3.1295490959029335
-3.0987767350779407
-3.055695429922928
-2.994150708272913
-2.9510694031179288
-3.0003051804379233
-3.178784873222984
-3.3141832608529764
-3.369573510338009
-3.338801149512988
-3.184939345387966
-3.25263853920299
-3.25263853920299
-3.2341751227079882
-2.9202970422929075
-3.338801149512988
-3.424963759823013
-3.2834109000279827
-3.264947483532982
-3.2711019556979917
-3.301874316522985
-3.3326466773480057
-3.3326466773480057
-3.369573510338009
-3.375727982502991
-3.5911345082780266
-3.4311182319879947
-3.406500343328012
-3.381882454668
-3.369573510338009
-3.3326466773480057
-3.3141832608529764
-3.548053203123014
-3.38803692683301
-3.369573510338009
-3.363419038172999
-3.338801149512988
-3.3326466773480057
-3.1726304010579747
-3.160321456727955
-3.0310775412629165
-2.612573434042864
-3.178784873222984
-3.1233946237379517
-3.154166984562973
-3.2218661783779687
-3.7449963124030474
-3.6896060629180436
-3.4188092876580036
-3.4188092876580036
-3.38803692683301
-3.38803692683301
-3.381882454668
-3.4311182319879947
-3.424963759823013
-3.449581648482997
-3.437272704153005
-3.4434271763180146
-3.437272704153005
-3.4311182319879947
-3.4188092876580036
-3.424963759823013
-3.406500343328012
-3.4126548154929934
-3.4188092876580036
-3.437272704153005
-3.369573510338009
-3.338801149512988
-3.338801149512988
-3.344955621677997
-3.326492205182996
-3.369573510338009
-3.474199537143008
-3.3326466773480057
-3.4126548154929934
-3.4188092876580036
-3.4434271763180146
-3.468045064977998
-3.492662953638009
-3.517280842298021
-3.4988174258030194
-3.4803540093080176
-3.529589786628012
-3.4988174258030194
-3.461890592813016
-3.461890592813016
-3.4434271763180146
-3.424963759823013
-3.424963759823013
-3.38803692683301
-3.38803692683301
-3.394191398997992
-3.369573510338009
-3.38803692683301
-3.381882454668
-3.2834109000279827
-3.424963759823013
-3.381882454668
-3.406500343328012
-3.437272704153005
-3.4434271763180146
-3.424963759823013
-3.461890592813016
-3.449581648482997
-3.3141832608529764
-3.4865084814730274
-3.554207675288024
-3.461890592813016
-3.474199537143008
-3.394191398997992
-3.357264566007989
-3.38803692683301
-3.474199537143008
-3.3326466773480057
-3.3511100938430074
-3.369573510338009
-3.363419038172999
-3.357264566007989
-3.357264566007989
-3.3511100938430074
-3.369573510338009
-3.381882454668
-3.381882454668
-3.38803692683301
-3.4803540093080176
-3.4434271763180146
-3.4434271763180146
-3.437272704153005
-3.4434271763180146
-3.437272704153005
-3.4434271763180146
-3.406500343328012
-3.394191398997992
-3.406500343328012
-3.406500343328012
-3.406500343328012
-3.400345871163002
-3.344955621677997
-3.326492205182996
-3.4311182319879947
-3.381882454668
-3.178784873222984
-2.8218254876528905
-2.6002644897128726
-2.606418961877855
-2.6371913227028756
-2.649500267032867
-2.661809211362886
-2.674118155692878
-2.68642710002287
-2.704890516517872
-2.729508405177883
-2.7910531268278973
-2.704890516517872
-2.7418173495078744
-2.754126293837894
-2.7910531268278973
-2.8095165433228986
-2.8095165433228986
-2.8156710154879088
-2.8156710154879088
-2.8218254876528905
-2.667963683527869
-2.3663945474428347
-2.895679153632896
-3.3203377330179857
-2.895679153632896
-2.901833625797906
-2.877215737137895
-2.871061264972913
-2.871061264972913
-2.858752320642893
-2.883370209302905
-2.9202970422929075
-2.901833625797906
-2.9202970422929075
-2.9141425701278982
-2.9202970422929075
-2.895679153632896
-2.883370209302905
-2.895679153632896
-2.9387604587879093
-2.901833625797906
-2.895679153632896
-2.901833625797906
-2.9141425701278982
-2.9141425701278982
-2.9264515144579173
-2.9202970422929075
-2.944914930952919
-2.932605986622927
-2.9879962361079313
-2.9510694031179288
-2.9572238752829105
-2.944914930952919
-2.9572238752829105
-2.9818417639429216
-2.9633783474479203
-2.9510694031179288
-2.9387604587879093
-2.944914930952919
-2.9202970422929075
-2.944914930952919
-2.9264515144579173
-2.901833625797906
-2.9264515144579173
-2.907988097962916
-2.9141425701278982
-2.871061264972913
-2.8895246814679143
-2.994150708272913
-2.9387604587879093
-2.9141425701278982
-2.858752320642893
-2.8279799598179
-2.7848986546628876
-2.747971821672884
-2.883370209302905
-2.9818417639429216
-3.043386485592936
-2.994150708272913
-2.9572238752829105
-2.901833625797906
-2.871061264972913
-2.901833625797906
-2.883370209302905
-2.729508405177883
-2.901833625797906
-3.018768596932925
-2.932605986622927
-2.901833625797906
-2.9202970422929075
-2.9879962361079313
-2.871061264972913
-2.9141425701278982
-2.9202970422929075
-2.9141425701278982
-2.8218254876528905
-2.883370209302905
-2.895679153632896
-2.9264515144579173
-2.9141425701278982
-2.9141425701278982
-2.907988097962916
-2.9387604587879093
-2.9387604587879093
-2.944914930952919
-2.9141425701278982
-2.9141425701278982
-2.944914930952919
-2.932605986622927
-2.907988097962916
-2.944914930952919
-2.9633783474479203
-2.944914930952919
-2.9387604587879093
-2.944914930952919
-2.9572238752829105
-2.9510694031179288
-2.9510694031179288
-3.006459652602933
-3.0003051804379233
-2.96953281961293
-2.9818417639429216
-2.975687291777912
-2.9633783474479203
-3.0126141247679152
-3.018768596932925
-3.006459652602933
-3.0003051804379233
-3.0680043742529195
-3.006459652602933
-3.018768596932925
-3.018768596932925
-3.0249230690979347
-3.0372320134279267
-3.049540957757918
-3.018768596932925
-3.049540957757918
-3.006459652602933
-2.9510694031179288
-3.0680043742529195
-3.0126141247679152
-2.5941100175478624
-2.760280766002876
-3.0372320134279267
-3.0680043742529195
-3.0310775412629165
-3.043386485592936
-3.0372320134279267
-3.141858040232953
-3.6280613412680296
-3.344955621677997
-3.141858040232953
-3.074158846417929
-3.2034027618829675
-3.141858040232953
-3.117240151572942
-3.1357035680679433
-3.154166984562973
-3.1357035680679433
-3.1295490959029335
-3.154166984562973
-3.1972482897179852
-3.191093817552976
-3.1664759288929645
-3.141858040232953
-3.1110856794079322
-2.9818417639429216
-2.96953281961293
-2.96953281961293
-3.043386485592936
-3.080313318582939
-3.0618499020879373
-3.0249230690979347
-2.9510694031179288
-2.907988097962916
-2.975687291777912
-3.1295490959029335
-3.2280206505429785
-3.2218661783779687
-3.2034027618829675
-3.178784873222984
-3.357264566007989
-3.191093817552976
-3.1357035680679433
-3.1664759288929645
-3.1726304010579747
-3.191093817552976
-3.1480125123979352
-3.1295490959029335
-3.160321456727955
-3.1480125123979352
-3.1480125123979352
-3.1726304010579747
-3.191093817552976
-3.1295490959029335
-3.141858040232953
-3.215711706212987
-3.191093817552976
-3.1480125123979352
-3.1726304010579747
-3.1972482897179852
-3.215711706212987
-3.2280206505429785
-3.2403295948729705
-3.258793011367972
-3.326492205182996
-3.1295490959029335
-3.2957198443579747
-3.369573510338009
-3.24648406703798
-3.400345871163002
-3.357264566007989
-3.326492205182996
-3.375727982502991
-3.381882454668
-3.381882454668
-3.394191398997992
-3.400345871163002
-3.400345871163002
-3.400345871163002
-3.38803692683301
-3.400345871163002
-3.381882454668
-3.363419038172999
-3.4803540093080176
-3.424963759823013
-3.4126548154929934
-3.4311182319879947
-3.424963759823013
-3.400345871163002
-3.4188092876580036
-3.437272704153005
-3.437272704153005
-3.4311182319879947
-3.424963759823013
-3.424963759823013
-3.4311182319879947
-3.308028788687994
-3.1664759288929645
-3.529589786628012
-3.634215813433039
-3.517280842298021
-3.38803692683301
-3.3141832608529764
-3.258793011367972
-3.3326466773480057
-3.394191398997992
-3.2403295948729705
-3.1480125123979352
-3.0987767350779407
-3.1295490959029335
-2.932605986622927
-3.554207675288024
-3.3141832608529764
-3.055695429922928
-2.9818417639429216
-2.9633783474479203
-2.9633783474479203
-2.994150708272913
-2.975687291777912
-2.994150708272913
-2.975687291777912
-2.96953281961293
-2.9510694031179288
-2.711044988682881
-2.2679229928028177
-2.723353933012873
-3.215711706212987
-3.38803692683301
-3.0003051804379233
-2.9818417639429216
-2.96953281961293
-2.9633783474479203
-2.9818417639429216
-2.994150708272913
-2.9510694031179288
-2.9633783474479203
-2.9264515144579173
-2.871061264972913
-2.760280766002876
-2.680272627857888
-2.883370209302905
-2.9572238752829105
-2.9633783474479203
-2.9264515144579173
-2.9387604587879093
-2.8649067928079033
-2.8525978484779113
-2.9202970422929075
-2.9264515144579173
-2.9510694031179288
-2.975687291777912
-2.9879962361079313
-2.9879962361079313
-2.9572238752829105
-3.0249230690979347
-3.0126141247679152
-3.0310775412629165
-3.0126141247679152
-3.006459652602933
-2.9879962361079313
-2.994150708272913
-3.0126141247679152
-3.006459652602933
-2.994150708272913
-3.0003051804379233
-3.006459652602933
-2.9879962361079313
-2.9818417639429216
-3.0126141247679152
-3.006459652602933
-3.0126141247679152
-3.0372320134279267
-3.018768596932925
-3.0003051804379233
-2.994150708272913
-2.994150708272913
-2.9387604587879093
-2.895679153632896
-2.877215737137895
-2.877215737137895
-2.8464433763129016
-2.8402889041478923
-2.711044988682881
-2.8095165433228986
-2.871061264972913
-2.8218254876528905
-2.797207598992907
-2.735662877342893
-2.9264515144579173
-2.9818417639429216
-2.871061264972913
-2.8402889041478923
-2.8402889041478923
-2.8649067928079033
-2.9264515144579173
-2.932605986622927
-3.080313318582939
-3.1357035680679433
-3.0864677907479487
-3.0680043742529195
-3.074158846417929
-3.080313318582939
-3.117240151572942
-3.1233946237379517
-3.1295490959029335
-3.1233946237379517
-3.1480125123979352
-3.1357035680679433
-3.1110856794079322
-3.1049312072429505
-3.0618499020879373
-3.1726304010579747
-3.141858040232953
-3.141858040232953
-3.1480125123979352
-3.1480125123979352
-3.1480125123979352
-3.1480125123979352
-3.141858040232953
-3.154166984562973
-3.117240151572942
-3.1233946237379517
-3.1357035680679433
-3.0864677907479487
-3.0987767350779407
-3.141858040232953
-3.0680043742529195
-3.0987767350779407
-3.0987767350779407
-3.0987767350779407
-3.117240151572942
-3.117240151572942
-3.1295490959029335
-3.1233946237379517
-3.141858040232953
-3.117240151572942
-3.1357035680679433
-3.1295490959029335
-3.1110856794079322
-3.178784873222984
-3.117240151572942
-3.0680043742529195
-3.074158846417929
-3.0680043742529195
-3.080313318582939
-2.877215737137895
-2.4525571577528327
-3.0618499020879373
-3.018768596932925
-3.0003051804379233
-3.0310775412629165
-3.055695429922928
-3.1972482897179852
-3.6034434526080172
-3.2711019556979917
-3.1295490959029335
-3.1110856794079322
-3.117240151572942
-3.117240151572942
-3.092622262912931
-3.1233946237379517
-3.055695429922928
-3.0680043742529195
-3.1233946237379517
-3.0003051804379233
-3.074158846417929
-3.0680043742529195
-3.0618499020879373
-3.1110856794079322
-3.092622262912931
-3.1110856794079322
-3.092622262912931
-3.074158846417929
-3.055695429922928
-3.049540957757918
-3.055695429922928
-3.0680043742529195
-3.1049312072429505
-3.055695429922928
-3.043386485592936
-3.0618499020879373
-3.0003051804379233
-3.1357035680679433
-3.1295490959029335
-3.0864677907479487
-3.1295490959029335
-3.117240151572942
-3.117240151572942
-3.1233946237379517
-3.1110856794079322
-3.0864677907479487
-3.092622262912931
-3.092622262912931
-3.1110856794079322
-3.1110856794079322
-3.080313318582939
-3.074158846417929
-3.1049312072429505
-3.1049312072429505
-3.1049312072429505
-3.0987767350779407
-3.1049312072429505
-3.1726304010579747
-3.080313318582939
-3.1049312072429505
-3.1295490959029335
-3.1110856794079322
-3.1110856794079322
-3.080313318582939
-2.932605986622927
-3.178784873222984
-3.2341751227079882
-3.0864677907479487
-3.080313318582939
-3.092622262912931
-3.0372320134279267
-2.6925815721878803
-2.9141425701278982
-2.9818417639429216
-3.043386485592936
-3.055695429922928
-3.0680043742529195
-3.080313318582939
-3.2095572340479768
-3.6711426464230414
-3.357264566007989
-3.1972482897179852
-3.1726304010579747
-3.178784873222984
-3.1480125123979352
-3.154166984562973
-3.160321456727955
-3.1726304010579747
-3.178784873222984
-3.1664759288929645
-3.154166984562973
-3.160321456727955
-3.141858040232953
-3.074158846417929
-3.092622262912931
-3.043386485592936
-3.049540957757918
-3.055695429922928
-3.1049312072429505
-3.1972482897179852
-3.2341751227079882
-3.1664759288929645
-3.117240151572942
-3.154166984562973
-3.1357035680679433
-3.1357035680679433
-3.1295490959029335
-3.080313318582939
-3.1726304010579747
-3.154166984562973
-3.141858040232953
-3.1726304010579747
-3.160321456727955
-3.184939345387966
-3.160321456727955
-3.141858040232953
-3.1480125123979352
-3.1480125123979352
-3.1480125123979352
-3.1295490959029335
-3.1357035680679433
-3.1295490959029335
-2.96953281961293
-2.5694921288878514
-3.117240151572942
-3.117240151572942
-3.640370285598049
-3.517280842298021
-3.2034027618829675
-3.184939345387966
-3.1726304010579747
-3.160321456727955
-3.1664759288929645
-3.1726304010579747
-3.154166984562973
-3.215711706212987
-3.0864677907479487
-3.1664759288929645
-3.1357035680679433
-3.160321456727955
-3.1357035680679433
-3.1480125123979352
-3.117240151572942
-3.1110856794079322
-3.092622262912931
-3.1049312072429505
-3.074158846417929
-3.080313318582939
-3.0618499020879373
-3.0372320134279267
-3.0310775412629165
-3.1110856794079322
-3.0310775412629165
-3.043386485592936
-3.049540957757918
-3.049540957757918
-3.049540957757918
-3.0310775412629165
-3.018768596932925
-3.0310775412629165
-3.0310775412629165
-3.0249230690979347
-3.018768596932925
-3.018768596932925
-2.975687291777912
-3.074158846417929
-3.018768596932925
-2.975687291777912
-3.0003051804379233
-2.994150708272913
-2.9818417639429216
-2.9879962361079313
-2.9879962361079313
-2.9633783474479203
-2.9818417639429216
-3.0126141247679152
-2.96953281961293
-2.9387604587879093
-2.895679153632896
-2.895679153632896
-2.907988097962916
-2.9141425701278982
-2.9510694031179288
-2.944914930952919
-2.932605986622927
-2.901833625797906
-2.797207598992907
-2.9818417639429216
-3.0680043742529195
-2.96953281961293
-2.9879962361079313
-3.0003051804379233
-3.0003051804379233
-3.043386485592936
-3.043386485592936
-3.006459652602933
-2.96953281961293
-2.9510694031179288
-2.9818417639429216
-2.9879962361079313
-2.9572238752829105
-2.9633783474479203
-2.9633783474479203
-2.975687291777912
-2.96953281961293
-2.96953281961293
-2.9387604587879093
-2.9264515144579173
-3.0003051804379233
-2.9633783474479203
-2.9633783474479203
-2.9633783474479203
-2.932605986622927
-2.895679153632896
-2.9264515144579173
-2.9572238752829105
-3.0003051804379233
-2.877215737137895
-2.9141425701278982
-2.9264515144579173
-2.932605986622927
-2.9141425701278982
-2.975687291777912
-2.944914930952919
-2.9264515144579173
-2.9264515144579173
-2.932605986622927
-2.9510694031179288
-2.932605986622927
-2.9141425701278982
-2.944914930952919
-2.96953281961293
-2.9387604587879093
-2.944914930952919
-2.932605986622927
-2.9264515144579173
-3.0249230690979347
-3.006459652602933
-2.96953281961293
-2.9572238752829105
-2.975687291777912
-2.975687291777912
-2.9572238752829105
-2.9572238752829105
-2.526410823732866
-2.4279392690928487
-3.043386485592936
-2.907988097962916
-2.895679153632896
-2.901833625797906
-2.9202970422929075
-2.9572238752829105
-3.2280206505429785
-3.4865084814730274
-3.0987767350779407
-3.0987767350779407
-2.9818417639429216
-2.975687291777912
-2.9572238752829105
-2.975687291777912
-2.9633783474479203
-2.9633783474479203
-2.9879962361079313
-2.9387604587879093
-2.96953281961293
-3.0310775412629165
-2.9510694031179288
-2.9633783474479203
-2.9879962361079313
-3.0249230690979347
-2.9879962361079313
-2.9510694031179288
-2.975687291777912
-2.975687291777912
-2.975687291777912
-2.9818417639429216
-2.9818417639429216
-2.994150708272913
-2.9510694031179288
-3.0310775412629165
-2.994150708272913
-2.994150708272913
-2.9818417639429216
-2.9879962361079313
-3.006459652602933
-3.006459652602933
-2.994150708272913
-2.994150708272913
-2.994150708272913
-3.018768596932925
-3.0126141247679152
-2.9818417639429216
-2.895679153632896
-3.043386485592936
-3.0003051804379233
-3.0372320134279267
-2.932605986622927
-2.895679153632896
-2.8649067928079033
-2.83413443198291
-2.8095165433228986
-2.901833625797906
-3.006459652602933
-3.049540957757918
-3.0618499020879373
-3.055695429922928
-2.9633783474479203
-2.9818417639429216
-2.8402889041478923
-2.994150708272913
-3.074158846417929
-3.0003051804379233
-3.0126141247679152
-3.0003051804379233
-2.9818417639429216
-3.018768596932925
-2.975687291777912
-2.9510694031179288
-2.9818417639429216
-3.006459652602933
-3.006459652602933
-3.018768596932925
-2.994150708272913
-2.9818417639429216
-3.0249230690979347
-3.0003051804379233
-3.0003051804379233
-3.0003051804379233
-3.0249230690979347
-3.018768596932925
-3.0126141247679152
-3.0126141247679152
-3.006459652602933
-3.0003051804379233
-3.006459652602933
-2.9387604587879093
-3.043386485592936
-3.018768596932925
-3.0249230690979347
-3.0310775412629165
-3.0310775412629165
-3.0372320134279267
-3.049540957757918
-3.0372320134279267
-3.049540957757918
-3.055695429922928
-3.049540957757918
-3.0126141247679152
-3.0126141247679152
-2.9879962361079313
-3.1049312072429505
-3.043386485592936
-3.0372320134279267
-3.055695429922928
-3.049540957757918
-3.043386485592936
-3.0372320134279267
-3.0310775412629165
-3.043386485592936
-3.0372320134279267
-3.043386485592936
-3.0372320134279267
-3.0310775412629165
-3.0003051804379233
-3.074158846417929
-3.0310775412629165
-2.883370209302905
-2.612573434042864
-2.9264515144579173
-3.0003051804379233
-3.1233946237379517
-3.652679229928041
-3.344955621677997
-3.117240151572942
-3.160321456727955
-3.074158846417929
-3.092622262912931
-2.9387604587879093
-2.704890516517872
-2.9818417639429216
-3.055695429922928
-3.055695429922928
-3.055695429922928
-3.0618499020879373
-3.0618499020879373
-3.0864677907479487
-2.9264515144579173
-2.3663945474428347
-2.9141425701278982
-3.184939345387966
-3.080313318582939
-3.1049312072429505
-3.24648406703798
-3.1295490959029335
-3.3326466773480057
-3.701915007248036
-3.277256427862973
-3.184939345387966
-3.160321456727955
-3.1480125123979352
-3.160321456727955
-3.1357035680679433
-3.1233946237379517
-3.1357035680679433
-3.117240151572942
-3.1110856794079322
-3.338801149512988
-3.2711019556979917
-3.184939345387966
-3.1480125123979352
-3.1295490959029335
-3.178784873222984
-3.160321456727955
-3.1295490959029335
-3.1972482897179852
-3.141858040232953
-3.141858040232953
-3.191093817552976
-3.2034027618829675
-3.1972482897179852
-3.1233946237379517
-3.277256427862973
-3.258793011367972
-3.277256427862973
-3.338801149512988
-3.338801149512988
-3.4188092876580036
-3.424963759823013
-3.468045064977998
-3.529589786628012
-3.529589786628012
-3.492662953638009
-3.449581648482997
-3.394191398997992
-3.357264566007989
-3.5418987309580316
-3.474199537143008
-3.4434271763180146
-3.4434271763180146
-3.474199537143008
-3.4434271763180146
-3.449581648482997
-3.437272704153005
-3.4126548154929934
-3.38803692683301
-3.357264566007989
-3.3326466773480057
-3.301874316522985
-3.277256427862973
-3.344955621677997
-3.2218661783779687
-3.406500343328012
-3.535744258793022
-3.4865084814730274
-3.406500343328012
-3.38803692683301
-3.4126548154929934
-3.406500343328012
-3.424963759823013
-3.400345871163002
-3.4126548154929934
-3.394191398997992
-3.363419038172999
-3.400345871163002
-3.4188092876580036
-3.369573510338009
-3.3511100938430074
-3.363419038172999
-3.363419038172999
-3.326492205182996
-3.344955621677997
-3.338801149512988
-3.326492205182996
-3.326492205182996
-3.357264566007989
-3.338801149512988
-3.2957198443579747
-3.258793011367972
-3.3326466773480057
-3.301874316522985
-3.301874316522985
-3.301874316522985
-3.3141832608529764
-3.308028788687994
-3.3141832608529764
-3.326492205182996
-3.308028788687994
-3.308028788687994
-3.0987767350779407
-2.711044988682881
-3.25263853920299
-2.9572238752829105
-3.0126141247679152
-3.1726304010579747
-3.1972482897179852
-3.24648406703798
-3.2403295948729705
-3.664988174258033
-3.720378423743037
-3.394191398997992
-3.357264566007989
-3.326492205182996
-3.2957198443579747
-3.2711019556979917
-3.2034027618829675
-3.369573510338009
-3.554207675288024
-3.2403295948729705
-3.258793011367972
-3.301874316522985
-3.3141832608529764
-3.277256427862973
-3.2218661783779687
-3.2218661783779687
-3.2403295948729705
-3.2403295948729705
-3.2403295948729705
-3.24648406703798
-3.24648406703798
-3.2218661783779687
-3.215711706212987
-3.258793011367972
-3.258793011367972
-3.277256427862973
-3.2711019556979917
-3.258793011367972
-3.24648406703798
-3.2403295948729705
-3.264947483532982
-3.289565372192993
-3.264947483532982
-3.277256427862973
-3.277256427862973
-3.215711706212987
-3.3326466773480057
-3.38803692683301
-3.264947483532982
-3.2403295948729705
-3.2834109000279827
-3.2711019556979917
-3.25263853920299
-3.2403295948729705
-3.25263853920299
-3.258793011367972
-3.25263853920299
-3.2218661783779687
-3.2218661783779687
-3.2034027618829675
-3.0680043742529195
-3.215711706212987
-3.2034027618829675
-3.2034027618829675
-3.055695429922928
-3.215711706212987
-3.344955621677997
-3.2280206505429785
-3.2095572340479768
-3.215711706212987
-3.2034027618829675
-3.2218661783779687
-3.2034027618829675
-3.2095572340479768
-3.154166984562973
-3.2341751227079882
-3.2218661783779687
-3.2095572340479768
-3.2095572340479768
-3.2280206505429785
-3.2218661783779687
-3.25263853920299
-3.3141832608529764
-3.24648406703798
-3.2280206505429785
-3.2341751227079882
-3.2280206505429785
-3.2341751227079882
-3.2403295948729705
-3.357264566007989
-3.264947483532982
-3.25263853920299
-3.2403295948729705
-3.2341751227079882
-3.25263853920299
-3.2218661783779687
-3.2280206505429785
-3.258793011367972
-3.24648406703798
-3.2341751227079882
-3.24648406703798
-3.264947483532982
-3.2034027618829675
-3.184939345387966
-3.2341751227079882
-3.2280206505429785
-3.24648406703798
-3.2711019556979917
-3.277256427862973
-3.301874316522985
-3.3141832608529764
-3.338801149512988
-3.357264566007989
-3.375727982502991
-3.424963759823013
-3.4311182319879947
-3.4126548154929934
-3.424963759823013
-3.535744258793022
-3.504971897968029
-3.4865084814730274
-3.578825563948035
-3.258793011367972
-2.8464433763129016
-3.535744258793022
-3.474199537143008
-3.4865084814730274
-3.6711426464230414
-4.0958012258081045
-3.6896060629180436
-3.554207675288024
-3.517280842298021
-3.609597924773028
-3.560362147453033
-3.535744258793022
-3.25263853920299
-3.609597924773028
-3.664988174258033
-3.548053203123014
-3.548053203123014
-3.5418987309580316
-3.548053203123014
-3.517280842298021
-3.5234353144630304
-3.529589786628012
-3.4988174258030194
-3.554207675288024
-3.5418987309580316
-3.548053203123014
-3.554207675288024
-3.529589786628012
-3.5418987309580316
-3.548053203123014
-3.529589786628012
-3.511126370133011
-3.504971897968029
-3.535744258793022
-3.5234353144630304
-3.492662953638009
-3.4803540093080176
-3.5849800361130173
-3.548053203123014
-3.4803540093080176
-3.4988174258030194
-3.504971897968029
-3.511126370133011
-3.492662953638009
-3.492662953638009
-3.504971897968029
-3.4803540093080176
-3.468045064977998
-3.4988174258030194
-3.4865084814730274
-3.4557361206480066
-3.449581648482997
-3.504971897968029
-3.504971897968029
-3.4803540093080176
-3.468045064977998
-3.461890592813016
-3.504971897968029
-3.4988174258030194
-3.4803540093080176
-3.4988174258030194
-3.4803540093080176
-3.4557361206480066
-3.344955621677997
-3.4865084814730274
-3.535744258793022
-3.5418987309580316
-3.517280842298021
-3.468045064977998
-3.474199537143008
-3.4803540093080176
-3.4557361206480066
-3.449581648482997
-3.4311182319879947
-3.4311182319879947
-3.437272704153005
-3.424963759823013
-3.4557361206480066
-3.4988174258030194
-3.363419038172999
-3.4434271763180146
-3.4557361206480066
-3.4311182319879947
-3.4557361206480066
-3.4434271763180146
-3.4126548154929934
-3.424963759823013
-3.424963759823013
-3.4311182319879947
-3.437272704153005
-3.437272704153005
-3.2034027618829675
-2.797207598992907
-3.3511100938430074
-3.400345871163002
-3.4188092876580036
-3.424963759823013
-3.461890592813016
-3.461890592813016
-3.7634597288980496
-3.9111670608580615
-3.4803540093080176
-3.357264566007989
-3.264947483532982
-3.289565372192993
-3.344955621677997
-3.3141832608529764
-3.184939345387966
-2.883370209302905
-3.178784873222984
-3.277256427862973
-3.2957198443579747
-3.344955621677997
-3.375727982502991
-3.381882454668
-3.38803692683301
-3.4188092876580036
-3.461890592813016
-3.3511100938430074
-3.369573510338009
-3.400345871163002
-3.277256427862973
-3.3511100938430074
-3.935784949518073
-3.7511507845680576
-3.504971897968029
-3.4557361206480066
-3.449581648482997
-3.424963759823013
-3.437272704153005
-3.4434271763180146
-3.4126548154929934
-3.437272704153005
-3.424963759823013
-3.424963759823013
-3.375727982502991
-3.375727982502991
-3.4434271763180146
-3.424963759823013
-3.394191398997992
-3.406500343328012
-3.406500343328012
-3.38803692683301
-3.363419038172999
-3.400345871163002
-3.4126548154929934
-3.38803692683301
-3.381882454668
-3.394191398997992
-3.375727982502991
-3.375727982502991
-3.424963759823013
-3.400345871163002
-3.381882454668
-3.400345871163002
-3.375727982502991
-3.394191398997992
-3.394191398997992
-3.308028788687994
-3.344955621677997
-3.357264566007989
-3.375727982502991
-3.369573510338009
-3.301874316522985
-3.1295490959029335
-2.96953281961293
-3.264947483532982
-3.258793011367972
-3.2711019556979917
-3.289565372192993
-3.258793011367972
-3.338801149512988
-3.3141832608529764
-3.308028788687994
-3.3141832608529764
-3.326492205182996
-3.338801149512988
-3.3141832608529764
-3.357264566007989
-3.6896060629180436
-3.4188092876580036
-3.2711019556979917
-3.2095572340479768
-3.1480125123979352
-3.080313318582939
-2.907988097962916
-3.0249230690979347
-3.055695429922928
-2.901833625797906
-2.877215737137895
-2.8402889041478923
-2.778744182497905
-2.711044988682881
-2.729508405177883
-2.7848986546628876
-2.8464433763129016
-2.7171994608478913
-2.729508405177883
-2.778744182497905
-2.8156710154879088
-2.797207598992907
-2.8218254876528905
-2.8279799598179
-2.8156710154879088
-2.8464433763129016
-2.8649067928079033
-2.8279799598179
-2.8525978484779113
-2.9633783474479203
-2.9572238752829105
-2.901833625797906
-2.932605986622927
-2.9572238752829105
-2.944914930952919
-2.9510694031179288
-2.975687291777912
-2.975687291777912
-2.9633783474479203
-2.9633783474479203
-2.975687291777912
-2.9572238752829105
-2.9141425701278982
-2.9818417639429216
-2.932605986622927
-2.9510694031179288
-2.932605986622927
-2.9141425701278982
-2.9264515144579173
-2.9510694031179288
-2.944914930952919
-2.9633783474479203
-2.9633783474479203
-2.9572238752829105
-2.994150708272913
-2.994150708272913
-3.049540957757918
-2.9818417639429216
-3.006459652602933
-3.0372320134279267
-3.0372320134279267
-3.043386485592936
-3.043386485592936
-3.055695429922928
-2.8649067928079033
-2.4587116299178424
-3.0618499020879373
-3.049540957757918
-3.0618499020879373
-3.080313318582939
-3.400345871163002
-3.6465247577630313
-3.2834109000279827
-3.1972482897179852
-3.2095572340479768
-3.191093817552976
-3.1726304010579747
-3.184939345387966
-3.178784873222984
-3.1972482897179852
-3.184939345387966
-3.178784873222984
-3.1972482897179852
-3.2034027618829675
-3.141858040232953
-3.1480125123979352
-3.2403295948729705
-3.184939345387966
-3.178784873222984
-3.191093817552976
-3.2034027618829675
-3.2095572340479768
-3.1972482897179852
-3.184939345387966
-3.178784873222984
-3.2403295948729705
-3.1233946237379517
-3.24648406703798
-2.723353933012873
-2.575646601052861
-2.9818417639429216
-3.1049312072429505
-3.1357035680679433
-3.461890592813016
-3.578825563948035
-3.4311182319879947
-3.2711019556979917
-3.258793011367972
-3.191093817552976
-3.184939345387966
-3.184939345387966
-3.184939345387966
-3.178784873222984
-3.1972482897179852
-3.25263853920299
-3.1726304010579747
-3.160321456727955
-3.1295490959029335
-3.1110856794079322
-3.0864677907479487
-3.0864677907479487
-3.092622262912931
-3.074158846417929
-3.1233946237379517
-3.1357035680679433
-3.1480125123979352
-3.1726304010579747
-3.1295490959029335
-2.797207598992907
-2.760280766002876
-3.1233946237379517
-3.160321456727955
-3.154166984562973
-3.535744258793022
-3.511126370133011
-3.092622262912931
-3.0249230690979347
-3.0864677907479487
-3.0987767350779407
-3.092622262912931
-3.080313318582939
-3.0126141247679152
-3.074158846417929
-3.1664759288929645
-3.117240151572942
-3.1480125123979352
-3.1664759288929645
-3.1664759288929645
-3.154166984562973
-3.154166984562973
-3.1726304010579747
-3.154166984562973
-3.1726304010579747
-3.1664759288929645
-3.184939345387966
-3.160321456727955
-3.1357035680679433
-3.2403295948729705
-2.8895246814679143
-2.624882378372884
-3.0310775412629165
-3.092622262912931
-3.1295490959029335
-3.511126370133011
-3.634215813433039
-3.25263853920299
-3.2403295948729705
-3.184939345387966
-3.1480125123979352
-3.141858040232953
-3.074158846417929
-3.178784873222984
-3.1664759288929645
-3.1664759288929645
-3.0864677907479487
-3.092622262912931
-3.055695429922928
-3.0618499020879373
-3.1049312072429505
-3.0680043742529195
-3.0864677907479487
-3.074158846417929
-3.0864677907479487
-3.1110856794079322
-2.9141425701278982
-2.766435238167886
-2.747971821672884
-2.378703491772827
-2.581801073217871
-2.901833625797906
-2.932605986622927
-2.9264515144579173
-2.871061264972913
-3.0249230690979347
-3.548053203123014
-3.1480125123979352
-2.9818417639429216
-2.975687291777912
-3.018768596932925
-3.2095572340479768
-3.092622262912931
-3.0003051804379233
-2.9633783474479203
-3.006459652602933
-3.0126141247679152
-2.975687291777912
-3.0003051804379233
-3.0126141247679152
-3.018768596932925
-2.975687291777912
-3.006459652602933
-3.018768596932925
-2.723353933012873
-3.0372320134279267
-3.154166984562973
-3.0126141247679152
-3.0126141247679152
-2.994150708272913
-2.883370209302905
-2.434093741257831
-2.760280766002876
-2.8464433763129016
-2.932605986622927
-3.0680043742529195
-3.5911345082780266
-3.264947483532982
-3.074158846417929
-3.0249230690979347
-2.8525978484779113
-2.6002644897128726
-3.043386485592936
-3.0003051804379233
-3.043386485592936
-3.049540957757918
-3.049540957757918
-3.0618499020879373
-3.529589786628012
-3.560362147453033
-3.2280206505429785
-3.1664759288929645
-3.117240151572942
-3.080313318582939
-3.191093817552976
-3.141858040232953
-3.117240151572942
-3.117240151572942
-3.1110856794079322
-3.117240151572942
-3.1233946237379517
-3.074158846417929
-3.0680043742529195
-3.080313318582939
-3.0680043742529195
-3.074158846417929
-2.631036850537866
-2.378703491772827
-2.975687291777912
-3.0680043742529195
-2.944914930952919
-3.369573510338009
-3.5726710917830253
-3.178784873222984
-3.1480125123979352
-3.1110856794079322
-3.1049312072429505
-3.1049312072429505
-3.080313318582939
-3.074158846417929
-3.0249230690979347
-3.074158846417929
-3.184939345387966
-3.117240151572942
-3.055695429922928
-3.080313318582939
-3.080313318582939
-3.080313318582939
-3.074158846417929
-3.074158846417929
-3.117240151572942
-3.0864677907479487
-3.074158846417929
-3.0864677907479487
-3.080313318582939
-3.0680043742529195
-2.994150708272913
-3.1110856794079322
-3.0987767350779407
-3.092622262912931
-3.1110856794079322
-3.1049312072429505
-3.0618499020879373
-3.0864677907479487
-2.6371913227028756
-2.674118155692878
-3.018768596932925
-2.975687291777912
-3.1049312072429505
-3.468045064977998
-3.375727982502991
-3.0680043742529195
-3.117240151572942
-3.080313318582939
-3.0618499020879373
-3.0864677907479487
-3.092622262912931
-3.055695429922928
-3.0680043742529195
-3.0864677907479487
-2.9141425701278982
-2.6925815721878803
-2.8402889041478923
-2.975687291777912
-3.018768596932925
-3.160321456727955
-3.0680043742529195
-3.24648406703798
-3.664988174258033
-3.191093817552976
-3.0987767350779407
-3.0987767350779407
-3.055695429922928
-3.092622262912931
-3.074158846417929
-3.049540957757918
-3.0864677907479487
-3.055695429922928
-3.0249230690979347
-3.1110856794079322
-3.092622262912931
-3.0249230690979347
-3.049540957757918
-3.092622262912931
-3.0618499020879373
-3.074158846417929
-2.735662877342893
-2.403321380432838
-3.0126141247679152
-3.0618499020879373
-3.006459652602933
-3.326492205182996
-3.535744258793022
-3.092622262912931
-3.1049312072429505
-3.1295490959029335
-3.0864677907479487
-3.117240151572942
-3.1295490959029335
-3.1357035680679433
-3.0680043742529195
-3.018768596932925
-2.944914930952919
-2.9141425701278982
-2.895679153632896
-2.994150708272913
-3.0249230690979347
-3.0864677907479487
-3.1295490959029335
-3.0310775412629165
-3.006459652602933
-3.074158846417929
-3.0680043742529195
-3.0310775412629165
-3.0987767350779407
-3.055695429922928
-2.797207598992907
-2.5387197680628577
-2.9264515144579173
-2.994150708272913
-2.9879962361079313
-3.074158846417929
-3.375727982502991
-3.184939345387966
-3.1110856794079322
-3.1110856794079322
-3.0864677907479487
-3.092622262912931
-3.080313318582939
-3.080313318582939
-3.092622262912931
-3.117240151572942
-3.1110856794079322
-3.117240151572942
-3.117240151572942
-3.2095572340479768
-3.277256427862973
-3.1664759288929645
-3.1357035680679433
-3.1295490959029335
-3.080313318582939
-3.0864677907479487
-3.1110856794079322
-3.1049312072429505
-3.1049312072429505
-3.0680043742529195
-2.9572238752829105
-2.507947407237865
-2.858752320642893
-3.0372320134279267
-3.092622262912931
-3.2034027618829675
-3.492662953638009
-3.369573510338009
-3.25263853920299
-3.1664759288929645
-3.1295490959029335
-3.1295490959029335
-3.1295490959029335
-3.1049312072429505
-3.1295490959029335
-3.1110856794079322
-3.117240151572942
-3.1295490959029335
-3.141858040232953
-3.141858040232953
-3.117240151572942
-3.1110856794079322
-3.1295490959029335
-3.1480125123979352
-3.092622262912931
-3.1295490959029335
-3.160321456727955
-3.154166984562973
-3.1664759288929645
-3.154166984562973
-3.055695429922928
-2.575646601052861
-2.680272627857888
-2.877215737137895
-3.0310775412629165
-3.2280206505429785
-3.535744258793022
-2.8279799598179
-3.154166984562973
-3.338801149512988
-3.7449963124030474
-3.344955621677997
-3.258793011367972
-3.2095572340479768
-3.1726304010579747
-3.1972482897179852
-3.468045064977998
-3.597288980443037
-3.308028788687994
-3.264947483532982
-3.2403295948729705
-3.264947483532982
-3.24648406703798
-3.24648406703798
-3.258793011367972
-3.258793011367972
-3.264947483532982
-3.264947483532982
-3.1972482897179852
-3.215711706212987
-3.043386485592936
-2.8095165433228986
-2.8279799598179
-2.661809211362886
-3.0372320134279267
-3.191093817552976
-3.141858040232953
-3.1972482897179852
-3.1295490959029335
-3.1664759288929645
-3.2218661783779687
-3.615752396938038
-3.548053203123014
-3.357264566007989
-3.24648406703798
-3.406500343328012
-3.2218661783779687
-3.1664759288929645
-3.154166984562973
-3.1295490959029335
-3.1664759288929645
-3.1726304010579747
-3.191093817552976
-3.141858040232953
-3.154166984562973
-3.1480125123979352
-3.1233946237379517
-3.154166984562973
-3.1110856794079322
-3.0987767350779407
-3.2034027618829675
-3.154166984562973
-3.1480125123979352
-3.1480125123979352
-3.141858040232953
-3.080313318582939
-2.55102871239285
-2.797207598992907
-3.0372320134279267
-3.0680043742529195
-3.1295490959029335
-3.658833702093051
-3.437272704153005
-3.160321456727955
-3.264947483532982
-3.184939345387966
-3.154166984562973
-3.1726304010579747
-3.1664759288929645
-3.1664759288929645
-3.160321456727955
-3.154166984562973
-3.1480125123979352
-3.1357035680679433
-3.1726304010579747
-3.141858040232953
-3.141858040232953
-3.0987767350779407
-3.178784873222984
-3.117240151572942
-3.1049312072429505
-3.1357035680679433
-3.1110856794079322
-3.1295490959029335
-3.154166984562973
-3.1233946237379517
-3.0987767350779407
-3.117240151572942
-3.1233946237379517
-3.1049312072429505
-2.8218254876528905
-2.526410823732866
-3.0372320134279267
-3.1110856794079322
-3.080313318582939
-3.289565372192993
-3.548053203123014
-3.363419038172999
-3.2280206505429785
-3.154166984562973
-3.1049312072429505
-3.092622262912931
-3.0987767350779407
-3.049540957757918
-3.074158846417929
-3.018768596932925
-3.0372320134279267
-3.1110856794079322
-3.1110856794079322
-3.0987767350779407
-2.6925815721878803
-2.7418173495078744
-2.9879962361079313
-3.0372320134279267
-3.043386485592936
-3.080313318582939
-3.0680043742529195
-3.080313318582939
-3.381882454668
-2.7848986546628876
-3.1233946237379517
-3.1480125123979352
-3.0864677907479487
-3.0864677907479487
-3.049540957757918
-3.117240151572942
-3.609597924773028
-3.344955621677997
-3.1480125123979352
-3.1049312072429505
-3.1233946237379517
-3.1233946237379517
-3.1357035680679433
-3.1049312072429505
-2.96953281961293
-3.080313318582939
-3.0003051804379233
-2.901833625797906
-2.883370209302905
-2.9572238752829105
-3.006459652602933
-3.0249230690979347
-3.0372320134279267
-3.006459652602933
-2.747971821672884
-2.483329518577854
-2.9202970422929075
-3.006459652602933
-3.049540957757918
-3.4311182319879947
-3.634215813433039
-3.264947483532982
-3.191093817552976
-3.1664759288929645
-3.1664759288929645
-3.154166984562973
-3.1357035680679433
-2.901833625797906
-3.215711706212987
-3.24648406703798
-3.141858040232953
-3.141858040232953
-3.1295490959029335
-3.1726304010579747
-3.160321456727955
-3.1357035680679433
-3.154166984562973
-3.1726304010579747
-3.2095572340479768
-3.1726304010579747
-3.1664759288929645
-3.215711706212987
-3.215711706212987
-3.178784873222984
-2.8895246814679143
-2.4156303247628297
-3.074158846417929
-2.8464433763129016
-2.9572238752829105
-3.363419038172999
-3.732687368073057
-3.264947483532982
-3.2280206505429785
-3.3326466773480057
-3.4311182319879947
-3.4557361206480066
-3.400345871163002
-3.4188092876580036
-3.381882454668
-3.344955621677997
-3.449581648482997
-3.732687368073057
-3.640370285598049
-3.4865084814730274
-3.511126370133011
-3.4988174258030194
-3.504971897968029
-3.492662953638009
-3.461890592813016
-3.461890592813016
-3.468045064977998
-3.4557361206480066
-3.437272704153005
-3.38803692683301
-3.363419038172999
-3.2834109000279827
-3.3203377330179857
-3.400345871163002
-3.4126548154929934
-3.449581648482997
-3.4557361206480066
-3.4311182319879947
-3.437272704153005
-3.437272704153005
-3.468045064977998
-3.449581648482997
-3.394191398997992
-2.901833625797906
-3.049540957757918
-3.369573510338009
-3.4557361206480066
-3.4865084814730274
-3.9604028381780845
-3.8311589227130742
-3.535744258793022
-3.535744258793022
-3.554207675288024
-3.597288980443037
-3.6465247577630313
-3.658833702093051
-3.634215813433039
-3.6280613412680296
-3.6219068691030203
-3.615752396938038
-3.652679229928041
-3.5418987309580316
-3.468045064977998
-3.468045064977998
-3.4865084814730274
-3.492662953638009
-3.2834109000279827
-2.8095165433228986
-3.326492205182996
-3.4865084814730274
-3.732687368073057
-3.9111670608580615
-3.4988174258030194
-3.4126548154929934
-3.4126548154929934
-3.4557361206480066
-3.424963759823013
-3.4126548154929934
-3.424963759823013
-3.357264566007989
-3.326492205182996
-3.2834109000279827
-3.25263853920299
-3.264947483532982
-3.264947483532982
-3.2711019556979917
-3.24648406703798
-3.215711706212987
-3.1726304010579747
-3.2280206505429785
-3.1295490959029335
-3.117240151572942
-3.1233946237379517
-3.1049312072429505
-3.0987767350779407
-3.117240151572942
-3.080313318582939
-3.080313318582939
-3.0680043742529195
-3.074158846417929
-3.055695429922928
-3.0618499020879373
-3.006459652602933
-3.0618499020879373
-3.049540957757918
-3.043386485592936
-3.0618499020879373
-3.0618499020879373
-3.018768596932925
-3.049540957757918
-3.0310775412629165
-3.0003051804379233
-3.0249230690979347
-3.0126141247679152
-3.018768596932925
-3.043386485592936
-2.944914930952919
-2.7848986546628876
-2.9633783474479203
-2.975687291777912
-2.9633783474479203
-2.9572238752829105
-2.9264515144579173
-2.9264515144579173
-2.9264515144579173
-2.944914930952919
-2.9387604587879093
-2.9202970422929075
-2.9202970422929075
-2.895679153632896
-2.747971821672884
-2.877215737137895
-2.96953281961293
-2.2925408814628288
-3.0864677907479487
-3.178784873222984
-2.9141425701278982
-2.9141425701278982
-2.9510694031179288
-2.944914930952919
-2.9510694031179288
-2.9387604587879093
-2.9633783474479203
-2.9387604587879093
-3.1295490959029335
-3.191093817552976
-2.901833625797906
-2.932605986622927
-2.9633783474479203
-2.778744182497905
-3.055695429922928
-3.0680043742529195
-3.043386485592936
-3.0372320134279267
-3.0680043742529195
-3.0310775412629165
-3.0126141247679152
-2.9879962361079313
-3.0864677907479487
-3.0249230690979347
-3.006459652602933
-3.0310775412629165
-3.0372320134279267
-3.0680043742529195
-3.018768596932925
-3.055695429922928
-3.049540957757918
-3.0680043742529195
-3.0987767350779407
-3.0987767350779407
-3.0680043742529195
-3.0618499020879373
-3.0249230690979347
-3.1295490959029335
-3.2218661783779687
-3.1357035680679433
-3.074158846417929
-3.092622262912931
-3.154166984562973
-3.1664759288929645
-3.184939345387966
-3.1664759288929645
-3.1972482897179852
-3.1972482897179852
-3.160321456727955
-3.117240151572942
-3.1233946237379517
-3.080313318582939
-3.1664759288929645
-2.871061264972913
-3.0003051804379233
-3.092622262912931
-3.154166984562973
-3.160321456727955
-3.117240151572942
-3.154166984562973
-3.3326466773480057
-3.788077617558061
-3.424963759823013
-3.301874316522985
-3.24648406703798
-3.258793011367972
-3.301874316522985
-3.338801149512988
-3.338801149512988
-3.277256427862973
-3.258793011367972
-3.289565372192993
-3.289565372192993
-3.2834109000279827
-3.2834109000279827
-3.308028788687994
-3.3203377330179857
-3.344955621677997
-3.363419038172999
-3.289565372192993
-3.178784873222984
-3.2834109000279827
-3.3203377330179857
-3.301874316522985
-3.184939345387966
-3.141858040232953
-3.0680043742529195
-3.006459652602933
-2.9633783474479203
-2.907988097962916
-2.9141425701278982
-2.944914930952919
-2.9387604587879093
-2.871061264972913
-2.932605986622927
-2.975687291777912
-2.8525978484779113
-2.8895246814679143
-2.8464433763129016
-2.883370209302905
-2.895679153632896
-2.8895246814679143
-2.871061264972913
-2.877215737137895
-2.877215737137895
-2.9264515144579173
-2.9387604587879093
-2.9141425701278982
-2.8525978484779113
-2.907988097962916
-2.907988097962916
-2.907988097962916
-2.901833625797906
-2.901833625797906
-2.895679153632896
-2.858752320642893
-2.150988021667799
-2.618727906207874
-2.932605986622927
-2.9264515144579173
-2.83413443198291
-2.871061264972913
-2.8464433763129016
-2.907988097962916
-3.4311182319879947
-3.160321456727955
-2.9387604587879093
-2.9264515144579173
-2.9202970422929075
-2.901833625797906
-2.901833625797906
-2.9264515144579173
-2.9141425701278982
-2.907988097962916
-2.883370209302905
-2.895679153632896
-2.883370209302905
-2.907988097962916
-2.96953281961293
-2.9264515144579173
-2.9202970422929075
-2.932605986622927
-2.9387604587879093
-2.9387604587879093
-2.9510694031179288
-2.9202970422929075
-2.9572238752829105
-2.994150708272913
-2.9387604587879093
-2.9633783474479203
-2.895679153632896
-2.9264515144579173
-3.0126141247679152
-2.994150708272913
-2.932605986622927
-2.907988097962916
-2.96953281961293
-2.975687291777912
-2.96953281961293
-2.9818417639429216
-2.9633783474479203
-3.006459652602933
-2.9879962361079313
-2.9879962361079313
-3.018768596932925
-2.704890516517872
-2.680272627857888
-2.907988097962916
-2.9818417639429216
-2.96953281961293
-2.9818417639429216
-2.975687291777912
-3.006459652602933
-3.0003051804379233
-2.7910531268278973
-2.3171587701228398
-2.975687291777912
-2.9387604587879093
-2.9572238752829105
-3.6711426464230414
-3.8927036443630603
-3.2218661783779687
-3.154166984562973
-3.092622262912931
-3.0618499020879373
-3.049540957757918
-3.018768596932925
-3.0249230690979347
-3.043386485592936
-3.043386485592936
-3.0249230690979347
-3.049540957757918
-3.0680043742529195
-2.9818417639429216
-2.9510694031179288
-3.049540957757918
-3.0680043742529195
-3.0310775412629165
-3.074158846417929
-3.055695429922928
-3.055695429922928
-3.0680043742529195
-3.0987767350779407
-3.080313318582939
-3.043386485592936
-3.0680043742529195
-3.092622262912931
-3.043386485592936
-3.0372320134279267
-3.1357035680679433
-3.074158846417929
-3.1110856794079322
-3.080313318582939
-3.0618499020879373
-3.117240151572942
-3.117240151572942
-3.092622262912931
-3.1295490959029335
-3.117240151572942
-3.092622262912931
-3.1110856794079322
-3.080313318582939
-3.043386485592936
-3.080313318582939
-3.0987767350779407
-3.080313318582939
-3.117240151572942
-3.080313318582939
-3.074158846417929
-3.092622262912931
-3.0680043742529195
-3.080313318582939
-3.0987767350779407
-3.092622262912931
-3.074158846417929
-3.049540957757918
-3.0680043742529195
-3.1480125123979352
-2.901833625797906
-3.0310775412629165
-3.1295490959029335
-3.0372320134279267
-3.018768596932925
-3.006459652602933
-3.0249230690979347
-3.0249230690979347
-3.0126141247679152
-3.006459652602933
-2.9879962361079313
-3.0249230690979347
-2.975687291777912
-2.9202970422929075
-3.006459652602933
-2.9818417639429216
-2.975687291777912
-3.0249230690979347
-3.0372320134279267
-3.0249230690979347
-3.0372320134279267
-3.049540957757918
-3.055695429922928
-3.055695429922928
-3.074158846417929
-3.074158846417929
-3.0618499020879373
-3.0864677907479487
-3.1049312072429505
-3.049540957757918
-2.9510694031179288
-2.901833625797906
-2.907988097962916
-3.0310775412629165
-3.092622262912931
-3.154166984562973
-3.0864677907479487
-3.049540957757918
-3.0126141247679152
-3.0310775412629165
-3.0249230690979347
-3.055695429922928
-3.080313318582939
-3.0987767350779407
-3.080313318582939
-3.0864677907479487
-3.080313318582939
-3.080313318582939
-3.1233946237379517
-3.080313318582939
-3.1110856794079322
-3.1295490959029335
-3.0987767350779407
-3.092622262912931
-3.0864677907479487
-3.043386485592936
-3.0864677907479487
-3.1049312072429505
-2.9510694031179288
-2.7418173495078744
-3.615752396938038
-3.2034027618829675
-3.1480125123979352
-3.1233946237379517
-3.1049312072429505
-3.0864677907479487
-3.117240151572942
-3.1110856794079322
-3.0987767350779407
-3.117240151572942
-3.1295490959029335
-3.1110856794079322
-3.0680043742529195
-3.1480125123979352
-3.1049312072429505
-3.1049312072429505
-3.1233946237379517
-3.080313318582939
-3.0864677907479487
-3.049540957757918
-3.074158846417929
-3.049540957757918
-3.080313318582939
-3.043386485592936
-3.074158846417929
-3.049540957757918
-3.055695429922928
-3.0372320134279267
-3.049540957757918
-3.055695429922928
-3.0249230690979347
-3.006459652602933
-3.055695429922928
-3.049540957757918
-3.018768596932925
-3.043386485592936
-3.055695429922928
-3.0249230690979347
-3.191093817552976
-3.1480125123979352
-3.0864677907479487
-3.0987767350779407
-3.117240151572942
-3.1110856794079322
-3.117240151572942
-3.1233946237379517
-3.1357035680679433
-3.080313318582939
-3.1233946237379517
-3.0618499020879373
-3.1049312072429505
-3.080313318582939
-2.907988097962916
-3.0310775412629165
-3.080313318582939
-3.0680043742529195
-3.0680043742529195
-3.074158846417929
-3.1110856794079322
-3.0987767350779407
-3.0864677907479487
-3.074158846417929
-2.96953281961293
-3.1110856794079322
-3.2034027618829675
-3.1233946237379517
-2.901833625797906
-2.8525978484779113
-3.0249230690979347
-3.074158846417929
-3.0864677907479487
-3.074158846417929
-3.074158846417929
-3.0680043742529195
-3.0680043742529195
-3.080313318582939
-3.0618499020879373
-3.0680043742529195
-3.0680043742529195
-3.0864677907479487
-3.25263853920299
-3.4434271763180146
-3.191093817552976
-3.1480125123979352
-3.1049312072429505
-3.0864677907479487
-3.178784873222984
-3.160321456727955
-3.1233946237379517
-3.154166984562973
-3.154166984562973
-3.154166984562973
-3.117240151572942
-3.1295490959029335
-3.1726304010579747
-3.1664759288929645
-3.141858040232953
-3.1480125123979352
-3.1295490959029335
-3.1726304010579747
-3.1664759288929645
-3.1480125123979352
-3.0618499020879373
-3.2095572340479768
-3.191093817552976
-3.1726304010579747
-3.160321456727955
-3.1357035680679433
-3.178784873222984
-3.2034027618829675
-3.2711019556979917
-3.2403295948729705
-3.191093817552976
-3.1972482897179852
-3.215711706212987
-3.2034027618829675
-3.184939345387966
-3.215711706212987
-3.2095572340479768
-3.178784873222984
-3.055695429922928
-2.5694921288878514
-3.0864677907479487
-3.0864677907479487
-3.1480125123979352
-3.2341751227079882
-3.7449963124030474
-3.468045064977998
-3.277256427862973
-3.191093817552976
-3.1972482897179852
-3.160321456727955
-3.1664759288929645
-3.154166984562973
-2.661809211362886
-2.7848986546628876
-3.1664759288929645
-3.141858040232953
-3.2034027618829675
-3.1233946237379517
-3.1357035680679433
-3.344955621677997
-3.75730525673304
-3.375727982502991
-3.264947483532982
-3.2280206505429785
-3.2034027618829675
-3.1972482897179852
-3.1726304010579747
-3.2095572340479768
-3.154166984562973
-2.994150708272913
-2.8649067928079033
-3.0680043742529195
-3.092622262912931
-3.1110856794079322
-3.074158846417929
-3.074158846417929
-3.0864677907479487
-3.0987767350779407
-3.1295490959029335
-3.1110856794079322
-3.1233946237379517
-3.1295490959029335
-3.1233946237379517
-3.154166984562973
-3.308028788687994
-3.1972482897179852
-3.160321456727955
-3.1049312072429505
-3.154166984562973
-3.1233946237379517
-3.1295490959029335
-3.1110856794079322
-3.092622262912931
-3.1110856794079322
-3.1295490959029335
-3.1357035680679433
-3.117240151572942
-3.0680043742529195
-3.1972482897179852
-3.1972482897179852
-3.141858040232953
-3.154166984562973
-3.117240151572942
-3.1480125123979352
-3.1233946237379517
-3.0680043742529195
-3.018768596932925
-2.9510694031179288
-3.0003051804379233
-3.055695429922928
-3.2034027618829675
-3.154166984562973
-3.0987767350779407
-3.0249230690979347
-3.018768596932925
-2.9510694031179288
-2.994150708272913
-3.141858040232953
-3.049540957757918
-3.049540957757918
-3.0372320134279267
-3.0249230690979347
-3.055695429922928
-3.080313318582939
-3.0126141247679152
-3.0249230690979347
-3.043386485592936
-3.141858040232953
-3.074158846417929
-3.0618499020879373
-3.0680043742529195
-3.0864677907479487
-3.0680043742529195
-3.1110856794079322
-3.0864677907479487
-3.1233946237379517
-3.1357035680679433
-3.117240151572942
-3.160321456727955
-3.0680043742529195
-2.9818417639429216
-3.074158846417929
-3.117240151572942
-3.1049312072429505
-3.117240151572942
-3.0618499020879373
-2.8525978484779113
-3.1480125123979352
-3.2034027618829675
-3.074158846417929
-3.1049312072429505
-3.117240151572942
-3.117240151572942
-3.0864677907479487
-3.0126141247679152
-2.772589710332896
-2.9510694031179288
-3.0618499020879373
-3.0680043742529195
-3.0864677907479487
-2.96953281961293
-2.729508405177883
-3.1357035680679433
-3.4988174258030194
-3.1480125123979352
-3.080313318582939
-3.0618499020879373
-3.117240151572942
-3.1480125123979352
-3.609597924773028
-3.461890592813016
-3.2280206505429785
-3.2034027618829675
-3.178784873222984
-3.1726304010579747
-3.1726304010579747
-3.1664759288929645
-3.0987767350779407
-3.1049312072429505
-3.0987767350779407
-3.1233946237379517
-3.092622262912931
-3.0864677907479487
-2.9264515144579173
-2.975687291777912
-3.043386485592936
-3.0680043742529195
-3.0864677907479487
-3.1049312072429505
-3.0618499020879373
-3.1110856794079322
-3.1049312072429505
-3.043386485592936
-3.092622262912931
-3.0618499020879373
-3.117240151572942
-3.092622262912931
-3.092622262912931
-3.1664759288929645
-3.0618499020879373
-3.0680043742529195
-3.117240151572942
-3.0864677907479487
-3.049540957757918
-3.0618499020879373
-3.0372320134279267
-2.975687291777912
-2.9510694031179288
-2.9202970422929075
-2.8402889041478923
-2.8895246814679143
-2.797207598992907
-2.649500267032867
-2.8279799598179
-2.8464433763129016
-2.8279799598179
-2.797207598992907
-2.83413443198291
-2.772589710332896
-2.778744182497905
-2.778744182497905
-2.7848986546628876
-2.766435238167886
-2.7848986546628876
-2.6433457948678853
-2.778744182497905
-3.0987767350779407
-2.877215737137895
-2.797207598992907
-2.8218254876528905
-2.8095165433228986
-2.8218254876528905
-2.8095165433228986
-2.8156710154879088
-2.8156710154879088
-2.7848986546628876
-2.797207598992907
-2.797207598992907
-2.83413443198291
-2.754126293837894
-2.8218254876528905
-2.883370209302905
-2.8218254876528905
-2.8033620711578893
-2.8279799598179
-2.8649067928079033
-2.8218254876528905
-2.8464433763129016
-2.8218254876528905
-2.8402889041478923
-2.8033620711578893
-2.8095165433228986
-2.8156710154879088
-2.7910531268278973
-2.68642710002287
-2.754126293837894
-2.8402889041478923
-2.8095165433228986
-2.8033620711578893
-2.760280766002876
-2.778744182497905
-2.83413443198291
-2.8525978484779113
-2.83413443198291
-2.871061264972913
-2.877215737137895
-2.877215737137895
-2.8525978484779113
-2.8033620711578893
-2.735662877342893
-2.883370209302905
-2.8895246814679143
-2.9264515144579173
-2.9633783474479203
-2.9572238752829105
-2.9387604587879093
-2.9387604587879093
-2.9818417639429216
-2.9818417639429216
-2.975687291777912
-2.9879962361079313
-2.975687291777912
-2.895679153632896
-2.5387197680628577
-2.9141425701278982
-2.9879962361079313
-3.006459652602933
-3.0864677907479487
-3.24648406703798
-3.664988174258033
-3.3141832608529764
-3.215711706212987
-3.1664759288929645
-3.1664759288929645
-3.1726304010579747
-3.178784873222984
-2.9387604587879093
-3.369573510338009
-3.326492205182996
-3.1480125123979352
-3.184939345387966
-3.191093817552976
-3.1480125123979352
-3.117240151572942
-3.092622262912931
-3.117240151572942
-3.1049312072429505
-3.0680043742529195
-3.1233946237379517
-3.1664759288929645
-3.154166984562973
-3.092622262912931
-3.1295490959029335
-3.184939345387966
-3.1480125123979352
-3.1972482897179852
-3.2095572340479768
-3.2218661783779687
-3.184939345387966
-3.1295490959029335
-3.117240151572942
-3.1049312072429505
-3.080313318582939
-3.1110856794079322
-3.141858040232953
-3.258793011367972
-3.406500343328012
-3.381882454668
-3.363419038172999
-3.289565372192993
-3.264947483532982
-3.264947483532982
-3.25263853920299
-3.2218661783779687
-3.2034027618829675
-3.1972482897179852
-3.154166984562973
-3.2095572340479768
-3.1480125123979352
-3.1049312072429505
-3.154166984562973
-3.1233946237379517
-3.1049312072429505
-3.1357035680679433
-3.2218661783779687
-3.3203377330179857
-3.184939345387966
-3.326492205182996
-3.4803540093080176
-3.338801149512988
-3.2957198443579747
-3.3203377330179857
-3.289565372192993
-3.2957198443579747
-3.338801149512988
-3.301874316522985
-3.2095572340479768
-3.289565372192993
-3.24648406703798
-3.178784873222984
-3.215711706212987
-3.258793011367972
-3.2034027618829675
-3.2034027618829675
-3.178784873222984
-3.141858040232953
-3.1480125123979352
-3.0618499020879373
-2.507947407237865
-3.1110856794079322
-3.1726304010579747
-3.178784873222984
-3.2095572340479768
-3.2034027618829675
-3.1357035680679433
-3.437272704153005
-3.732687368073057
-3.301874316522985
-3.2218661783779687
-3.1972482897179852
-3.2034027618829675
-3.117240151572942
-3.141858040232953
-3.2034027618829675
-3.2095572340479768
-3.178784873222984
-3.154166984562973
-3.1357035680679433
-3.1049312072429505
-3.1110856794079322
-3.1295490959029335
-3.1049312072429505
-3.0864677907479487
-3.1110856794079322
-3.0987767350779407
-3.074158846417929
-3.080313318582939
-3.1480125123979352
-3.178784873222984
-3.1480125123979352
-3.1049312072429505
-3.1110856794079322
-3.1233946237379517
-3.1049312072429505
-3.0003051804379233
-2.655654739197877
-3.018768596932925
-3.5849800361130173
-3.449581648482997
-3.1110856794079322
-3.0618499020879373
-2.9264515144579173
-3.0310775412629165
-3.0680043742529195
-3.0618499020879373
-3.080313318582939
-3.0618499020879373
-3.055695429922928
-3.0618499020879373
-3.080313318582939
-3.1233946237379517
-3.1110856794079322
-3.141858040232953
-3.1295490959029335
-3.0987767350779407
-3.258793011367972
-3.2095572340479768
-3.1295490959029335
-3.092622262912931
-3.055695429922928
-3.074158846417929
-3.0249230690979347
-3.006459652602933
-2.9818417639429216
-2.9633783474479203
-3.0126141247679152
-3.018768596932925
-3.0680043742529195
-3.0618499020879373
-3.018768596932925
-3.074158846417929
-3.074158846417929
-3.055695429922928
-3.0372320134279267
-3.074158846417929
-3.1049312072429505
-3.0864677907479487
-3.0372320134279267
-3.0372320134279267
-3.0003051804379233
-3.0126141247679152
-2.975687291777912
-2.9633783474479203
-2.975687291777912
-2.96953281961293
-3.0126141247679152
-2.994150708272913
-3.0003051804379233
-3.0126141247679152
-3.018768596932925
-3.018768596932925
-2.9879962361079313
-3.0003051804379233
-3.055695429922928
-3.0126141247679152
-3.0249230690979347
-3.0310775412629165
-3.0249230690979347
-2.9510694031179288
-3.043386485592936
-3.1233946237379517
-3.080313318582939
-3.0680043742529195
-3.0310775412629165
-3.055695429922928
-3.0618499020879373
-3.0618499020879373
-3.0680043742529195
-3.117240151572942
-2.9879962361079313
-3.074158846417929
-3.049540957757918
-3.0680043742529195
-3.080313318582939
-3.055695429922928
-3.0864677907479487
-3.049540957757918
-3.074158846417929
-3.055695429922928
-3.049540957757918
-3.0680043742529195
-3.0680043742529195
-3.074158846417929
-3.0680043742529195
-3.018768596932925
-3.006459652602933
-3.0310775412629165
-3.0680043742529195
-3.0680043742529195
-3.0864677907479487
-3.0680043742529195
-3.055695429922928
-3.0680043742529195
-3.0864677907479487
-3.0987767350779407
-3.092622262912931
-3.1049312072429505
-3.092622262912931
-3.1049312072429505
-3.080313318582939
-3.0864677907479487
-3.1233946237379517
-3.1049312072429505
-3.117240151572942
-3.1295490959029335
-3.1233946237379517
-3.1049312072429505
-3.178784873222984
-3.1357035680679433
-3.160321456727955
-3.191093817552976
-3.1972482897179852
-3.1972482897179852
-3.160321456727955
-3.1357035680679433
-3.215711706212987
-3.0680043742529195
-2.711044988682881
-2.9572238752829105
-3.0864677907479487
-3.0987767350779407
-3.074158846417929
-3.080313318582939
-3.363419038172999
-3.5849800361130173
-3.2341751227079882
-3.2403295948729705
-3.264947483532982
-3.1295490959029335
-3.049540957757918
-3.117240151572942
-2.96953281961293
-3.24648406703798
-3.160321456727955
-3.1357035680679433
-3.1480125123979352
-3.1233946237379517
-3.1233946237379517
-3.1357035680679433
-3.1480125123979352
-3.160321456727955
-3.2034027618829675
-3.2218661783779687
-3.369573510338009
-3.258793011367972
-3.2095572340479768
-3.191093817552976
-3.215711706212987
-3.215711706212987
-3.2280206505429785
-3.2341751227079882
-3.2280206505429785
-3.264947483532982
-3.264947483532982
-3.2711019556979917
-3.3203377330179857
-3.301874316522985
-3.363419038172999
-3.4311182319879947
-3.3511100938430074
-3.338801149512988
-3.338801149512988
-3.369573510338009
-3.4126548154929934
-3.381882454668
-3.363419038172999
-3.326492205182996
-3.3203377330179857
-3.344955621677997
-3.3326466773480057
-3.308028788687994
-3.2341751227079882
-3.2711019556979917
-3.1972482897179852
-3.141858040232953
-3.1110856794079322
-3.074158846417929
-3.0864677907479487
-2.8156710154879088
-2.994150708272913
-3.0987767350779407
-3.049540957757918
-3.160321456727955
-3.055695429922928
-3.0618499020879373
-2.9818417639429216
-3.1480125123979352
-3.074158846417929
-3.0310775412629165
-3.0618499020879373
-3.055695429922928
-3.043386485592936
-3.0618499020879373
-3.055695429922928
-3.018768596932925
-3.0618499020879373
-3.055695429922928
-3.092622262912931
-3.0249230690979347
-2.9387604587879093
-2.83413443198291
-3.049540957757918
-3.074158846417929
-3.0864677907479487
-3.092622262912931
-3.0987767350779407
-3.1049312072429505
-3.092622262912931
-3.092622262912931
-3.092622262912931
-3.0987767350779407
-3.080313318582939
-3.092622262912931
-3.1357035680679433
-3.357264566007989
-3.2403295948729705
-3.191093817552976
-3.215711706212987
-3.2280206505429785
-3.154166984562973
-3.215711706212987
-3.191093817552976
-3.2218661783779687
-3.178784873222984
-3.2034027618829675
-3.191093817552976
-3.191093817552976
-3.141858040232953
-2.9510694031179288
-3.055695429922928
-3.117240151572942
-3.160321456727955
-3.141858040232953
-3.1110856794079322
-3.0987767350779407
-3.1233946237379517
-3.1110856794079322
-3.0987767350779407
-2.932605986622927
-2.618727906207874
-2.895679153632896
-3.0864677907479487
-3.720378423743037
-3.4803540093080176
-3.184939345387966
-3.160321456727955
-3.1357035680679433
-3.141858040232953
-3.1664759288929645
-3.141858040232953
-3.1357035680679433
-3.1726304010579747
-3.1357035680679433
-3.141858040232953
-3.1480125123979352
-3.1295490959029335
-3.043386485592936
-3.258793011367972
-3.1480125123979352
-3.074158846417929
-3.1233946237379517
-3.141858040232953
-3.1357035680679433
-3.1233946237379517
-3.141858040232953
-3.154166984562973
-3.154166984562973
-3.141858040232953
-3.141858040232953
-3.1480125123979352
-3.160321456727955
-3.1664759288929645
-3.160321456727955
-2.9879962361079313
-2.723353933012873
-2.797207598992907
-3.215711706212987
-3.141858040232953
-3.0987767350779407
-3.1726304010579747
-3.1480125123979352
-3.517280842298021
-3.634215813433039
-3.277256427862973
-3.178784873222984
-2.9818417639429216
-3.1295490959029335
-3.178784873222984
-3.2403295948729705
-3.2403295948729705
-3.215711706212987
-3.2095572340479768
-3.215711706212987
-3.154166984562973
-3.1295490959029335
-3.1295490959029335
-3.0987767350779407
-3.117240151572942
-3.0864677907479487
-3.3141832608529764
-3.277256427862973
-3.1357035680679433
-3.1233946237379517
-3.1233946237379517
-3.1295490959029335
-3.1049312072429505
-3.1049312072429505
-3.1110856794079322
-3.141858040232953
-3.0987767350779407
-3.1049312072429505
-3.092622262912931
-3.1233946237379517
-2.944914930952919
-3.0618499020879373
-3.092622262912931
-3.1110856794079322
-3.074158846417929
-3.0864677907479487
-3.1110856794079322
-3.1480125123979352
-3.1110856794079322
-3.0864677907479487
-3.117240151572942
-3.1357035680679433
-3.1233946237379517
-3.1233946237379517
-3.154166984562973
-3.277256427862973
-3.1357035680679433
-3.049540957757918
-3.1049312072429505
-3.0680043742529195
-3.080313318582939
-3.0987767350779407
-3.043386485592936
-3.049540957757918
-2.8402889041478923
-3.055695429922928
-3.1972482897179852
-3.178784873222984
-3.1357035680679433
-3.154166984562973
-3.141858040232953
-3.117240151572942
-3.1480125123979352
-3.1357035680679433
-3.141858040232953
-3.080313318582939
-3.074158846417929
-3.080313318582939
-3.074158846417929
-3.074158846417929
-3.0864677907479487
-3.1295490959029335
-3.080313318582939
-2.8525978484779113
-3.018768596932925
-3.074158846417929
-3.080313318582939
-2.994150708272913
-2.3971669082678284
-3.018768596932925
-3.0372320134279267
-3.0372320134279267
-3.043386485592936
-3.0864677907479487
-3.080313318582939
-3.560362147453033
-3.511126370133011
-3.449581648482997
-3.38803692683301
-3.1972482897179852
-3.1233946237379517
-3.154166984562973
-3.154166984562973
-3.117240151572942
-3.1295490959029335
-3.1049312072429505
-3.1480125123979352
-3.1295490959029335
-3.1295490959029335
-3.1480125123979352
-3.117240151572942
-3.049540957757918
-3.2034027618829675
-3.141858040232953
-3.1295490959029335
-3.0987767350779407
-3.1110856794079322
-3.1049312072429505
-3.092622262912931
-3.0618499020879373
-3.074158846417929
-3.0864677907479487
-3.0680043742529195
-3.0864677907479487
-3.0987767350779407
-3.0864677907479487
-3.160321456727955
-3.117240151572942
-3.092622262912931
-3.080313318582939
-3.074158846417929
-3.1110856794079322
-3.1110856794079322
-3.0987767350779407
-3.154166984562973
-3.0864677907479487
-3.0680043742529195
-3.0864677907479487
-3.1110856794079322
-3.074158846417929
-3.0618499020879373
-3.092622262912931
-3.117240151572942
-3.117240151572942
-3.1233946237379517
-3.0864677907479487
-3.1233946237379517
-3.0680043742529195
-3.1110856794079322
-3.1233946237379517
-3.0987767350779407
-2.9818417639429216
-3.092622262912931
-3.2095572340479768
-2.711044988682881
-2.932605986622927
-3.043386485592936
-3.092622262912931
-3.055695429922928
-3.0987767350779407
-3.080313318582939
-3.1110856794079322
-3.1110856794079322
-3.080313318582939
-3.1049312072429505
-3.0864677907479487
-3.0680043742529195
-3.1049312072429505
-3.4188092876580036
-3.363419038172999
-3.215711706212987
-3.1726304010579747
-3.141858040232953
-3.154166984562973
-3.1357035680679433
-3.1726304010579747
-3.1480125123979352
-3.1233946237379517
-3.092622262912931
-3.1233946237379517
-3.0864677907479487
-3.0680043742529195
-3.0249230690979347
-3.160321456727955
-3.092622262912931
-3.092622262912931
-3.0864677907479487
-3.074158846417929
-3.0864677907479487
-3.1049312072429505
-3.0618499020879373
-3.074158846417929
-3.0864677907479487
-3.0680043742529195
-3.0987767350779407
-3.0987767350779407
-2.907988097962916
-2.772589710332896
-3.018768596932925
-3.0618499020879373
-3.055695429922928
-3.074158846417929
-3.0864677907479487
-3.080313318582939
-3.0864677907479487
-3.0372320134279267
-3.080313318582939
-3.0310775412629165
-3.092622262912931
-2.9141425701278982
-2.495638462907845
-3.461890592813016
-3.1664759288929645
-3.2834109000279827
-3.664988174258033
-3.264947483532982
-3.178784873222984
-3.1357035680679433
-3.1295490959029335
-3.1480125123979352
-3.0864677907479487
-3.1110856794079322
-3.117240151572942
-3.1233946237379517
-3.0680043742529195
-2.68642710002287
-2.8649067928079033
-3.0126141247679152
-3.092622262912931
-3.043386485592936
-3.117240151572942
-3.092622262912931
-3.0864677907479487
-3.080313318582939
-3.0987767350779407
-3.0618499020879373
-3.074158846417929
-3.0372320134279267
-3.092622262912931
-3.3203377330179857
-3.2403295948729705
-3.1357035680679433
-3.1110856794079322
-3.074158846417929
-3.092622262912931
-3.0003051804379233
-3.1357035680679433
-3.1233946237379517
-3.043386485592936
-3.043386485592936
-3.018768596932925
-3.0310775412629165
-3.0372320134279267
-3.043386485592936
-3.1664759288929645
-3.0310775412629165
-3.018768596932925
-3.055695429922928
-3.0680043742529195
-3.0372320134279267
-3.055695429922928
-3.092622262912931
-3.1110856794079322
-3.1110856794079322
-3.092622262912931
-3.1049312072429505
-3.1233946237379517
-3.080313318582939
-3.1233946237379517
-3.191093817552976
-3.1480125123979352
-3.1049312072429505
-3.141858040232953
-2.9633783474479203
-3.0680043742529195
-3.191093817552976
-3.0618499020879373
-3.1233946237379517
-3.1726304010579747
-3.215711706212987
-3.178784873222984
-3.1664759288929645
-3.2034027618829675
-3.2218661783779687
-2.9633783474479203
-3.0987767350779407
-3.2957198443579747
-3.1233946237379517
-3.117240151572942
-3.117240151572942
-3.117240151572942
-3.055695429922928
-2.8033620711578893
-3.141858040232953
-3.1480125123979352
-3.0680043742529195
-3.092622262912931
-3.0680043742529195
-3.080313318582939
-3.0680043742529195
-3.0249230690979347
-3.092622262912931
-3.0618499020879373
-3.043386485592936
-3.074158846417929
-3.1049312072429505
-3.080313318582939
-3.1233946237379517
-3.1357035680679433
-3.1295490959029335
-3.049540957757918
-3.1664759288929645
-3.1295490959029335
-3.1480125123979352
-3.160321456727955
-3.1726304010579747
-2.9387604587879093
-2.5941100175478624
-3.0987767350779407
-3.0864677907479487
-3.0864677907479487
-3.074158846417929
-3.0987767350779407
-3.1480125123979352
-3.5849800361130173
-3.5665166196180156
-3.25263853920299
-3.1357035680679433
-3.1664759288929645
-3.1972482897179852
-3.154166984562973
-3.018768596932925
-2.754126293837894
-2.975687291777912
-3.055695429922928
-3.092622262912931
-3.1295490959029335
-3.1233946237379517
-3.074158846417929
-3.055695429922928
-3.6772971185880525
-3.437272704153005
-3.2403295948729705
-3.2218661783779687
-3.2218661783779687
-3.2218661783779687
-3.2034027618829675
-3.2403295948729705
-3.2280206505429785
-3.2280206505429785
-3.24648406703798
-3.24648406703798
-3.258793011367972
-3.424963759823013
-3.3511100938430074
-3.25263853920299
-3.301874316522985
-3.2218661783779687
-3.258793011367972
-3.2403295948729705
-3.24648406703798
-3.264947483532982
-3.258793011367972
-3.3141832608529764
-3.24648406703798
-3.24648406703798
-3.2341751227079882
-3.2218661783779687
-3.2834109000279827
-3.25263853920299
-3.301874316522985
-3.308028788687994
-3.2834109000279827
-3.2711019556979917
-3.2341751227079882
-3.258793011367972
-3.2341751227079882
-3.184939345387966
-3.2280206505429785
-3.2280206505429785
-3.184939345387966
-3.1972482897179852
-3.3203377330179857
-3.2711019556979917
-3.25263853920299
-3.2403295948729705
-3.24648406703798
-3.2341751227079882
-3.25263853920299
-3.264947483532982
-3.215711706212987
-3.2341751227079882
-3.1972482897179852
-3.2280206505429785
-3.160321456727955
-3.092622262912931
-3.363419038172999
-3.394191398997992
-3.2834109000279827
-3.277256427862973
-3.24648406703798
-3.277256427862973
-3.2280206505429785
-3.258793011367972
-3.277256427862973
-3.24648406703798
-3.215711706212987
-3.24648406703798
-3.277256427862973
-3.1726304010579747
-3.043386485592936
-3.2095572340479768
-3.2280206505429785
-3.2403295948729705
-3.2341751227079882
-3.1972482897179852
-3.2034027618829675
-3.160321456727955
-3.191093817552976
-3.1295490959029335
-3.1664759288929645
-3.1480125123979352
-3.1110856794079322
-3.0864677907479487
-3.0864677907479487
-3.1726304010579747
-3.117240151572942
-3.1664759288929645
-3.1295490959029335
-3.1295490959029335
-3.141858040232953
-3.160321456727955
-3.141858040232953
-3.1664759288929645
-3.2218661783779687
-3.1726304010579747
-3.160321456727955
-3.1480125123979352
-3.141858040232953
-3.1480125123979352
-3.154166984562973
-3.154166984562973
-2.895679153632896
-3.2095572340479768
-3.2403295948729705
-3.1295490959029335
-3.1295490959029335
-3.080313318582939
-3.0864677907479487
-3.1049312072429505
-3.1049312072429505
-3.1233946237379517
-3.0618499020879373
-2.994150708272913
-2.6371913227028756
-2.932605986622927
-3.0003051804379233
-2.994150708272913
-3.4557361206480066
-3.6280613412680296
-3.1972482897179852
-3.1295490959029335
-3.1110856794079322
-3.0987767350779407
-3.0864677907479487
-3.055695429922928
-3.055695429922928
-3.043386485592936
-3.0126141247679152
-3.043386485592936
-3.049540957757918
-3.006459652602933
-3.0249230690979347
-3.074158846417929
-3.0987767350779407
-3.0310775412629165
-3.0618499020879373
-3.0310775412629165
-3.0249230690979347
-2.9633783474479203
-2.96953281961293
-2.96953281961293
-3.0310775412629165
-3.1357035680679433
-3.2095572340479768
-3.215711706212987
-3.1480125123979352
-3.1664759288929645
