4.348134584573115
4.2681264464281
4.243508557768089
4.255817502098108
4.249663029933098
4.2681264464281
4.27428091859311
4.280435390758092
4.2681264464281
4.237354085603107
4.305053279418103
4.298898807253093
4.305053279418103
4.3112077515831135
4.298898807253093
4.305053279418103
4.305053279418103
4.298898807253093
4.305053279418103
4.335825640243124
4.341980112408105
4.335825640243124
4.3727524732331275
4.348134584573115
4.3173622237481215
4.323516695913104
4.323516695913104
4.292744335088111
4.280435390758092
4.323516695913104
4.305053279418103
4.2865898629231
4.27428091859311
4.261971974263091
4.255817502098108
4.261971974263091
4.249663029933098
4.2681264464281
4.3173622237481215
4.3112077515831135
4.2865898629231
4.292744335088111
4.2865898629231
4.2865898629231
4.292744335088111
4.305053279418103
4.323516695913104
4.3173622237481215
4.323516695913104
4.329671168078114
4.323516695913104
4.3173622237481215
4.335825640243124
4.323516695913104
4.280435390758092
4.249663029933098
4.237354085603107
4.218890669108104
4.255817502098108
4.341980112408105
4.323516695913104
4.298898807253093
4.298898807253093
4.27428091859311
4.280435390758092
4.280435390758092
4.2681264464281
4.243508557768089
4.218890669108104
4.305053279418103
4.3173622237481215
4.2681264464281
4.261971974263091
4.261971974263091
4.280435390758092
4.2865898629231
4.305053279418103
4.2865898629231
4.2681264464281
4.261971974263091
4.292744335088111
4.329671168078114
4.323516695913104
4.3112077515831135
4.3173622237481215
4.3173622237481215
4.3173622237481215
4.3112077515831135
4.323516695913104
4.335825640243124
4.3173622237481215
4.3173622237481215
4.323516695913104
4.323516695913104
4.3112077515831135
4.323516695913104
4.323516695913104
4.329671168078114
4.329671168078114
4.323516695913104
4.3112077515831135
4.341980112408105
4.360443528903107
4.348134584573115
4.360443528903107
4.354289056738125
4.360443528903107
4.360443528903107
4.366598001068117
4.360443528903107
4.366598001068117
4.360443528903107
4.354289056738125
4.366598001068117
4.37890694539811
4.385061417563119
4.391215889728128
4.366598001068117
4.341980112408105
4.366598001068117
4.3727524732331275
4.366598001068117
4.366598001068117
4.366598001068117
4.354289056738125
4.3173622237481215
4.298898807253093
4.280435390758092
4.27428091859311
4.3173622237481215
4.298898807253093
4.249663029933098
4.2681264464281
4.255817502098108
4.261971974263091
4.3112077515831135
4.3173622237481215
4.298898807253093
4.280435390758092
4.280435390758092
4.2681264464281
4.2681264464281
4.27428091859311
4.280435390758092
4.2865898629231
4.292744335088111
4.27428091859311
4.255817502098108
4.2865898629231
4.298898807253093
4.298898807253093
4.261971974263091
4.255817502098108
4.280435390758092
4.280435390758092
4.2681264464281
4.255817502098108
4.243508557768089
4.298898807253093
4.305053279418103
4.280435390758092
4.261971974263091
4.2681264464281
4.2865898629231
4.2681264464281
4.2681264464281
4.298898807253093
4.292744335088111
4.280435390758092
4.261971974263091
4.249663029933098
4.2681264464281
4.261971974263091
4.280435390758092
4.261971974263091
4.249663029933098
4.261971974263091
4.3112077515831135
4.298898807253093
4.280435390758092
4.255817502098108
4.243508557768089
4.255817502098108
4.261971974263091
4.2681264464281
4.292744335088111
4.2681264464281
4.249663029933098
4.1942727804480935
4.27428091859311
4.169654891788083
4.249663029933098
4.27428091859311
4.280435390758092
4.2865898629231
4.261971974263091
4.1942727804480935
4.212736196943095
4.200427252613103
4.1758093639530935
4.218890669108104
4.249663029933098
4.2681264464281
4.280435390758092
4.261971974263091
4.255817502098108
4.255817502098108
4.243508557768089
4.249663029933098
4.249663029933098
4.255817502098108
4.249663029933098
4.255817502098108
4.255817502098108
4.2681264464281
4.261971974263091
4.249663029933098
4.243508557768089
4.2681264464281
4.2865898629231
4.280435390758092
4.2681264464281
4.255817502098108
4.225045141273086
4.237354085603107
4.2865898629231
4.280435390758092
4.27428091859311
4.261971974263091
4.261971974263091
4.2681264464281
4.2865898629231
4.298898807253093
4.292744335088111
4.292744335088111
4.280435390758092
4.335825640243124
4.341980112408105
4.3173622237481215
4.3173622237481215
4.323516695913104
4.3173622237481215
4.298898807253093
4.2865898629231
4.305053279418103
4.329671168078114
4.305053279418103
4.292744335088111
4.280435390758092
4.2681264464281
4.243508557768089
4.225045141273086
4.218890669108104
4.249663029933098
4.298898807253093
4.2681264464281
4.27428091859311
4.2865898629231
4.2681264464281
4.2681264464281
4.280435390758092
4.280435390758092
4.261971974263091
4.2865898629231
4.341980112408105
4.329671168078114
4.3112077515831135
4.3112077515831135
4.2865898629231
4.2681264464281
4.255817502098108
4.243508557768089
4.225045141273086
4.237354085603107
4.249663029933098
4.2865898629231
4.292744335088111
4.2681264464281
4.225045141273086
4.231199613438097
4.298898807253093
4.3173622237481215
4.2865898629231
4.280435390758092
4.2681264464281
4.2865898629231
4.27428091859311
4.261971974263091
4.261971974263091
4.2681264464281
4.280435390758092
4.27428091859311
4.2865898629231
4.2865898629231
4.261971974263091
4.2681264464281
4.280435390758092
4.292744335088111
4.298898807253093
4.2865898629231
4.2865898629231
4.27428091859311
4.2681264464281
4.292744335088111
4.292744335088111
4.280435390758092
4.27428091859311
4.2681264464281
4.305053279418103
4.305053279418103
4.280435390758092
4.27428091859311
4.237354085603107
4.249663029933098
4.261971974263091
4.2681264464281
4.323516695913104
4.329671168078114
4.3112077515831135
4.305053279418103
4.3173622237481215
4.335825640243124
4.329671168078114
4.323516695913104
4.329671168078114
4.323516695913104
4.323516695913104
4.348134584573115
4.329671168078114
4.329671168078114
4.323516695913104
4.323516695913104
4.3173622237481215
4.366598001068117
4.397370361893111
4.37890694539811
4.335825640243124
4.3173622237481215
4.329671168078114
4.341980112408105
4.341980112408105
4.3112077515831135
4.298898807253093
4.292744335088111
4.27428091859311
4.2681264464281
4.2681264464281
4.2681264464281
4.243508557768089
4.255817502098108
4.261971974263091
4.237354085603107
4.2065817247780855
4.231199613438097
4.237354085603107
4.231199613438097
4.261971974263091
4.2865898629231
4.2681264464281
4.249663029933098
4.231199613438097
4.255817502098108
4.237354085603107
4.218890669108104
4.261971974263091
4.280435390758092
4.2681264464281
4.261971974263091
4.2681264464281
4.2681264464281
4.261971974263091
4.255817502098108
4.261971974263091
4.249663029933098
4.249663029933098
4.237354085603107
4.2681264464281
4.249663029933098
4.249663029933098
4.255817502098108
4.255817502098108
4.249663029933098
4.255817502098108
4.261971974263091
4.27428091859311
4.261971974263091
4.2681264464281
4.280435390758092
4.27428091859311
4.2681264464281
4.255817502098108
4.231199613438097
4.225045141273086
4.243508557768089
4.2681264464281
4.298898807253093
4.280435390758092
4.2681264464281
4.27428091859311
4.280435390758092
4.27428091859311
4.2681264464281
4.255817502098108
4.255817502098108
4.255817502098108
4.2681264464281
4.261971974263091
4.261971974263091
4.261971974263091
4.249663029933098
4.231199613438097
4.218890669108104
4.261971974263091
4.280435390758092
4.261971974263091
4.243508557768089
4.261971974263091
4.27428091859311
4.292744335088111
4.249663029933098
4.231199613438097
4.2681264464281
4.27428091859311
4.261971974263091
4.261971974263091
4.255817502098108
4.261971974263091
4.243508557768089
4.243508557768089
4.237354085603107
4.255817502098108
4.2681264464281
4.255817502098108
4.249663029933098
4.1942727804480935
4.27428091859311
4.280435390758092
4.243508557768089
4.1942727804480935
4.2065817247780855
4.237354085603107
4.298898807253093
4.27428091859311
4.255817502098108
4.243508557768089
4.243508557768089
4.255817502098108
4.2681264464281
4.261971974263091
4.261971974263091
4.2865898629231
4.27428091859311
4.2681264464281
4.305053279418103
4.3112077515831135
4.292744335088111
4.2865898629231
4.280435390758092
4.280435390758092
4.292744335088111
4.298898807253093
4.2865898629231
4.280435390758092
4.243508557768089
4.225045141273086
4.2681264464281
4.280435390758092
4.255817502098108
4.249663029933098
4.249663029933098
4.261971974263091
4.249663029933098
4.249663029933098
4.243508557768089
4.243508557768089
4.237354085603107
4.231199613438097
4.225045141273086
4.249663029933098
4.2865898629231
4.27428091859311
4.2865898629231
4.280435390758092
4.2865898629231
4.298898807253093
4.2865898629231
4.261971974263091
4.243508557768089
4.255817502098108
4.231199613438097
4.225045141273086
4.212736196943095
4.218890669108104
4.249663029933098
4.249663029933098
4.255817502098108
4.249663029933098
4.249663029933098
4.292744335088111
4.2681264464281
4.163500419623101
4.2065817247780855
4.2681264464281
4.292744335088111
4.280435390758092
4.2681264464281
4.27428091859311
4.249663029933098
4.200427252613103
4.218890669108104
4.2065817247780855
4.218890669108104
4.27428091859311
4.2865898629231
4.27428091859311
4.305053279418103
4.2865898629231
4.2681264464281
4.2681264464281
4.27428091859311
4.261971974263091
4.2681264464281
4.255817502098108
4.237354085603107
4.249663029933098
4.305053279418103
4.305053279418103
4.2865898629231
4.27428091859311
4.2865898629231
4.292744335088111
4.305053279418103
4.305053279418103
4.305053279418103
4.3112077515831135
4.3173622237481215
4.323516695913104
4.323516695913104
4.3112077515831135
4.292744335088111
4.292744335088111
4.3173622237481215
4.3173622237481215
4.298898807253093
4.3112077515831135
4.354289056738125
4.360443528903107
4.335825640243124
4.348134584573115
4.341980112408105
4.329671168078114
4.323516695913104
4.348134584573115
4.360443528903107
4.323516695913104
4.298898807253093
4.2681264464281
4.354289056738125
4.354289056738125
4.335825640243124
4.3112077515831135
4.3112077515831135
4.261971974263091
4.218890669108104
4.218890669108104
4.218890669108104
4.261971974263091
4.2681264464281
4.27428091859311
4.27428091859311
4.2681264464281
4.249663029933098
4.249663029933098
4.243508557768089
4.243508557768089
4.27428091859311
4.2865898629231
4.261971974263091
4.261971974263091
4.2865898629231
4.280435390758092
4.27428091859311
4.255817502098108
4.27428091859311
4.261971974263091
4.249663029933098
4.231199613438097
4.218890669108104
4.249663029933098
4.280435390758092
4.255817502098108
4.249663029933098
4.237354085603107
4.218890669108104
4.225045141273086
4.2681264464281
4.2681264464281
4.255817502098108
4.255817502098108
4.243508557768089
4.255817502098108
4.255817502098108
4.231199613438097
4.225045141273086
4.255817502098108
4.298898807253093
4.298898807253093
4.280435390758092
4.249663029933098
4.243508557768089
4.249663029933098
4.2681264464281
4.27428091859311
4.261971974263091
4.249663029933098
4.2681264464281
4.27428091859311
4.249663029933098
4.243508557768089
4.255817502098108
4.280435390758092
4.261971974263091
4.280435390758092
4.261971974263091
4.2681264464281
4.2681264464281
4.255817502098108
4.243508557768089
4.2681264464281
4.2681264464281
4.2681264464281
4.255817502098108
4.255817502098108
4.249663029933098
4.255817502098108
4.261971974263091
4.255817502098108
4.243508557768089
4.2865898629231
4.298898807253093
4.27428091859311
4.255817502098108
4.261971974263091
4.261971974263091
4.255817502098108
4.255817502098108
4.280435390758092
4.292744335088111
4.27428091859311
4.27428091859311
4.261971974263091
4.249663029933098
4.255817502098108
4.292744335088111
4.292744335088111
4.298898807253093
4.2865898629231
4.27428091859311
4.27428091859311
4.2865898629231
4.27428091859311
4.280435390758092
4.2681264464281
4.280435390758092
4.305053279418103
4.323516695913104
4.27428091859311
4.2681264464281
4.3112077515831135
4.323516695913104
4.329671168078114
4.3112077515831135
4.292744335088111
4.292744335088111
4.280435390758092
4.2681264464281
4.2681264464281
4.280435390758092
4.218890669108104
4.249663029933098
4.225045141273086
4.249663029933098
4.255817502098108
4.2681264464281
4.261971974263091
4.261971974263091
4.2681264464281
4.27428091859311
4.27428091859311
4.280435390758092
4.280435390758092
4.2865898629231
4.280435390758092
4.292744335088111
4.323516695913104
4.341980112408105
4.341980112408105
4.341980112408105
4.298898807253093
4.2865898629231
4.280435390758092
4.27428091859311
4.2681264464281
4.261971974263091
4.2865898629231
4.292744335088111
4.298898807253093
4.298898807253093
4.292744335088111
4.2865898629231
4.298898807253093
4.2865898629231
4.2865898629231
4.292744335088111
4.27428091859311
4.27428091859311
4.261971974263091
4.243508557768089
4.249663029933098
4.2865898629231
4.3112077515831135
4.292744335088111
4.3112077515831135
4.3112077515831135
4.298898807253093
4.292744335088111
4.292744335088111
4.298898807253093
4.3173622237481215
4.298898807253093
4.292744335088111
4.298898807253093
4.292744335088111
4.298898807253093
4.298898807253093
4.2865898629231
4.2865898629231
4.298898807253093
4.298898807253093
4.2865898629231
4.3112077515831135
4.298898807253093
4.329671168078114
4.3173622237481215
4.3112077515831135
4.3173622237481215
4.305053279418103
4.298898807253093
4.323516695913104
4.323516695913104
4.3173622237481215
4.348134584573115
4.341980112408105
4.323516695913104
4.3173622237481215
4.3112077515831135
4.305053279418103
4.3112077515831135
4.329671168078114
4.329671168078114
4.329671168078114
4.3112077515831135
4.2865898629231
4.292744335088111
4.27428091859311
4.2681264464281
4.3112077515831135
4.3173622237481215
4.323516695913104
4.305053279418103
4.292744335088111
4.243508557768089
4.218890669108104
4.212736196943095
4.225045141273086
4.237354085603107
4.243508557768089
4.2065817247780855
4.181963836118102
4.212736196943095
4.218890669108104
4.218890669108104
4.2065817247780855
4.1942727804480935
4.200427252613103
4.181963836118102
4.181963836118102
4.181963836118102
4.181963836118102
4.1942727804480935
4.188118308283084
4.181963836118102
4.169654891788083
4.181963836118102
4.1942727804480935
4.188118308283084
4.169654891788083
4.1758093639530935
4.169654891788083
4.138882530963089
4.058874392818074
4.188118308283084
4.200427252613103
4.225045141273086
4.2065817247780855
4.188118308283084
4.200427252613103
4.200427252613103
4.200427252613103
4.200427252613103
4.200427252613103
4.200427252613103
4.108110170138069
4.145037003128072
4.243508557768089
4.225045141273086
4.212736196943095
4.2065817247780855
4.200427252613103
4.200427252613103
4.138882530963089
4.1758093639530935
4.200427252613103
4.218890669108104
4.243508557768089
4.218890669108104
4.218890669108104
4.27428091859311
4.212736196943095
4.1758093639530935
4.181963836118102
4.1942727804480935
4.225045141273086
4.225045141273086
4.212736196943095
4.225045141273086
4.212736196943095
4.225045141273086
4.212736196943095
4.200427252613103
4.2065817247780855
4.231199613438097
4.249663029933098
4.212736196943095
4.200427252613103
4.218890669108104
4.231199613438097
4.212736196943095
4.2065817247780855
4.218890669108104
4.231199613438097
4.255817502098108
4.2681264464281
4.249663029933098
4.243508557768089
4.243508557768089
4.243508557768089
4.249663029933098
4.255817502098108
4.249663029933098
4.255817502098108
4.255817502098108
4.249663029933098
4.249663029933098
4.249663029933098
4.231199613438097
4.2865898629231
4.243508557768089
4.2065817247780855
4.255817502098108
4.280435390758092
4.255817502098108
4.249663029933098
4.280435390758092
4.298898807253093
4.249663029933098
4.261971974263091
4.212736196943095
4.188118308283084
4.231199613438097
4.2681264464281
4.249663029933098
4.249663029933098
4.249663029933098
4.243508557768089
4.225045141273086
4.2065817247780855
4.225045141273086
4.261971974263091
4.243508557768089
4.237354085603107
4.218890669108104
4.231199613438097
4.243508557768089
4.243508557768089
4.231199613438097
4.231199613438097
4.255817502098108
4.249663029933098
4.2681264464281
4.280435390758092
4.280435390758092
4.255817502098108
4.2865898629231
4.292744335088111
4.2865898629231
4.200427252613103
4.188118308283084
4.218890669108104
4.1942727804480935
4.212736196943095
4.249663029933098
4.249663029933098
4.237354085603107
4.231199613438097
4.237354085603107
4.243508557768089
4.237354085603107
4.225045141273086
4.231199613438097
4.255817502098108
4.249663029933098
4.181963836118102
4.2681264464281
4.292744335088111
4.27428091859311
4.237354085603107
4.2065817247780855
4.261971974263091
4.255817502098108
4.231199613438097
4.231199613438097
4.225045141273086
4.231199613438097
4.249663029933098
4.255817502098108
4.2681264464281
4.2865898629231
4.255817502098108
4.243508557768089
4.249663029933098
4.27428091859311
4.261971974263091
4.261971974263091
4.27428091859311
4.2865898629231
4.2865898629231
4.292744335088111
4.27428091859311
4.2681264464281
4.231199613438097
4.225045141273086
4.3173622237481215
4.3173622237481215
4.305053279418103
4.292744335088111
4.2865898629231
4.27428091859311
4.2681264464281
4.280435390758092
4.280435390758092
4.27428091859311
4.292744335088111
4.3112077515831135
4.305053279418103
4.298898807253093
4.298898807253093
4.3173622237481215
4.323516695913104
4.329671168078114
4.335825640243124
4.348134584573115
4.3727524732331275
4.348134584573115
4.3173622237481215
4.292744335088111
4.255817502098108
4.255817502098108
4.2681264464281
4.261971974263091
4.261971974263091
4.249663029933098
4.231199613438097
4.218890669108104
4.1942727804480935
4.2065817247780855
4.280435390758092
4.249663029933098
4.212736196943095
4.225045141273086
4.225045141273086
4.218890669108104
4.212736196943095
4.2065817247780855
4.2065817247780855
4.255817502098108
4.27428091859311
4.231199613438097
4.1942727804480935
4.212736196943095
4.231199613438097
4.212736196943095
4.218890669108104
4.218890669108104
4.237354085603107
4.255817502098108
4.243508557768089
4.225045141273086
4.218890669108104
4.237354085603107
4.249663029933098
4.249663029933098
4.225045141273086
4.212736196943095
4.218890669108104
4.237354085603107
4.237354085603107
4.200427252613103
4.200427252613103
4.225045141273086
4.243508557768089
4.249663029933098
4.255817502098108
4.237354085603107
4.243508557768089
4.255817502098108
4.237354085603107
4.225045141273086
4.243508557768089
4.243508557768089
4.218890669108104
4.181963836118102
4.225045141273086
4.2681264464281
4.237354085603107
4.225045141273086
4.243508557768089
4.243508557768089
4.243508557768089
4.243508557768089
4.212736196943095
4.1758093639530935
4.2065817247780855
4.27428091859311
4.225045141273086
4.2681264464281
4.231199613438097
4.218890669108104
4.249663029933098
4.249663029933098
4.225045141273086
4.212736196943095
4.231199613438097
4.2865898629231
4.261971974263091
4.255817502098108
4.255817502098108
4.255817502098108
4.249663029933098
4.255817502098108
4.2681264464281
4.261971974263091
4.249663029933098
4.261971974263091
4.261971974263091
4.255817502098108
4.261971974263091
4.225045141273086
4.2065817247780855
4.231199613438097
4.280435390758092
4.2865898629231
4.298898807253093
4.2865898629231
4.261971974263091
4.2681264464281
4.280435390758092
4.305053279418103
4.3173622237481215
4.305053279418103
4.3112077515831135
4.298898807253093
4.292744335088111
4.292744335088111
4.280435390758092
4.298898807253093
4.3173622237481215
4.3112077515831135
4.292744335088111
4.2865898629231
4.249663029933098
4.2065817247780855
4.225045141273086
4.27428091859311
4.261971974263091
4.249663029933098
4.280435390758092
4.2681264464281
4.249663029933098
4.249663029933098
4.249663029933098
4.249663029933098
4.2681264464281
4.261971974263091
4.255817502098108
4.27428091859311
4.255817502098108
4.255817502098108
4.3112077515831135
4.323516695913104
4.335825640243124
4.329671168078114
4.3112077515831135
4.27428091859311
4.231199613438097
4.2065817247780855
4.181963836118102
4.1942727804480935
4.231199613438097
4.2681264464281
4.292744335088111
4.27428091859311
4.27428091859311
4.2681264464281
4.188118308283084
4.231199613438097
4.3173622237481215
4.2865898629231
4.255817502098108
4.305053279418103
4.298898807253093
4.2865898629231
4.212736196943095
4.225045141273086
4.225045141273086
4.218890669108104
4.225045141273086
4.249663029933098
4.2865898629231
4.243508557768089
4.1942727804480935
4.249663029933098
4.2865898629231
4.255817502098108
4.225045141273086
4.237354085603107
4.243508557768089
4.231199613438097
4.255817502098108
4.27428091859311
4.27428091859311
4.2681264464281
4.261971974263091
4.280435390758092
4.280435390758092
4.3112077515831135
4.3112077515831135
4.292744335088111
4.2865898629231
4.292744335088111
4.292744335088111
4.3112077515831135
4.2865898629231
4.27428091859311
4.280435390758092
4.292744335088111
4.261971974263091
4.305053279418103
4.305053279418103
4.27428091859311
4.298898807253093
4.298898807253093
4.292744335088111
4.3112077515831135
4.323516695913104
4.305053279418103
4.305053279418103
4.329671168078114
4.348134584573115
4.329671168078114
4.335825640243124
4.329671168078114
4.305053279418103
4.280435390758092
4.255817502098108
4.2681264464281
4.2865898629231
4.280435390758092
4.261971974263091
4.2681264464281
4.249663029933098
4.231199613438097
4.218890669108104
4.212736196943095
4.261971974263091
4.255817502098108
4.243508557768089
4.243508557768089
4.249663029933098
4.237354085603107
4.237354085603107
4.231199613438097
4.218890669108104
4.237354085603107
4.255817502098108
4.255817502098108
4.225045141273086
4.231199613438097
4.255817502098108
4.255817502098108
4.243508557768089
4.243508557768089
4.255817502098108
4.249663029933098
4.231199613438097
4.231199613438097
4.243508557768089
4.255817502098108
4.261971974263091
4.280435390758092
4.261971974263091
4.261971974263091
4.249663029933098
4.249663029933098
4.243508557768089
4.212736196943095
4.1942727804480935
4.243508557768089
4.231199613438097
4.200427252613103
4.261971974263091
4.27428091859311
4.261971974263091
4.200427252613103
4.1942727804480935
4.2865898629231
4.292744335088111
4.2681264464281
4.255817502098108
4.249663029933098
4.255817502098108
4.261971974263091
4.237354085603107
4.231199613438097
4.237354085603107
4.2681264464281
4.2681264464281
4.261971974263091
4.255817502098108
4.249663029933098
4.261971974263091
4.255817502098108
4.249663029933098
4.249663029933098
4.212736196943095
4.218890669108104
4.27428091859311
4.2681264464281
4.261971974263091
4.243508557768089
4.237354085603107
4.225045141273086
4.243508557768089
4.243508557768089
4.243508557768089
4.249663029933098
4.2681264464281
4.249663029933098
4.243508557768089
4.27428091859311
4.2681264464281
4.243508557768089
4.225045141273086
4.249663029933098
4.249663029933098
4.237354085603107
4.27428091859311
4.261971974263091
4.261971974263091
4.243508557768089
4.249663029933098
4.2681264464281
4.2681264464281
4.27428091859311
4.323516695913104
4.329671168078114
4.3112077515831135
4.2865898629231
4.200427252613103
4.298898807253093
4.298898807253093
4.3173622237481215
4.329671168078114
4.3112077515831135
4.280435390758092
4.243508557768089
4.1942727804480935
4.231199613438097
4.249663029933098
4.243508557768089
4.237354085603107
4.249663029933098
4.243508557768089
4.237354085603107
4.237354085603107
4.231199613438097
4.249663029933098
4.255817502098108
4.261971974263091
4.2681264464281
4.2681264464281
4.2681264464281
4.2865898629231
4.305053279418103
4.298898807253093
4.305053279418103
4.329671168078114
4.323516695913104
4.3173622237481215
4.280435390758092
4.2681264464281
4.243508557768089
4.218890669108104
4.237354085603107
4.249663029933098
4.237354085603107
4.243508557768089
4.255817502098108
4.27428091859311
4.280435390758092
4.2865898629231
4.280435390758092
4.2681264464281
4.2681264464281
4.249663029933098
4.249663029933098
4.280435390758092
4.2681264464281
4.298898807253093
4.3112077515831135
4.292744335088111
4.280435390758092
4.27428091859311
4.280435390758092
4.292744335088111
4.292744335088111
4.280435390758092
4.27428091859311
4.2865898629231
4.305053279418103
4.292744335088111
4.231199613438097
4.280435390758092
4.305053279418103
4.305053279418103
4.305053279418103
4.2681264464281
4.280435390758092
4.280435390758092
4.292744335088111
4.305053279418103
4.298898807253093
4.298898807253093
4.329671168078114
4.335825640243124
4.3173622237481215
4.298898807253093
4.298898807253093
4.3112077515831135
4.292744335088111
4.305053279418103
4.348134584573115
4.341980112408105
4.348134584573115
4.354289056738125
4.335825640243124
4.341980112408105
4.335825640243124
4.354289056738125
4.348134584573115
4.348134584573115
4.354289056738125
4.341980112408105
4.354289056738125
4.341980112408105
4.329671168078114
4.3173622237481215
4.329671168078114
4.360443528903107
4.341980112408105
4.3173622237481215
4.3173622237481215
4.3112077515831135
4.305053279418103
4.2865898629231
4.2681264464281
4.2681264464281
4.249663029933098
4.243508557768089
4.243508557768089
4.2681264464281
4.255817502098108
4.255817502098108
4.255817502098108
4.249663029933098
4.231199613438097
4.2681264464281
4.2865898629231
4.255817502098108
4.255817502098108
4.200427252613103
4.261971974263091
4.292744335088111
4.231199613438097
4.225045141273086
4.237354085603107
4.249663029933098
4.249663029933098
4.249663029933098
4.255817502098108
4.255817502098108
4.231199613438097
4.225045141273086
4.237354085603107
4.2681264464281
4.298898807253093
4.2865898629231
4.27428091859311
4.2681264464281
4.237354085603107
4.255817502098108
4.255817502098108
4.255817502098108
4.255817502098108
4.255817502098108
4.255817502098108
4.1942727804480935
4.1942727804480935
4.3112077515831135
4.27428091859311
4.261971974263091
4.27428091859311
4.2681264464281
4.261971974263091
4.1942727804480935
4.237354085603107
4.255817502098108
4.237354085603107
4.2065817247780855
4.225045141273086
4.292744335088111
4.298898807253093
4.27428091859311
4.261971974263091
4.261971974263091
4.261971974263091
4.249663029933098
4.243508557768089
4.231199613438097
4.255817502098108
4.2681264464281
4.2681264464281
4.280435390758092
4.27428091859311
4.261971974263091
4.2681264464281
4.2681264464281
4.237354085603107
4.249663029933098
4.27428091859311
4.255817502098108
4.243508557768089
4.261971974263091
4.255817502098108
4.255817502098108
4.249663029933098
4.255817502098108
4.231199613438097
4.261971974263091
4.298898807253093
4.292744335088111
4.2681264464281
4.27428091859311
4.280435390758092
4.2681264464281
4.2865898629231
4.3173622237481215
4.3112077515831135
4.280435390758092
4.27428091859311
4.305053279418103
4.323516695913104
4.3173622237481215
4.305053279418103
4.292744335088111
4.2865898629231
4.27428091859311
4.2865898629231
4.298898807253093
4.243508557768089
4.2681264464281
4.292744335088111
4.2865898629231
4.280435390758092
4.255817502098108
4.249663029933098
4.249663029933098
4.249663029933098
4.2681264464281
4.255817502098108
4.261971974263091
4.2681264464281
4.280435390758092
4.27428091859311
4.249663029933098
4.292744335088111
4.354289056738125
4.335825640243124
4.335825640243124
4.335825640243124
4.323516695913104
4.2865898629231
4.237354085603107
4.261971974263091
4.249663029933098
4.237354085603107
4.243508557768089
4.261971974263091
4.2681264464281
4.27428091859311
4.2681264464281
4.261971974263091
4.212736196943095
4.298898807253093
4.3112077515831135
4.280435390758092
4.255817502098108
4.261971974263091
4.2681264464281
4.2865898629231
4.2865898629231
4.255817502098108
4.231199613438097
4.261971974263091
4.305053279418103
4.298898807253093
4.27428091859311
4.280435390758092
4.305053279418103
4.298898807253093
4.298898807253093
4.280435390758092
4.298898807253093
4.2865898629231
4.27428091859311
4.249663029933098
4.237354085603107
4.292744335088111
4.292744335088111
4.2681264464281
4.237354085603107
4.255817502098108
4.354289056738125
4.354289056738125
4.3173622237481215
4.3112077515831135
4.3112077515831135
4.305053279418103
4.305053279418103
4.298898807253093
4.305053279418103
4.298898807253093
4.3112077515831135
4.360443528903107
4.341980112408105
4.329671168078114
4.3173622237481215
4.305053279418103
4.298898807253093
4.335825640243124
4.37890694539811
4.366598001068117
4.348134584573115
4.329671168078114
4.329671168078114
4.329671168078114
4.341980112408105
4.335825640243124
4.323516695913104
4.341980112408105
4.341980112408105
4.348134584573115
4.329671168078114
4.323516695913104
4.292744335088111
4.27428091859311
4.329671168078114
4.249663029933098
4.243508557768089
4.305053279418103
4.298898807253093
4.2865898629231
4.280435390758092
4.280435390758092
4.27428091859311
4.2681264464281
4.2681264464281
4.261971974263091
4.255817502098108
4.2681264464281
4.2865898629231
4.298898807253093
4.2865898629231
4.27428091859311
4.255817502098108
4.2681264464281
4.27428091859311
4.292744335088111
4.255817502098108
4.261971974263091
4.2865898629231
4.280435390758092
4.292744335088111
4.292744335088111
4.292744335088111
4.305053279418103
4.298898807253093
4.292744335088111
4.27428091859311
4.27428091859311
4.2681264464281
4.27428091859311
4.280435390758092
4.2865898629231
4.280435390758092
4.27428091859311
4.280435390758092
4.2681264464281
4.243508557768089
4.237354085603107
4.292744335088111
4.305053279418103
4.292744335088111
4.305053279418103
4.280435390758092
4.280435390758092
4.2865898629231
4.261971974263091
4.249663029933098
4.255817502098108
4.249663029933098
4.249663029933098
4.255817502098108
4.255817502098108
4.2065817247780855
4.188118308283084
4.225045141273086
4.243508557768089
4.243508557768089
4.225045141273086
4.243508557768089
4.249663029933098
4.255817502098108
4.2865898629231
4.280435390758092
4.2681264464281
4.255817502098108
4.261971974263091
4.249663029933098
4.237354085603107
4.261971974263091
4.2681264464281
4.2681264464281
4.255817502098108
4.280435390758092
4.3112077515831135
4.27428091859311
4.243508557768089
4.2681264464281
4.2865898629231
4.27428091859311
4.280435390758092
4.27428091859311
4.27428091859311
4.280435390758092
4.2865898629231
4.27428091859311
4.2865898629231
4.298898807253093
4.305053279418103
4.3173622237481215
4.329671168078114
4.329671168078114
4.329671168078114
4.2865898629231
4.305053279418103
4.329671168078114
4.3173622237481215
4.323516695913104
4.323516695913104
4.292744335088111
4.249663029933098
4.27428091859311
4.3112077515831135
4.2681264464281
4.249663029933098
4.261971974263091
4.249663029933098
4.231199613438097
4.261971974263091
4.27428091859311
4.255817502098108
4.243508557768089
4.2681264464281
4.261971974263091
4.27428091859311
4.280435390758092
4.243508557768089
4.2865898629231
4.3173622237481215
4.348134584573115
4.3112077515831135
4.3112077515831135
4.329671168078114
4.323516695913104
4.261971974263091
4.212736196943095
4.200427252613103
4.200427252613103
4.218890669108104
4.249663029933098
4.280435390758092
4.27428091859311
4.249663029933098
4.2681264464281
4.255817502098108
4.261971974263091
4.292744335088111
4.27428091859311
4.225045141273086
4.249663029933098
4.27428091859311
4.2865898629231
4.27428091859311
4.2681264464281
4.27428091859311
4.261971974263091
4.243508557768089
4.188118308283084
4.212736196943095
4.305053279418103
4.298898807253093
4.292744335088111
4.292744335088111
4.292744335088111
4.280435390758092
4.225045141273086
4.218890669108104
4.237354085603107
4.218890669108104
4.237354085603107
4.27428091859311
4.292744335088111
4.27428091859311
4.237354085603107
4.2681264464281
4.3173622237481215
4.298898807253093
4.27428091859311
4.292744335088111
4.2865898629231
4.27428091859311
4.2681264464281
4.280435390758092
4.298898807253093
4.305053279418103
4.255817502098108
4.2865898629231
4.3112077515831135
4.329671168078114
4.280435390758092
4.292744335088111
4.3112077515831135
4.298898807253093
4.280435390758092
4.3173622237481215
4.323516695913104
4.3112077515831135
4.329671168078114
4.323516695913104
4.323516695913104
4.329671168078114
4.305053279418103
4.27428091859311
4.27428091859311
4.298898807253093
4.298898807253093
4.280435390758092
4.2865898629231
4.27428091859311
4.2681264464281
4.261971974263091
4.249663029933098
4.237354085603107
4.231199613438097
4.188118308283084
4.225045141273086
4.298898807253093
4.27428091859311
4.243508557768089
4.249663029933098
4.249663029933098
4.255817502098108
4.2681264464281
4.27428091859311
4.249663029933098
4.237354085603107
4.249663029933098
4.249663029933098
4.2681264464281
4.261971974263091
4.243508557768089
4.237354085603107
4.261971974263091
4.255817502098108
4.237354085603107
4.249663029933098
4.292744335088111
4.280435390758092
4.243508557768089
4.243508557768089
4.2681264464281
4.280435390758092
4.292744335088111
4.261971974263091
4.261971974263091
4.280435390758092
4.2681264464281
4.237354085603107
4.237354085603107
4.298898807253093
4.280435390758092
4.261971974263091
4.255817502098108
4.249663029933098
4.243508557768089
4.261971974263091
4.298898807253093
4.292744335088111
4.2681264464281
4.255817502098108
4.2681264464281
4.2681264464281
4.261971974263091
4.261971974263091
4.280435390758092
4.2865898629231
4.261971974263091
4.249663029933098
4.280435390758092
4.292744335088111
4.2865898629231
4.2865898629231
4.2681264464281
4.2681264464281
4.27428091859311
4.255817502098108
4.231199613438097
4.1942727804480935
4.200427252613103
4.255817502098108
4.243508557768089
4.218890669108104
4.237354085603107
4.280435390758092
4.292744335088111
4.2681264464281
4.249663029933098
4.243508557768089
4.249663029933098
4.2681264464281
4.243508557768089
4.249663029933098
4.243508557768089
4.237354085603107
4.243508557768089
4.243508557768089
4.243508557768089
4.237354085603107
4.249663029933098
4.261971974263091
4.255817502098108
4.249663029933098
4.261971974263091
4.243508557768089
4.237354085603107
4.27428091859311
4.27428091859311
4.243508557768089
4.2865898629231
4.305053279418103
4.292744335088111
4.280435390758092
4.280435390758092
4.231199613438097
4.188118308283084
4.212736196943095
4.225045141273086
4.255817502098108
4.225045141273086
4.1942727804480935
4.225045141273086
4.27428091859311
4.249663029933098
4.231199613438097
4.225045141273086
4.243508557768089
4.249663029933098
4.225045141273086
4.218890669108104
4.218890669108104
4.243508557768089
4.249663029933098
4.231199613438097
4.237354085603107
4.243508557768089
4.255817502098108
4.243508557768089
4.225045141273086
4.231199613438097
4.261971974263091
4.243508557768089
4.212736196943095
4.1942727804480935
4.1942727804480935
4.1942727804480935
4.1942727804480935
4.2065817247780855
4.218890669108104
4.218890669108104
4.2065817247780855
4.1758093639530935
4.1942727804480935
4.261971974263091
4.261971974263091
4.261971974263091
4.261971974263091
4.243508557768089
4.237354085603107
4.225045141273086
4.225045141273086
4.237354085603107
4.231199613438097
4.212736196943095
4.218890669108104
4.225045141273086
4.243508557768089
4.243508557768089
4.237354085603107
4.231199613438097
4.218890669108104
4.218890669108104
4.27428091859311
4.280435390758092
4.2681264464281
4.243508557768089
4.218890669108104
4.200427252613103
4.261971974263091
4.298898807253093
4.27428091859311
4.2681264464281
4.280435390758092
4.2865898629231
4.280435390758092
4.261971974263091
4.249663029933098
4.261971974263091
4.298898807253093
4.292744335088111
4.2681264464281
4.280435390758092
4.3173622237481215
4.305053279418103
4.298898807253093
4.3112077515831135
4.3112077515831135
4.3112077515831135
4.3112077515831135
4.3173622237481215
4.335825640243124
4.348134584573115
4.323516695913104
4.261971974263091
4.237354085603107
4.305053279418103
4.37890694539811
4.37890694539811
4.341980112408105
4.305053279418103
4.305053279418103
4.3173622237481215
4.2865898629231
4.280435390758092
4.2681264464281
4.292744335088111
4.280435390758092
4.255817502098108
4.237354085603107
4.237354085603107
4.243508557768089
4.243508557768089
4.255817502098108
4.255817502098108
4.231199613438097
4.225045141273086
4.231199613438097
4.249663029933098
4.249663029933098
4.255817502098108
4.200427252613103
4.218890669108104
4.1942727804480935
4.243508557768089
4.255817502098108
4.249663029933098
4.261971974263091
4.261971974263091
4.249663029933098
4.237354085603107
4.231199613438097
4.212736196943095
4.212736196943095
4.2681264464281
4.255817502098108
4.2065817247780855
4.225045141273086
4.292744335088111
4.292744335088111
4.249663029933098
4.243508557768089
4.243508557768089
4.243508557768089
4.255817502098108
4.261971974263091
4.249663029933098
4.249663029933098
4.255817502098108
4.249663029933098
4.237354085603107
4.237354085603107
4.261971974263091
4.243508557768089
4.212736196943095
4.237354085603107
4.280435390758092
4.280435390758092
4.255817502098108
4.2681264464281
4.2681264464281
4.181963836118102
4.12657358663307
4.298898807253093
4.3112077515831135
4.2865898629231
4.261971974263091
4.2681264464281
4.2681264464281
4.225045141273086
4.212736196943095
4.231199613438097
4.249663029933098
4.255817502098108
4.243508557768089
4.243508557768089
4.243508557768089
4.243508557768089
4.249663029933098
4.243508557768089
4.261971974263091
4.249663029933098
4.255817502098108
4.243508557768089
4.225045141273086
4.218890669108104
4.249663029933098
4.280435390758092
4.255817502098108
4.249663029933098
4.261971974263091
4.261971974263091
4.255817502098108
4.243508557768089
4.2065817247780855
4.212736196943095
4.255817502098108
4.261971974263091
4.249663029933098
4.27428091859311
4.249663029933098
4.225045141273086
4.2681264464281
4.298898807253093
4.298898807253093
4.2865898629231
4.27428091859311
4.255817502098108
4.249663029933098
4.255817502098108
4.261971974263091
4.3173622237481215
4.2865898629231
4.243508557768089
4.237354085603107
4.2681264464281
4.255817502098108
4.255817502098108
4.249663029933098
4.237354085603107
4.255817502098108
4.27428091859311
4.2865898629231
4.249663029933098
4.1758093639530935
4.218890669108104
4.225045141273086
4.200427252613103
4.255817502098108
4.243508557768089
4.231199613438097
4.218890669108104
4.231199613438097
4.249663029933098
4.255817502098108
4.243508557768089
4.231199613438097
4.231199613438097
4.237354085603107
4.243508557768089
4.243508557768089
4.243508557768089
4.1942727804480935
4.095801225808078
4.12657358663307
4.163500419623101
4.2065817247780855
4.1942727804480935
4.1758093639530935
4.151191475293081
4.1942727804480935
4.27428091859311
4.255817502098108
4.225045141273086
4.212736196943095
4.212736196943095
4.218890669108104
4.225045141273086
4.225045141273086
4.212736196943095
4.1942727804480935
4.200427252613103
4.218890669108104
4.225045141273086
4.225045141273086
4.218890669108104
4.2065817247780855
4.218890669108104
4.218890669108104
4.225045141273086
4.243508557768089
4.231199613438097
4.231199613438097
4.255817502098108
4.261971974263091
4.243508557768089
4.243508557768089
4.249663029933098
4.243508557768089
4.218890669108104
4.188118308283084
4.218890669108104
4.2681264464281
4.2681264464281
4.255817502098108
4.249663029933098
4.231199613438097
4.2681264464281
4.2865898629231
4.2865898629231
4.280435390758092
4.27428091859311
4.255817502098108
4.280435390758092
4.292744335088111
4.3173622237481215
4.3112077515831135
4.298898807253093
4.280435390758092
4.2865898629231
4.27428091859311
4.27428091859311
4.3112077515831135
4.323516695913104
4.2865898629231
4.2865898629231
4.2681264464281
4.3112077515831135
4.323516695913104
4.292744335088111
4.2681264464281
4.2681264464281
4.255817502098108
4.212736196943095
4.231199613438097
4.261971974263091
4.261971974263091
4.249663029933098
4.237354085603107
4.225045141273086
4.237354085603107
4.212736196943095
4.169654891788083
4.1942727804480935
4.1942727804480935
4.200427252613103
4.188118308283084
4.1942727804480935
4.200427252613103
4.157345947458091
4.138882530963089
4.2065817247780855
4.243508557768089
4.218890669108104
4.212736196943095
4.225045141273086
4.2065817247780855
4.200427252613103
4.1942727804480935
4.200427252613103
4.2065817247780855
4.2065817247780855
4.1758093639530935
4.151191475293081
4.181963836118102
4.1942727804480935
4.1758093639530935
4.1758093639530935
4.169654891788083
4.163500419623101
4.2065817247780855
4.2065817247780855
4.1942727804480935
4.200427252613103
4.200427252613103
4.2065817247780855
4.212736196943095
4.188118308283084
4.1942727804480935
4.1942727804480935
4.200427252613103
4.225045141273086
4.212736196943095
4.1942727804480935
4.181963836118102
4.120419114468088
4.2065817247780855
4.2065817247780855
4.1758093639530935
4.181963836118102
4.225045141273086
4.2065817247780855
4.163500419623101
4.188118308283084
4.200427252613103
4.188118308283084
4.2065817247780855
4.218890669108104
4.1942727804480935
4.1942727804480935
4.2065817247780855
4.2065817247780855
4.231199613438097
4.231199613438097
4.200427252613103
4.200427252613103
4.243508557768089
4.231199613438097
4.225045141273086
4.2065817247780855
4.188118308283084
4.2065817247780855
4.218890669108104
4.2065817247780855
4.212736196943095
4.249663029933098
4.237354085603107
4.225045141273086
4.212736196943095
4.212736196943095
4.2065817247780855
4.231199613438097
4.261971974263091
4.231199613438097
4.2065817247780855
4.231199613438097
4.212736196943095
4.218890669108104
4.243508557768089
4.231199613438097
4.225045141273086
4.212736196943095
4.1942727804480935
4.255817502098108
4.261971974263091
4.225045141273086
4.27428091859311
4.280435390758092
4.27428091859311
4.261971974263091
4.27428091859311
4.2681264464281
4.298898807253093
4.3112077515831135
4.292744335088111
4.292744335088111
4.2865898629231
4.27428091859311
4.261971974263091
4.3112077515831135
4.2865898629231
4.280435390758092
4.2681264464281
4.2065817247780855
4.1942727804480935
4.2865898629231
4.298898807253093
4.255817502098108
4.218890669108104
4.249663029933098
4.298898807253093
4.2681264464281
4.2865898629231
4.335825640243124
4.3173622237481215
4.298898807253093
4.3173622237481215
4.323516695913104
4.305053279418103
4.3112077515831135
4.329671168078114
4.348134584573115
4.366598001068117
4.323516695913104
4.249663029933098
4.292744335088111
4.329671168078114
4.298898807253093
4.249663029933098
4.237354085603107
4.261971974263091
4.329671168078114
4.305053279418103
4.305053279418103
4.3112077515831135
4.292744335088111
4.255817502098108
4.27428091859311
4.292744335088111
4.280435390758092
4.2681264464281
4.2681264464281
4.27428091859311
4.27428091859311
4.237354085603107
4.298898807253093
4.27428091859311
4.249663029933098
4.2865898629231
4.329671168078114
4.3173622237481215
4.261971974263091
4.255817502098108
4.280435390758092
4.298898807253093
4.2865898629231
4.2681264464281
4.200427252613103
4.2865898629231
4.280435390758092
4.255817502098108
4.261971974263091
4.3112077515831135
4.298898807253093
4.2865898629231
4.2681264464281
4.27428091859311
4.249663029933098
4.243508557768089
4.243508557768089
4.261971974263091
4.27428091859311
4.255817502098108
4.2681264464281
4.292744335088111
4.298898807253093
4.298898807253093
4.292744335088111
4.280435390758092
4.292744335088111
4.280435390758092
4.292744335088111
4.2865898629231
4.2681264464281
4.280435390758092
4.323516695913104
4.323516695913104
4.305053279418103
4.298898807253093
4.3173622237481215
4.292744335088111
4.2865898629231
4.280435390758092
4.243508557768089
4.27428091859311
4.360443528903107
4.280435390758092
4.188118308283084
4.101955697973087
4.12657358663307
4.12657358663307
4.089646753643067
4.0711833371480655
4.077337809313075
4.089646753643067
4.083492281478085
4.095801225808078
4.12657358663307
4.108110170138069
4.077337809313075
4.083492281478085
4.145037003128072
4.145037003128072
4.1327280587980795
4.108110170138069
4.114264642303079
4.1327280587980795
4.12657358663307
4.095801225808078
4.120419114468088
4.157345947458091
4.200427252613103
4.151191475293081
4.1327280587980795
4.1942727804480935
4.1758093639530935
4.157345947458091
4.151191475293081
4.169654891788083
4.169654891788083
4.188118308283084
4.181963836118102
4.1758093639530935
4.169654891788083
4.188118308283084
4.237354085603107
4.225045141273086
4.2065817247780855
4.2065817247780855
4.200427252613103
4.231199613438097
4.231199613438097
4.212736196943095
4.200427252613103
4.249663029933098
4.27428091859311
4.255817502098108
4.237354085603107
4.218890669108104
4.200427252613103
4.218890669108104
4.237354085603107
4.243508557768089
4.243508557768089
4.243508557768089
4.237354085603107
4.243508557768089
4.218890669108104
4.188118308283084
4.225045141273086
4.280435390758092
4.298898807253093
4.225045141273086
4.237354085603107
4.292744335088111
4.255817502098108
4.237354085603107
4.261971974263091
4.261971974263091
4.249663029933098
4.255817502098108
4.255817502098108
4.280435390758092
4.2681264464281
4.243508557768089
4.225045141273086
4.255817502098108
4.2865898629231
4.231199613438097
4.218890669108104
4.360443528903107
4.3173622237481215
4.305053279418103
4.298898807253093
4.237354085603107
4.218890669108104
4.249663029933098
4.2865898629231
4.298898807253093
4.3173622237481215
4.323516695913104
4.292744335088111
4.27428091859311
4.292744335088111
4.305053279418103
4.341980112408105
4.323516695913104
4.280435390758092
4.27428091859311
4.2865898629231
4.3173622237481215
4.341980112408105
4.348134584573115
4.292744335088111
4.249663029933098
4.261971974263091
4.255817502098108
4.231199613438097
4.243508557768089
4.249663029933098
4.2065817247780855
4.1758093639530935
4.2065817247780855
4.225045141273086
4.225045141273086
4.2681264464281
4.261971974263091
4.27428091859311
4.249663029933098
4.231199613438097
4.249663029933098
4.298898807253093
4.280435390758092
4.237354085603107
4.243508557768089
4.261971974263091
4.3112077515831135
4.305053279418103
4.255817502098108
4.237354085603107
4.2065817247780855
4.1327280587980795
4.114264642303079
4.145037003128072
4.1942727804480935
4.231199613438097
4.212736196943095
4.200427252613103
4.231199613438097
4.218890669108104
4.200427252613103
4.157345947458091
4.1942727804480935
4.3173622237481215
4.2681264464281
4.243508557768089
4.218890669108104
4.200427252613103
4.2065817247780855
4.2065817247780855
4.212736196943095
4.218890669108104
4.237354085603107
4.243508557768089
4.243508557768089
4.243508557768089
4.225045141273086
4.225045141273086
4.188118308283084
4.188118308283084
4.2865898629231
4.2865898629231
4.27428091859311
4.255817502098108
4.243508557768089
4.261971974263091
4.243508557768089
4.249663029933098
4.243508557768089
4.298898807253093
4.2865898629231
4.231199613438097
4.2865898629231
4.280435390758092
4.280435390758092
4.2681264464281
4.280435390758092
4.2681264464281
4.27428091859311
4.2865898629231
4.298898807253093
4.27428091859311
4.261971974263091
4.329671168078114
4.323516695913104
4.298898807253093
4.305053279418103
4.3112077515831135
4.2865898629231
4.292744335088111
4.305053279418103
4.2681264464281
4.292744335088111
4.3173622237481215
4.329671168078114
4.360443528903107
4.329671168078114
4.323516695913104
4.3112077515831135
4.292744335088111
4.2681264464281
4.188118308283084
4.298898807253093
4.298898807253093
4.27428091859311
4.255817502098108
4.243508557768089
4.243508557768089
4.280435390758092
4.108110170138069
4.101955697973087
4.249663029933098
4.298898807253093
4.27428091859311
4.255817502098108
4.237354085603107
4.231199613438097
4.231199613438097
4.225045141273086
4.237354085603107
4.243508557768089
4.237354085603107
4.231199613438097
4.225045141273086
4.212736196943095
4.225045141273086
4.231199613438097
4.218890669108104
4.212736196943095
4.200427252613103
4.237354085603107
4.261971974263091
4.225045141273086
4.237354085603107
4.2681264464281
4.298898807253093
4.280435390758092
4.27428091859311
4.261971974263091
4.249663029933098
4.225045141273086
4.237354085603107
4.237354085603107
4.243508557768089
4.249663029933098
4.255817502098108
4.218890669108104
4.218890669108104
4.261971974263091
4.249663029933098
4.298898807253093
4.3112077515831135
4.3112077515831135
4.3112077515831135
4.2865898629231
4.27428091859311
4.1758093639530935
4.2865898629231
4.3112077515831135
4.2865898629231
4.2865898629231
4.292744335088111
4.298898807253093
4.255817502098108
4.225045141273086
4.237354085603107
4.200427252613103
4.237354085603107
4.261971974263091
4.249663029933098
4.249663029933098
4.280435390758092
4.292744335088111
4.280435390758092
4.280435390758092
4.27428091859311
4.27428091859311
4.280435390758092
4.298898807253093
4.2865898629231
4.2681264464281
4.237354085603107
4.237354085603107
4.27428091859311
4.237354085603107
4.243508557768089
4.2865898629231
4.3112077515831135
4.3112077515831135
4.2681264464281
4.243508557768089
4.2865898629231
4.298898807253093
4.3112077515831135
4.305053279418103
4.292744335088111
4.27428091859311
4.27428091859311
4.3173622237481215
4.3173622237481215
4.305053279418103
4.298898807253093
4.2681264464281
4.305053279418103
4.341980112408105
4.298898807253093
4.298898807253093
4.280435390758092
4.280435390758092
4.27428091859311
4.2681264464281
4.27428091859311
4.27428091859311
4.298898807253093
4.2681264464281
4.261971974263091
4.255817502098108
4.2681264464281
4.243508557768089
4.261971974263091
4.305053279418103
4.298898807253093
4.255817502098108
4.12657358663307
4.243508557768089
4.3112077515831135
4.249663029933098
4.2865898629231
4.305053279418103
4.305053279418103
4.298898807253093
4.3112077515831135
4.3173622237481215
4.305053279418103
4.27428091859311
4.2865898629231
4.27428091859311
4.249663029933098
4.231199613438097
4.218890669108104
4.243508557768089
4.27428091859311
4.261971974263091
4.261971974263091
4.200427252613103
4.231199613438097
4.305053279418103
4.3112077515831135
4.2865898629231
4.27428091859311
4.27428091859311
4.237354085603107
4.249663029933098
4.3173622237481215
4.3173622237481215
4.292744335088111
4.292744335088111
4.292744335088111
4.2865898629231
4.292744335088111
4.292744335088111
4.2865898629231
4.2681264464281
4.2681264464281
4.2865898629231
4.292744335088111
4.280435390758092
4.305053279418103
4.323516695913104
4.298898807253093
4.3112077515831135
4.323516695913104
4.305053279418103
4.2681264464281
4.2681264464281
4.323516695913104
4.348134584573115
4.329671168078114
4.341980112408105
4.335825640243124
4.329671168078114
4.323516695913104
4.335825640243124
4.3173622237481215
4.305053279418103
4.2681264464281
4.335825640243124
4.391215889728128
4.329671168078114
4.3173622237481215
4.323516695913104
4.305053279418103
4.298898807253093
4.335825640243124
4.354289056738125
4.354289056738125
4.348134584573115
4.335825640243124
4.298898807253093
4.280435390758092
4.3727524732331275
4.40967930622313
4.366598001068117
4.341980112408105
4.329671168078114
4.329671168078114
4.329671168078114
4.305053279418103
4.305053279418103
4.2865898629231
4.27428091859311
4.255817502098108
4.200427252613103
4.237354085603107
4.280435390758092
4.3173622237481215
4.280435390758092
4.2681264464281
4.280435390758092
4.243508557768089
4.2065817247780855
4.249663029933098
4.292744335088111
4.292744335088111
4.27428091859311
4.255817502098108
4.249663029933098
4.2681264464281
4.2681264464281
4.261971974263091
4.255817502098108
4.261971974263091
4.249663029933098
4.237354085603107
4.280435390758092
4.27428091859311
4.2681264464281
4.2681264464281
4.249663029933098
4.231199613438097
4.27428091859311
4.2681264464281
4.255817502098108
4.27428091859311
4.261971974263091
4.1942727804480935
4.280435390758092
4.292744335088111
4.27428091859311
4.2865898629231
4.255817502098108
4.181963836118102
4.1942727804480935
4.2681264464281
4.2865898629231
4.280435390758092
4.280435390758092
4.27428091859311
4.261971974263091
4.261971974263091
4.255817502098108
4.255817502098108
4.261971974263091
4.2681264464281
4.243508557768089
4.237354085603107
4.298898807253093
4.305053279418103
4.27428091859311
4.243508557768089
4.243508557768089
4.243508557768089
4.231199613438097
4.243508557768089
4.323516695913104
4.292744335088111
4.2865898629231
4.27428091859311
4.237354085603107
4.255817502098108
4.3112077515831135
4.292744335088111
4.280435390758092
4.280435390758092
4.2681264464281
4.2681264464281
4.298898807253093
4.305053279418103
4.261971974263091
4.255817502098108
4.249663029933098
4.231199613438097
4.243508557768089
4.2865898629231
4.292744335088111
4.298898807253093
4.2865898629231
4.280435390758092
4.27428091859311
4.292744335088111
4.280435390758092
4.261971974263091
4.2681264464281
4.3112077515831135
4.292744335088111
4.280435390758092
4.292744335088111
4.2865898629231
4.237354085603107
4.3112077515831135
4.341980112408105
4.323516695913104
4.323516695913104
4.323516695913104
4.298898807253093
4.323516695913104
4.335825640243124
4.3112077515831135
4.298898807253093
4.27428091859311
4.255817502098108
4.292744335088111
4.292744335088111
4.255817502098108
4.261971974263091
4.27428091859311
4.2865898629231
4.27428091859311
4.261971974263091
4.255817502098108
4.255817502098108
4.2681264464281
4.2681264464281
4.255817502098108
4.255817502098108
4.249663029933098
4.2681264464281
4.2865898629231
4.2865898629231
4.292744335088111
4.305053279418103
4.305053279418103
4.3112077515831135
4.3173622237481215
4.298898807253093
4.2865898629231
4.249663029933098
4.231199613438097
4.218890669108104
4.237354085603107
4.255817502098108
4.249663029933098
4.231199613438097
4.255817502098108
4.280435390758092
4.2865898629231
4.2865898629231
4.2865898629231
4.261971974263091
4.237354085603107
4.2681264464281
4.305053279418103
4.27428091859311
4.2681264464281
4.2865898629231
4.27428091859311
4.243508557768089
4.1758093639530935
4.225045141273086
4.305053279418103
4.305053279418103
4.3112077515831135
4.305053279418103
4.298898807253093
4.280435390758092
4.27428091859311
4.237354085603107
4.249663029933098
4.261971974263091
4.3112077515831135
4.323516695913104
4.323516695913104
4.323516695913104
4.3173622237481215
4.298898807253093
4.3112077515831135
4.305053279418103
4.298898807253093
4.2865898629231
4.280435390758092
4.366598001068117
4.391215889728128
4.335825640243124
4.3173622237481215
4.323516695913104
4.323516695913104
4.341980112408105
4.354289056738125
4.329671168078114
4.305053279418103
4.341980112408105
4.360443528903107
4.354289056738125
4.3727524732331275
4.3727524732331275
4.354289056738125
4.329671168078114
4.3173622237481215
4.360443528903107
4.3727524732331275
4.360443528903107
4.341980112408105
4.335825640243124
4.354289056738125
4.341980112408105
4.323516695913104
4.298898807253093
4.261971974263091
4.280435390758092
4.298898807253093
4.292744335088111
4.255817502098108
4.243508557768089
4.292744335088111
4.280435390758092
4.2681264464281
4.255817502098108
4.231199613438097
4.237354085603107
4.280435390758092
4.2681264464281
4.225045141273086
4.231199613438097
4.255817502098108
4.27428091859311
4.2681264464281
4.280435390758092
4.255817502098108
4.225045141273086
4.249663029933098
4.249663029933098
4.255817502098108
4.261971974263091
4.249663029933098
4.249663029933098
4.2681264464281
4.3112077515831135
4.280435390758092
4.2681264464281
4.27428091859311
4.27428091859311
4.280435390758092
4.2681264464281
4.237354085603107
4.231199613438097
4.27428091859311
4.280435390758092
4.280435390758092
4.280435390758092
4.2681264464281
4.255817502098108
4.231199613438097
4.231199613438097
4.2865898629231
4.280435390758092
4.261971974263091
4.249663029933098
4.261971974263091
4.280435390758092
4.261971974263091
4.225045141273086
4.249663029933098
4.280435390758092
4.3112077515831135
4.2865898629231
4.261971974263091
4.2681264464281
4.298898807253093
4.305053279418103
4.2865898629231
4.261971974263091
4.261971974263091
4.292744335088111
4.280435390758092
4.2865898629231
4.243508557768089
4.237354085603107
4.27428091859311
4.261971974263091
4.188118308283084
4.292744335088111
4.3112077515831135
4.280435390758092
4.231199613438097
4.231199613438097
4.255817502098108
4.2865898629231
4.27428091859311
4.249663029933098
4.225045141273086
4.237354085603107
4.305053279418103
4.2865898629231
4.280435390758092
4.261971974263091
4.27428091859311
4.249663029933098
4.261971974263091
4.27428091859311
4.27428091859311
4.27428091859311
4.255817502098108
4.255817502098108
4.261971974263091
4.27428091859311
4.305053279418103
4.292744335088111
4.27428091859311
4.261971974263091
4.2865898629231
4.292744335088111
4.3173622237481215
4.2865898629231
4.305053279418103
4.335825640243124
4.329671168078114
4.3112077515831135
4.3173622237481215
4.3112077515831135
4.305053279418103
4.341980112408105
4.366598001068117
4.360443528903107
4.329671168078114
4.3112077515831135
4.3112077515831135
4.305053279418103
4.292744335088111
4.2865898629231
4.2865898629231
4.2681264464281
4.237354085603107
4.225045141273086
4.218890669108104
4.237354085603107
4.280435390758092
4.292744335088111
4.27428091859311
4.27428091859311
4.2865898629231
4.292744335088111
4.27428091859311
4.261971974263091
4.3173622237481215
4.323516695913104
4.2865898629231
4.3112077515831135
4.335825640243124
4.2865898629231
4.261971974263091
4.243508557768089
4.218890669108104
4.212736196943095
4.237354085603107
4.2681264464281
4.280435390758092
4.292744335088111
4.3173622237481215
4.298898807253093
4.298898807253093
4.292744335088111
4.255817502098108
4.237354085603107
4.2865898629231
4.3173622237481215
4.27428091859311
4.2865898629231
4.27428091859311
4.298898807253093
4.329671168078114
4.2865898629231
4.255817502098108
4.292744335088111
4.3112077515831135
4.3112077515831135
4.3173622237481215
4.3112077515831135
4.298898807253093
4.2865898629231
4.3173622237481215
4.354289056738125
4.341980112408105
4.341980112408105
4.305053279418103
4.27428091859311
4.335825640243124
4.335825640243124
4.3112077515831135
4.329671168078114
4.341980112408105
4.3112077515831135
4.3173622237481215
4.335825640243124
4.391215889728128
4.391215889728128
4.354289056738125
4.348134584573115
4.3727524732331275
4.366598001068117
4.360443528903107
4.348134584573115
4.305053279418103
4.366598001068117
4.360443528903107
4.348134584573115
4.385061417563119
4.415833778388112
4.348134584573115
4.348134584573115
4.341980112408105
4.335825640243124
4.391215889728128
4.415833778388112
4.391215889728128
4.385061417563119
4.391215889728128
4.397370361893111
4.366598001068117
4.354289056738125
4.354289056738125
4.360443528903107
4.329671168078114
4.335825640243124
4.323516695913104
4.3112077515831135
4.3112077515831135
4.305053279418103
4.298898807253093
4.292744335088111
4.2865898629231
4.2681264464281
4.249663029933098
4.261971974263091
4.305053279418103
4.305053279418103
4.2865898629231
4.2865898629231
4.292744335088111
4.292744335088111
4.292744335088111
4.3112077515831135
4.3112077515831135
4.280435390758092
4.280435390758092
4.280435390758092
4.280435390758092
4.2681264464281
4.292744335088111
4.3173622237481215
4.305053279418103
4.298898807253093
4.292744335088111
4.292744335088111
4.298898807253093
4.329671168078114
4.323516695913104
4.323516695913104
4.298898807253093
4.3173622237481215
4.305053279418103
4.305053279418103
4.348134584573115
4.3173622237481215
4.292744335088111
4.298898807253093
4.329671168078114
4.305053279418103
4.292744335088111
4.3112077515831135
4.298898807253093
4.231199613438097
4.292744335088111
4.298898807253093
4.354289056738125
4.366598001068117
4.341980112408105
4.329671168078114
4.298898807253093
4.2681264464281
4.305053279418103
4.3173622237481215
4.3112077515831135
4.3112077515831135
4.305053279418103
4.2865898629231
4.3112077515831135
4.3173622237481215
4.3173622237481215
4.329671168078114
4.3112077515831135
4.298898807253093
4.2681264464281
4.280435390758092
4.385061417563119
4.40352483405812
4.360443528903107
4.360443528903107
4.348134584573115
4.3173622237481215
4.323516695913104
4.348134584573115
4.329671168078114
4.292744335088111
4.2865898629231
4.3173622237481215
4.348134584573115
4.341980112408105
4.3173622237481215
4.280435390758092
4.3112077515831135
4.3727524732331275
4.3727524732331275
4.341980112408105
4.335825640243124
4.329671168078114
4.335825640243124
4.323516695913104
4.335825640243124
4.366598001068117
4.354289056738125
4.329671168078114
4.323516695913104
4.3173622237481215
4.280435390758092
4.3112077515831135
4.298898807253093
4.3173622237481215
4.341980112408105
4.341980112408105
4.3727524732331275
4.428142722718132
4.40352483405812
4.366598001068117
4.354289056738125
4.421988250553122
4.434297194883113
4.40967930622313
4.385061417563119
4.3727524732331275
4.3727524732331275
4.366598001068117
4.348134584573115
4.335825640243124
4.335825640243124
4.335825640243124
4.335825640243124
4.323516695913104
4.3112077515831135
4.329671168078114
4.323516695913104
4.341980112408105
4.341980112408105
4.323516695913104
4.323516695913104
4.335825640243124
4.335825640243124
4.360443528903107
4.37890694539811
4.40967930622313
4.421988250553122
4.391215889728128
4.3727524732331275
4.37890694539811
4.341980112408105
4.3112077515831135
4.292744335088111
4.305053279418103
4.298898807253093
4.292744335088111
4.298898807253093
4.335825640243124
4.341980112408105
4.3173622237481215
4.323516695913104
4.354289056738125
4.341980112408105
4.329671168078114
4.37890694539811
4.3727524732331275
4.305053279418103
4.292744335088111
4.305053279418103
4.348134584573115
4.360443528903107
4.354289056738125
4.329671168078114
4.292744335088111
4.348134584573115
4.37890694539811
4.354289056738125
4.323516695913104
4.298898807253093
4.329671168078114
4.360443528903107
4.391215889728128
4.366598001068117
4.366598001068117
4.3727524732331275
4.341980112408105
4.341980112408105
4.341980112408105
4.348134584573115
4.335825640243124
4.348134584573115
4.360443528903107
4.354289056738125
4.341980112408105
4.323516695913104
4.323516695913104
4.360443528903107
4.3727524732331275
4.37890694539811
4.40352483405812
4.40352483405812
4.385061417563119
4.40967930622313
4.421988250553122
4.40352483405812
4.37890694539811
4.385061417563119
4.40352483405812
4.415833778388112
4.40352483405812
4.40352483405812
4.415833778388112
4.440451667048122
4.434297194883113
4.434297194883113
4.40352483405812
4.40967930622313
4.434297194883113
4.428142722718132
4.452760611378115
4.40352483405812
4.3727524732331275
4.37890694539811
4.385061417563119
4.37890694539811
4.366598001068117
4.348134584573115
4.360443528903107
4.366598001068117
4.366598001068117
4.341980112408105
4.323516695913104
4.27428091859311
4.360443528903107
4.3727524732331275
4.341980112408105
4.3112077515831135
4.323516695913104
4.335825640243124
4.360443528903107
4.354289056738125
4.360443528903107
4.360443528903107
4.360443528903107
4.360443528903107
4.360443528903107
4.354289056738125
4.341980112408105
4.348134584573115
4.366598001068117
4.3727524732331275
4.366598001068117
4.348134584573115
4.354289056738125
4.391215889728128
4.40967930622313
4.37890694539811
4.341980112408105
4.360443528903107
4.37890694539811
4.366598001068117
4.366598001068117
4.360443528903107
4.360443528903107
4.3727524732331275
4.360443528903107
4.360443528903107
4.37890694539811
4.391215889728128
4.3727524732331275
4.3727524732331275
4.354289056738125
4.360443528903107
4.385061417563119
4.3727524732331275
4.354289056738125
4.348134584573115
4.341980112408105
4.335825640243124
4.354289056738125
4.415833778388112
4.397370361893111
4.385061417563119
4.366598001068117
4.366598001068117
4.37890694539811
4.391215889728128
4.391215889728128
4.37890694539811
4.366598001068117
4.37890694539811
4.37890694539811
4.385061417563119
4.385061417563119
4.354289056738125
4.341980112408105
4.37890694539811
4.360443528903107
4.360443528903107
4.366598001068117
4.366598001068117
4.397370361893111
4.385061417563119
4.3727524732331275
4.360443528903107
4.366598001068117
4.354289056738125
4.360443528903107
4.385061417563119
4.385061417563119
4.397370361893111
4.385061417563119
4.366598001068117
4.3727524732331275
4.360443528903107
4.354289056738125
4.354289056738125
4.360443528903107
4.391215889728128
4.3727524732331275
4.3727524732331275
4.37890694539811
4.37890694539811
4.3727524732331275
4.354289056738125
4.3727524732331275
4.421988250553122
4.421988250553122
4.421988250553122
4.421988250553122
4.415833778388112
4.40967930622313
4.397370361893111
4.40967930622313
4.40352483405812
4.391215889728128
4.397370361893111
4.37890694539811
4.37890694539811
4.385061417563119
4.360443528903107
4.385061417563119
4.3727524732331275
4.3727524732331275
4.385061417563119
4.366598001068117
4.354289056738125
4.360443528903107
4.3727524732331275
4.366598001068117
4.366598001068117
4.348134584573115
4.329671168078114
4.305053279418103
4.280435390758092
4.421988250553122
4.446606139213133
4.428142722718132
4.434297194883113
4.452760611378115
4.440451667048122
4.366598001068117
4.335825640243124
4.3173622237481215
4.305053279418103
4.305053279418103
4.3112077515831135
4.348134584573115
4.40967930622313
4.292744335088111
4.329671168078114
4.37890694539811
4.366598001068117
4.391215889728128
4.391215889728128
4.3727524732331275
4.329671168078114
4.292744335088111
4.354289056738125
4.40352483405812
4.391215889728128
4.360443528903107
4.3727524732331275
4.397370361893111
4.391215889728128
4.397370361893111
4.37890694539811
4.348134584573115
4.366598001068117
4.37890694539811
4.385061417563119
4.3727524732331275
4.366598001068117
4.354289056738125
4.37890694539811
4.391215889728128
4.3727524732331275
4.37890694539811
4.40352483405812
4.40967930622313
4.360443528903107
4.385061417563119
4.40967930622313
4.40967930622313
4.428142722718132
4.415833778388112
4.421988250553122
4.421988250553122
4.360443528903107
4.360443528903107
4.421988250553122
4.40967930622313
4.415833778388112
4.40967930622313
4.415833778388112
4.440451667048122
4.421988250553122
4.421988250553122
4.446606139213133
4.440451667048122
4.40352483405812
4.415833778388112
4.458915083543125
4.465069555708134
4.458915083543125
4.440451667048122
4.446606139213133
4.465069555708134
4.434297194883113
4.428142722718132
4.421988250553122
4.37890694539811
4.366598001068117
4.452760611378115
4.40352483405812
4.37890694539811
4.40967930622313
4.428142722718132
4.415833778388112
4.40352483405812
4.385061417563119
4.385061417563119
4.391215889728128
4.360443528903107
4.360443528903107
4.348134584573115
4.428142722718132
4.40352483405812
4.341980112408105
4.360443528903107
4.385061417563119
4.391215889728128
4.360443528903107
4.348134584573115
4.366598001068117
4.40967930622313
4.40352483405812
4.360443528903107
4.348134584573115
4.3727524732331275
4.366598001068117
4.354289056738125
4.360443528903107
4.354289056738125
4.3727524732331275
4.385061417563119
4.37890694539811
4.37890694539811
4.385061417563119
4.3727524732331275
4.3727524732331275
4.354289056738125
4.335825640243124
4.341980112408105
4.40352483405812
4.40352483405812
4.335825640243124
4.391215889728128
4.354289056738125
4.335825640243124
4.360443528903107
4.354289056738125
4.366598001068117
4.3727524732331275
4.3727524732331275
4.3727524732331275
4.391215889728128
4.397370361893111
4.37890694539811
4.348134584573115
4.366598001068117
4.385061417563119
4.40352483405812
4.385061417563119
4.37890694539811
4.391215889728128
4.391215889728128
4.360443528903107
4.354289056738125
4.391215889728128
4.397370361893111
4.385061417563119
4.37890694539811
4.385061417563119
4.385061417563119
4.360443528903107
4.341980112408105
4.354289056738125
4.391215889728128
4.385061417563119
4.360443528903107
4.37890694539811
4.415833778388112
4.3727524732331275
4.3727524732331275
4.385061417563119
4.360443528903107
4.348134584573115
4.37890694539811
4.37890694539811
4.37890694539811
4.360443528903107
4.360443528903107
4.37890694539811
4.37890694539811
4.366598001068117
4.360443528903107
4.335825640243124
4.354289056738125
4.37890694539811
4.397370361893111
4.385061417563119
4.37890694539811
4.37890694539811
4.385061417563119
4.391215889728128
4.366598001068117
4.37890694539811
4.385061417563119
4.366598001068117
4.397370361893111
4.37890694539811
4.391215889728128
4.397370361893111
4.415833778388112
4.415833778388112
4.391215889728128
4.354289056738125
4.397370361893111
4.434297194883113
4.40352483405812
4.37890694539811
4.40352483405812
4.415833778388112
4.385061417563119
4.3727524732331275
4.360443528903107
4.366598001068117
4.366598001068117
4.354289056738125
4.348134584573115
4.348134584573115
4.366598001068117
4.360443528903107
4.348134584573115
4.341980112408105
4.360443528903107
4.360443528903107
4.3727524732331275
4.37890694539811
4.391215889728128
4.385061417563119
4.366598001068117
4.354289056738125
4.397370361893111
4.428142722718132
4.434297194883113
4.415833778388112
4.40352483405812
4.391215889728128
4.360443528903107
4.348134584573115
4.323516695913104
4.292744335088111
4.305053279418103
4.37890694539811
4.391215889728128
4.354289056738125
4.37890694539811
4.40967930622313
4.3727524732331275
4.348134584573115
4.366598001068117
4.385061417563119
4.37890694539811
4.3727524732331275
4.360443528903107
4.329671168078114
4.280435390758092
4.397370361893111
4.40967930622313
4.397370361893111
4.385061417563119
4.341980112408105
4.354289056738125
4.366598001068117
4.360443528903107
4.348134584573115
4.341980112408105
4.348134584573115
4.348134584573115
4.360443528903107
4.415833778388112
4.391215889728128
4.385061417563119
4.415833778388112
4.40352483405812
4.397370361893111
4.40352483405812
4.385061417563119
4.40352483405812
4.40352483405812
4.397370361893111
4.40967930622313
4.397370361893111
4.391215889728128
4.40967930622313
4.421988250553122
4.415833778388112
4.397370361893111
4.40352483405812
4.397370361893111
4.434297194883113
4.465069555708134
4.434297194883113
4.40967930622313
4.40967930622313
4.40967930622313
4.40352483405812
4.40967930622313
4.415833778388112
4.434297194883113
4.434297194883113
4.446606139213133
4.446606139213133
4.428142722718132
4.415833778388112
4.428142722718132
4.428142722718132
4.40352483405812
4.385061417563119
4.360443528903107
4.341980112408105
4.354289056738125
4.366598001068117
4.366598001068117
4.360443528903107
4.341980112408105
4.335825640243124
4.335825640243124
4.360443528903107
4.341980112408105
4.366598001068117
4.348134584573115
4.335825640243124
4.3173622237481215
4.329671168078114
4.341980112408105
4.335825640243124
4.323516695913104
4.298898807253093
4.335825640243124
4.354289056738125
4.3112077515831135
4.2865898629231
4.305053279418103
4.329671168078114
4.354289056738125
4.3727524732331275
4.3727524732331275
4.329671168078114
4.249663029933098
4.323516695913104
4.329671168078114
4.341980112408105
4.341980112408105
4.341980112408105
4.341980112408105
4.305053279418103
4.261971974263091
4.305053279418103
4.341980112408105
4.3727524732331275
4.348134584573115
4.354289056738125
4.335825640243124
4.335825640243124
4.335825640243124
4.341980112408105
4.354289056738125
4.348134584573115
4.329671168078114
4.3112077515831135
4.305053279418103
4.323516695913104
4.341980112408105
4.323516695913104
4.2865898629231
4.280435390758092
4.341980112408105
4.360443528903107
4.341980112408105
4.329671168078114
4.335825640243124
4.354289056738125
4.341980112408105
4.3173622237481215
4.298898807253093
4.323516695913104
4.3173622237481215
4.231199613438097
4.329671168078114
4.329671168078114
4.298898807253093
4.298898807253093
4.335825640243124
4.354289056738125
4.348134584573115
4.3173622237481215
4.3112077515831135
4.305053279418103
4.323516695913104
4.323516695913104
4.335825640243124
4.335825640243124
4.3173622237481215
4.329671168078114
4.3173622237481215
4.3112077515831135
4.292744335088111
4.2681264464281
4.323516695913104
4.3727524732331275
4.335825640243124
4.335825640243124
4.335825640243124
4.348134584573115
4.348134584573115
4.348134584573115
4.329671168078114
4.341980112408105
4.305053279418103
4.3173622237481215
4.335825640243124
4.348134584573115
4.354289056738125
4.360443528903107
4.348134584573115
4.329671168078114
4.292744335088111
4.3173622237481215
4.366598001068117
4.360443528903107
4.385061417563119
4.366598001068117
4.3727524732331275
4.37890694539811
4.354289056738125
4.360443528903107
4.391215889728128
4.391215889728128
4.3727524732331275
4.360443528903107
4.341980112408105
4.3173622237481215
4.305053279418103
4.3173622237481215
4.3173622237481215
4.360443528903107
4.329671168078114
4.3112077515831135
4.323516695913104
4.3173622237481215
4.298898807253093
4.341980112408105
4.323516695913104
4.3173622237481215
4.335825640243124
4.348134584573115
4.341980112408105
4.323516695913104
4.323516695913104
4.341980112408105
4.348134584573115
4.341980112408105
4.323516695913104
4.3173622237481215
4.329671168078114
4.3173622237481215
4.305053279418103
4.261971974263091
4.212736196943095
4.2065817247780855
4.261971974263091
4.298898807253093
4.2865898629231
4.280435390758092
4.2865898629231
4.280435390758092
4.2681264464281
4.261971974263091
4.2681264464281
4.2865898629231
4.292744335088111
4.2865898629231
4.280435390758092
4.280435390758092
4.280435390758092
4.2681264464281
4.249663029933098
4.249663029933098
4.243508557768089
4.249663029933098
4.261971974263091
4.280435390758092
4.3112077515831135
4.292744335088111
4.243508557768089
4.237354085603107
4.249663029933098
4.261971974263091
4.2681264464281
4.261971974263091
4.249663029933098
4.255817502098108
4.261971974263091
4.255817502098108
4.237354085603107
4.231199613438097
4.231199613438097
4.261971974263091
4.2681264464281
4.181963836118102
4.255817502098108
4.255817502098108
4.212736196943095
4.261971974263091
4.243508557768089
4.218890669108104
4.231199613438097
4.225045141273086
4.243508557768089
4.2865898629231
4.27428091859311
4.2865898629231
4.298898807253093
4.298898807253093
4.298898807253093
4.292744335088111
4.3173622237481215
4.3112077515831135
4.298898807253093
4.298898807253093
4.298898807253093
4.298898807253093
4.280435390758092
4.305053279418103
4.323516695913104
4.292744335088111
4.280435390758092
4.27428091859311
4.2865898629231
4.255817502098108
4.237354085603107
4.243508557768089
4.27428091859311
4.27428091859311
4.2865898629231
4.298898807253093
4.305053279418103
4.27428091859311
4.2681264464281
4.2865898629231
4.323516695913104
4.354289056738125
4.366598001068117
4.360443528903107
4.3173622237481215
4.3173622237481215
4.323516695913104
4.348134584573115
4.415833778388112
4.452760611378115
4.421988250553122
4.3112077515831135
4.231199613438097
4.3173622237481215
4.397370361893111
4.40352483405812
4.391215889728128
4.385061417563119
4.354289056738125
4.3173622237481215
4.298898807253093
4.305053279418103
4.323516695913104
4.360443528903107
4.329671168078114
4.354289056738125
4.348134584573115
4.341980112408105
4.323516695913104
4.305053279418103
4.3112077515831135
4.2865898629231
4.249663029933098
4.261971974263091
4.261971974263091
4.261971974263091
4.27428091859311
4.2865898629231
4.280435390758092
4.292744335088111
4.298898807253093
4.292744335088111
4.298898807253093
4.292744335088111
4.298898807253093
4.2865898629231
4.3173622237481215
4.3173622237481215
4.3173622237481215
4.3173622237481215
4.305053279418103
4.298898807253093
4.2865898629231
4.255817502098108
4.280435390758092
4.249663029933098
4.218890669108104
4.1942727804480935
4.237354085603107
4.341980112408105
4.348134584573115
4.2865898629231
4.27428091859311
4.298898807253093
4.305053279418103
4.298898807253093
4.335825640243124
4.335825640243124
4.3112077515831135
4.3112077515831135
4.280435390758092
4.298898807253093
4.323516695913104
4.329671168078114
4.3112077515831135
4.280435390758092
4.243508557768089
4.237354085603107
4.261971974263091
4.27428091859311
4.231199613438097
4.1758093639530935
4.2681264464281
4.292744335088111
4.292744335088111
4.329671168078114
4.3173622237481215
4.249663029933098
4.261971974263091
4.3173622237481215
4.255817502098108
4.188118308283084
4.1942727804480935
4.225045141273086
4.2681264464281
4.366598001068117
4.354289056738125
4.329671168078114
4.348134584573115
4.366598001068117
4.348134584573115
4.3173622237481215
4.292744335088111
4.298898807253093
4.298898807253093
4.280435390758092
4.27428091859311
4.2865898629231
4.27428091859311
4.2865898629231
4.1942727804480935
4.261971974263091
4.305053279418103
4.323516695913104
4.3112077515831135
4.280435390758092
4.2681264464281
4.231199613438097
4.188118308283084
4.169654891788083
4.138882530963089
4.1758093639530935
4.237354085603107
4.261971974263091
4.181963836118102
4.169654891788083
4.2865898629231
4.27428091859311
4.243508557768089
4.249663029933098
4.3173622237481215
4.348134584573115
4.3112077515831135
4.2865898629231
4.255817502098108
4.237354085603107
4.237354085603107
4.218890669108104
4.169654891788083
4.12657358663307
4.114264642303079
4.163500419623101
4.218890669108104
4.212736196943095
4.12657358663307
4.120419114468088
4.27428091859311
4.3173622237481215
4.261971974263091
4.237354085603107
4.218890669108104
4.249663029933098
4.2681264464281
4.231199613438097
4.218890669108104
4.218890669108104
4.218890669108104
4.225045141273086
4.237354085603107
4.225045141273086
4.237354085603107
4.200427252613103
4.1758093639530935
4.237354085603107
4.323516695913104
4.305053279418103
4.280435390758092
4.243508557768089
4.231199613438097
4.2681264464281
4.3173622237481215
4.3112077515831135
4.2865898629231
4.255817502098108
4.3112077515831135
4.323516695913104
4.292744335088111
4.305053279418103
4.305053279418103
4.298898807253093
4.305053279418103
4.341980112408105
4.354289056738125
4.3112077515831135
4.298898807253093
4.366598001068117
4.397370361893111
4.391215889728128
4.37890694539811
4.3727524732331275
4.360443528903107
4.360443528903107
4.366598001068117
4.397370361893111
4.397370361893111
4.348134584573115
4.335825640243124
4.421988250553122
4.465069555708134
4.421988250553122
4.440451667048122
4.508150860863147
4.54507769385315
4.434297194883113
4.489687444368147
4.514305333028129
4.489687444368147
4.471224027873144
4.446606139213133
4.440451667048122
4.458915083543125
4.434297194883113
4.415833778388112
4.434297194883113
4.40352483405812
4.335825640243124
4.385061417563119
4.434297194883113
4.40352483405812
4.385061417563119
4.428142722718132
4.40352483405812
4.3727524732331275
4.3173622237481215
4.243508557768089
4.280435390758092
4.397370361893111
4.489687444368147
4.477378500038126
4.452760611378115
4.428142722718132
4.40352483405812
4.40967930622313
4.40967930622313
4.397370361893111
4.40352483405812
4.40352483405812
4.391215889728128
4.341980112408105
4.323516695913104
4.40352483405812
4.452760611378115
4.415833778388112
4.391215889728128
4.37890694539811
4.348134584573115
4.40352483405812
4.397370361893111
4.366598001068117
4.366598001068117
4.37890694539811
4.354289056738125
4.305053279418103
4.255817502098108
4.2681264464281
4.366598001068117
4.366598001068117
4.348134584573115
4.305053279418103
4.27428091859311
4.27428091859311
4.280435390758092
4.280435390758092
4.292744335088111
4.305053279418103
4.292744335088111
4.298898807253093
4.348134584573115
4.329671168078114
4.335825640243124
4.354289056738125
4.348134584573115
4.341980112408105
4.341980112408105
4.341980112408105
4.335825640243124
4.348134584573115
4.354289056738125
4.348134584573115
4.341980112408105
4.360443528903107
4.37890694539811
4.348134584573115
4.3727524732331275
4.37890694539811
4.37890694539811
4.3727524732331275
4.37890694539811
4.37890694539811
4.3727524732331275
4.37890694539811
4.391215889728128
4.391215889728128
4.385061417563119
4.37890694539811
4.391215889728128
4.385061417563119
4.3727524732331275
4.3727524732331275
4.37890694539811
4.3727524732331275
4.360443528903107
4.366598001068117
4.366598001068117
4.360443528903107
4.366598001068117
4.366598001068117
4.348134584573115
4.329671168078114
4.3112077515831135
4.3112077515831135
4.323516695913104
4.3173622237481215
4.305053279418103
4.305053279418103
4.305053279418103
4.298898807253093
4.305053279418103
4.2865898629231
4.292744335088111
4.292744335088111
4.2865898629231
4.2865898629231
4.2865898629231
4.27428091859311
4.212736196943095
4.298898807253093
4.3173622237481215
4.27428091859311
4.27428091859311
4.3112077515831135
4.329671168078114
4.329671168078114
4.3173622237481215
4.305053279418103
4.298898807253093
4.298898807253093
4.292744335088111
4.3112077515831135
4.3173622237481215
4.323516695913104
4.329671168078114
4.335825640243124
4.329671168078114
4.335825640243124
4.335825640243124
4.329671168078114
4.323516695913104
4.305053279418103
4.2865898629231
4.255817502098108
4.27428091859311
4.27428091859311
4.27428091859311
4.2865898629231
4.298898807253093
4.3112077515831135
4.292744335088111
4.2681264464281
4.27428091859311
4.2681264464281
4.27428091859311
4.280435390758092
4.255817502098108
4.231199613438097
4.2065817247780855
4.2065817247780855
4.1942727804480935
4.200427252613103
4.2065817247780855
4.200427252613103
4.200427252613103
4.1758093639530935
4.1758093639530935
4.181963836118102
4.157345947458091
4.151191475293081
4.157345947458091
4.169654891788083
4.151191475293081
4.145037003128072
4.145037003128072
4.145037003128072
4.138882530963089
4.138882530963089
4.157345947458091
4.151191475293081
4.145037003128072
4.138882530963089
4.1942727804480935
4.225045141273086
4.1758093639530935
4.1758093639530935
4.1942727804480935
4.1942727804480935
4.2065817247780855
4.2065817247780855
4.212736196943095
4.237354085603107
4.249663029933098
4.243508557768089
4.225045141273086
4.218890669108104
4.188118308283084
4.12657358663307
4.0711833371480655
4.021947559828071
3.9604028381780574
3.9911751990030497
4.0465654484880815
4.065028864983084
4.058874392818074
4.0465654484880815
4.052719920653064
4.058874392818074
4.0465654484880815
4.040410976323072
4.040410976323072
4.040410976323072
4.003484143333068
3.9727117825080476
3.948093893848065
3.8496223392080475
3.9111670608580615
3.948093893848065
3.9850207268380675
3.9911751990030497
4.003484143333068
4.009638615498079
4.015793087663061
3.9542483660130467
3.9604028381780574
3.9850207268380675
3.9973296711680604
4.028102031993082
4.034256504158063
4.040410976323072
4.0465654484880815
4.015793087663061
4.003484143333068
4.003484143333068
4.028102031993082
4.021947559828071
4.015793087663061
4.065028864983084
4.0711833371480655
4.028102031993082
3.9727117825080476
4.083492281478085
4.114264642303079
4.0711833371480655
4.040410976323072
4.065028864983084
4.065028864983084
4.114264642303079
4.138882530963089
4.1758093639530935
4.1942727804480935
4.1758093639530935
4.157345947458091
4.1758093639530935
4.188118308283084
4.225045141273086
4.249663029933098
4.237354085603107
4.237354085603107
4.243508557768089
4.237354085603107
4.200427252613103
4.169654891788083
4.1758093639530935
4.1942727804480935
4.1942727804480935
4.1942727804480935
4.1942727804480935
4.1758093639530935
4.1758093639530935
4.169654891788083
4.2065817247780855
4.200427252613103
4.1758093639530935
4.200427252613103
4.2065817247780855
4.200427252613103
4.188118308283084
4.212736196943095
4.237354085603107
4.181963836118102
4.212736196943095
4.231199613438097
4.163500419623101
4.1327280587980795
4.1327280587980795
4.108110170138069
4.120419114468088
4.1327280587980795
4.145037003128072
4.151191475293081
4.120419114468088
4.065028864983084
4.021947559828071
4.0465654484880815
4.077337809313075
4.200427252613103
4.2681264464281
4.2681264464281
4.261971974263091
4.231199613438097
4.218890669108104
4.255817502098108
4.292744335088111
4.348134584573115
4.37890694539811
4.391215889728128
4.348134584573115
4.298898807253093
4.366598001068117
4.40352483405812
4.37890694539811
4.292744335088111
4.2065817247780855
4.261971974263091
4.298898807253093
4.2681264464281
4.243508557768089
4.354289056738125
4.501996388698137
4.514305333028129
4.428142722718132
4.415833778388112
4.37890694539811
4.323516695913104
4.292744335088111
4.27428091859311
4.292744335088111
4.348134584573115
4.27428091859311
4.157345947458091
4.1758093639530935
4.218890669108104
4.200427252613103
4.255817502098108
4.1758093639530935
4.028102031993082
4.040410976323072
4.151191475293081
4.181963836118102
4.2065817247780855
4.292744335088111
4.341980112408105
4.218890669108104
3.9542483660130467
3.9542483660130467
4.163500419623101
4.292744335088111
4.218890669108104
4.249663029933098
4.2681264464281
4.255817502098108
4.212736196943095
4.089646753643067
4.101955697973087
4.052719920653064
3.8803947000330408
3.9604028381780574
4.021947559828071
4.145037003128072
4.1942727804480935
4.151191475293081
4.114264642303079
4.065028864983084
3.9234760051880535
3.7942320897230433
3.788077617558033
3.75115078456803
3.9111670608580615
4.151191475293081
4.083492281478085
3.9973296711680604
3.886549172198051
3.8803947000330408
3.9911751990030497
4.200427252613103
4.015793087663061
3.9850207268380675
3.9850207268380675
3.874240227868059
3.8434678670430373
3.855776811373057
3.8434678670430373
3.8988581165280416
3.948093893848065
3.831158922713046
3.671142646423015
3.640370285598021
3.8126955062180454
3.8619312835380395
3.855776811373057
3.8496223392080475
3.7942320897230433
3.9357849495180455
4.034256504158063
3.9173215330230438
3.8619312835380395
3.9173215330230438
3.8803947000330408
3.8680857557030492
3.874240227868059
3.8927036443630603
3.8496223392080475
3.825004450548036
3.7942320897230433
3.9050125886930522
3.9357849495180455
3.9050125886930522
4.021947559828071
4.034256504158063
3.948093893848065
3.8988581165280416
3.9357849495180455
3.9665573103430654
3.9604028381780574
4.015793087663061
4.021947559828071
3.9234760051880535
3.855776811373057
3.9296304773530633
4.034256504158063
4.003484143333068
4.0465654484880815
3.9973296711680604
3.9665573103430654
3.9604028381780574
3.9788662546730578
3.9173215330230438
3.8803947000330408
3.9234760051880535
3.9850207268380675
4.028102031993082
3.9788662546730578
3.9173215330230438
3.9173215330230438
3.9234760051880535
3.9050125886930522
3.9665573103430654
4.065028864983084
4.015793087663061
4.0465654484880815
4.083492281478085
4.021947559828071
3.9911751990030497
4.040410976323072
4.052719920653064
3.9911751990030497
3.9973296711680604
3.9727117825080476
3.886549172198051
3.8988581165280416
3.9419394216830552
4.015793087663061
4.015793087663061
3.9604028381780574
3.948093893848065
3.9911751990030497
4.095801225808078
4.120419114468088
4.021947559828071
4.009638615498079
4.0465654484880815
4.003484143333068
3.9604028381780574
4.0711833371480655
4.108110170138069
4.095801225808078
4.120419114468088
4.083492281478085
4.114264642303079
4.114264642303079
4.077337809313075
4.12657358663307
4.089646753643067
4.009638615498079
3.9788662546730578
4.052719920653064
4.145037003128072
4.188118308283084
4.163500419623101
4.163500419623101
4.163500419623101
4.181963836118102
4.157345947458091
4.101955697973087
4.181963836118102
4.169654891788083
4.212736196943095
4.27428091859311
4.341980112408105
4.329671168078114
4.305053279418103
4.335825640243124
4.348134584573115
4.329671168078114
4.335825640243124
4.3173622237481215
4.335825640243124
4.329671168078114
4.348134584573115
4.341980112408105
4.37890694539811
4.391215889728128
4.446606139213133
4.501996388698137
4.551232166018132
4.5820045268431535
4.649703720658149
4.5820045268431535
4.501996388698137
4.434297194883113
4.5820045268431535
4.7297118588031655
4.649703720658149
4.618931359833156
4.662012664988168
4.686630553648152
4.68047608148317
4.5820045268431535
4.563541110348153
4.5943134711731455
4.569695582513134
4.637394776328158
4.705093970143154
4.649703720658149
4.551232166018132
4.6004679433381535
4.526614277358149
4.569695582513134
4.625085831998166
4.434297194883113
4.37890694539811
4.458915083543125
4.606622415503137
4.637394776328158
4.526614277358149
4.588158999008135
4.588158999008135
4.520459805193139
4.452760611378115
4.514305333028129
4.526614277358149
4.551232166018132
4.526614277358149
4.54507769385315
4.526614277358149
4.557386638183142
4.625085831998166
4.5327687495231315
4.452760611378115
4.40967930622313
4.465069555708134
4.495841916533128
4.428142722718132
4.335825640243124
4.3173622237481215
4.440451667048122
4.385061417563119
4.329671168078114
4.3112077515831135
4.323516695913104
4.249663029933098
4.237354085603107
4.305053279418103
4.2865898629231
4.2865898629231
4.391215889728128
4.329671168078114
4.261971974263091
4.243508557768089
4.27428091859311
4.292744335088111
4.3173622237481215
4.292744335088111
4.212736196943095
4.237354085603107
4.237354085603107
4.27428091859311
4.335825640243124
4.323516695913104
4.280435390758092
4.231199613438097
4.2065817247780855
4.1942727804480935
4.188118308283084
4.169654891788083
4.157345947458091
4.212736196943095
4.255817502098108
4.225045141273086
4.249663029933098
4.2865898629231
4.163500419623101
4.169654891788083
4.243508557768089
4.255817502098108
4.305053279418103
4.255817502098108
4.249663029933098
4.181963836118102
4.1327280587980795
4.200427252613103
4.249663029933098
4.237354085603107
4.12657358663307
4.1327280587980795
4.188118308283084
4.354289056738125
4.348134584573115
4.292744335088111
4.237354085603107
4.188118308283084
4.200427252613103
4.225045141273086
4.249663029933098
4.2065817247780855
4.181963836118102
4.3173622237481215
4.3727524732331275
4.329671168078114
4.261971974263091
4.261971974263091
4.261971974263091
4.261971974263091
4.231199613438097
4.292744335088111
4.354289056738125
4.415833778388112
4.298898807253093
4.138882530963089
4.323516695913104
4.40967930622313
4.348134584573115
4.397370361893111
4.40352483405812
4.292744335088111
4.261971974263091
4.3727524732331275
4.434297194883113
4.434297194883113
4.354289056738125
4.360443528903107
4.471224027873144
4.452760611378115
4.3173622237481215
4.323516695913104
4.428142722718132
4.514305333028129
4.452760611378115
4.421988250553122
4.557386638183142
4.575850054678144
4.489687444368147
4.458915083543125
4.428142722718132
4.397370361893111
4.354289056738125
4.348134584573115
4.37890694539811
4.483532972203136
4.458915083543125
4.465069555708134
4.495841916533128
4.557386638183142
4.569695582513134
4.501996388698137
4.563541110348153
4.6004679433381535
4.440451667048122
4.360443528903107
4.569695582513134
4.649703720658149
4.5820045268431535
4.520459805193139
4.563541110348153
4.575850054678144
4.495841916533128
4.526614277358149
4.569695582513134
4.452760611378115
4.397370361893111
4.421988250553122
4.5327687495231315
4.662012664988168
4.692785025813162
4.668167137153151
4.705093970143154
4.67432160931816
4.649703720658149
4.772793163958178
4.7297118588031655
4.483532972203136
4.477378500038126
4.625085831998166
4.711248442308165
4.723557386638155
4.655858192823159
4.538923221688139
4.618931359833156
4.748175275298167
4.766638691793168
4.766638691793168
4.760484219628157
4.668167137153151
4.655858192823159
4.668167137153151
4.655858192823159
4.735866330968175
4.797411052618189
4.772793163958178
4.754329747463175
4.822028941278172
4.809719996948181
4.754329747463175
4.760484219628157
4.7912565804531795
4.883573662928187
4.963581801073202
4.883573662928187
4.834337885608192
4.785102108288171
4.7420208031331565
4.828183413443182
4.846646829938185
4.8651102464331855
4.895882607258178
4.809719996948181
4.668167137153151
4.588158999008135
4.692785025813162
4.662012664988168
4.705093970143154
4.7297118588031655
4.760484219628157
4.723557386638155
4.7297118588031655
4.698939497978172
4.612776887668146
4.606622415503137
4.6435492484931675
4.588158999008135
4.606622415503137
4.67432160931816
4.655858192823159
4.631240304163148
4.698939497978172
4.7297118588031655
4.68047608148317
4.6435492484931675
4.67432160931816
4.717402914473173
4.588158999008135
4.54507769385315
4.588158999008135
4.588158999008135
4.526614277358149
4.557386638183142
4.67432160931816
4.67432160931816
4.662012664988168
4.668167137153151
4.686630553648152
4.538923221688139
4.495841916533128
4.538923221688139
4.692785025813162
4.711248442308165
4.551232166018132
4.40967930622313
4.458915083543125
4.569695582513134
4.508150860863147
4.495841916533128
4.612776887668146
4.575850054678144
4.520459805193139
4.557386638183142
4.557386638183142
4.465069555708134
4.348134584573115
4.465069555708134
4.637394776328158
4.6004679433381535
4.495841916533128
4.434297194883113
4.5327687495231315
4.54507769385315
4.40967930622313
4.40352483405812
4.495841916533128
4.557386638183142
4.54507769385315
4.483532972203136
4.446606139213133
4.538923221688139
4.477378500038126
4.465069555708134
4.483532972203136
4.440451667048122
4.397370361893111
4.489687444368147
4.5820045268431535
4.508150860863147
4.508150860863147
4.428142722718132
4.471224027873144
4.551232166018132
4.54507769385315
4.440451667048122
4.471224027873144
4.477378500038126
4.538923221688139
4.557386638183142
4.452760611378115
4.471224027873144
4.465069555708134
4.440451667048122
4.514305333028129
4.489687444368147
4.508150860863147
4.465069555708134
4.465069555708134
4.495841916533128
4.54507769385315
4.557386638183142
4.501996388698137
4.434297194883113
4.366598001068117
4.434297194883113
4.483532972203136
4.54507769385315
4.526614277358149
4.514305333028129
4.489687444368147
4.483532972203136
4.5327687495231315
4.5820045268431535
4.520459805193139
4.428142722718132
4.335825640243124
4.428142722718132
4.588158999008135
4.588158999008135
4.575850054678144
4.569695582513134
4.471224027873144
4.489687444368147
4.538923221688139
4.563541110348153
4.489687444368147
4.37890694539811
4.514305333028129
4.477378500038126
4.458915083543125
4.538923221688139
4.508150860863147
4.477378500038126
4.434297194883113
4.3727524732331275
4.465069555708134
4.520459805193139
4.397370361893111
4.458915083543125
4.557386638183142
4.557386638183142
4.465069555708134
4.415833778388112
4.458915083543125
4.458915083543125
4.421988250553122
4.3727524732331275
4.329671168078114
4.329671168078114
4.397370361893111
4.397370361893111
4.452760611378115
4.483532972203136
4.446606139213133
4.360443528903107
4.305053279418103
4.397370361893111
4.366598001068117
4.385061417563119
4.421988250553122
4.40352483405812
4.477378500038126
4.440451667048122
4.366598001068117
4.354289056738125
4.428142722718132
4.440451667048122
4.40352483405812
4.360443528903107
4.360443528903107
4.385061417563119
4.37890694539811
4.440451667048122
4.520459805193139
4.520459805193139
4.428142722718132
4.3727524732331275
4.397370361893111
4.465069555708134
4.477378500038126
4.471224027873144
4.366598001068117
4.305053279418103
4.40967930622313
4.483532972203136
4.483532972203136
4.397370361893111
4.366598001068117
4.471224027873144
4.452760611378115
4.428142722718132
4.415833778388112
4.557386638183142
4.520459805193139
4.465069555708134
4.452760611378115
4.434297194883113
4.446606139213133
4.495841916533128
4.489687444368147
4.329671168078114
4.323516695913104
4.40352483405812
4.446606139213133
4.458915083543125
4.5327687495231315
4.5327687495231315
4.452760611378115
4.446606139213133
4.483532972203136
4.440451667048122
4.354289056738125
4.446606139213133
4.514305333028129
4.446606139213133
4.440451667048122
4.452760611378115
4.428142722718132
4.391215889728128
4.391215889728128
4.440451667048122
4.397370361893111
4.37890694539811
4.40967930622313
4.483532972203136
4.489687444368147
4.391215889728128
4.421988250553122
4.465069555708134
4.458915083543125
4.446606139213133
4.434297194883113
4.40967930622313
4.40352483405812
4.415833778388112
4.40967930622313
4.366598001068117
4.341980112408105
4.483532972203136
4.477378500038126
4.428142722718132
4.440451667048122
4.440451667048122
4.391215889728128
4.397370361893111
4.428142722718132
4.458915083543125
4.452760611378115
4.385061417563119
4.471224027873144
4.434297194883113
4.415833778388112
4.415833778388112
4.40967930622313
4.37890694539811
4.323516695913104
4.348134584573115
4.397370361893111
4.415833778388112
4.458915083543125
4.397370361893111
4.341980112408105
4.397370361893111
4.40967930622313
4.434297194883113
4.415833778388112
4.40967930622313
4.428142722718132
4.391215889728128
4.391215889728128
4.329671168078114
4.27428091859311
4.385061417563119
4.415833778388112
4.385061417563119
4.385061417563119
4.434297194883113
4.434297194883113
4.391215889728128
4.37890694539811
4.421988250553122
4.421988250553122
4.3727524732331275
4.366598001068117
4.452760611378115
4.428142722718132
4.434297194883113
4.360443528903107
4.366598001068117
4.37890694539811
4.428142722718132
4.471224027873144
4.446606139213133
4.40352483405812
4.3727524732331275
4.354289056738125
4.37890694539811
4.341980112408105
4.415833778388112
4.421988250553122
4.397370361893111
4.434297194883113
4.471224027873144
4.434297194883113
4.385061417563119
4.335825640243124
4.298898807253093
4.329671168078114
4.40352483405812
4.354289056738125
4.335825640243124
4.341980112408105
4.434297194883113
4.440451667048122
4.421988250553122
4.385061417563119
4.397370361893111
4.323516695913104
4.341980112408105
4.434297194883113
4.428142722718132
4.360443528903107
4.366598001068117
4.360443528903107
4.341980112408105
4.40352483405812
4.440451667048122
4.360443528903107
4.366598001068117
4.434297194883113
4.40352483405812
4.397370361893111
4.421988250553122
4.434297194883113
4.397370361893111
4.391215889728128
4.360443528903107
4.366598001068117
4.37890694539811
4.329671168078114
4.360443528903107
4.391215889728128
4.471224027873144
4.452760611378115
4.360443528903107
4.3173622237481215
4.37890694539811
4.421988250553122
4.348134584573115
4.305053279418103
4.2865898629231
4.298898807253093
4.329671168078114
4.366598001068117
4.391215889728128
4.305053279418103
4.298898807253093
4.40352483405812
4.40352483405812
4.40352483405812
4.3173622237481215
4.2865898629231
4.335825640243124
4.421988250553122
4.471224027873144
4.348134584573115
4.3173622237481215
4.305053279418103
4.335825640243124
4.3173622237481215
4.3112077515831135
4.335825640243124
4.323516695913104
4.2865898629231
4.298898807253093
4.298898807253093
4.354289056738125
4.360443528903107
4.341980112408105
4.385061417563119
4.397370361893111
4.335825640243124
4.305053279418103
4.280435390758092
4.329671168078114
4.3727524732331275
4.366598001068117
4.354289056738125
4.305053279418103
4.323516695913104
4.292744335088111
4.255817502098108
4.323516695913104
4.397370361893111
4.329671168078114
4.298898807253093
4.385061417563119
4.440451667048122
4.366598001068117
4.249663029933098
4.335825640243124
4.40352483405812
4.348134584573115
4.305053279418103
4.354289056738125
4.3727524732331275
4.360443528903107
4.354289056738125
4.292744335088111
4.305053279418103
4.3112077515831135
4.3727524732331275
4.40967930622313
4.37890694539811
4.3173622237481215
4.3112077515831135
4.360443528903107
4.3727524732331275
4.249663029933098
4.231199613438097
4.348134584573115
4.421988250553122
4.323516695913104
4.323516695913104
4.385061417563119
4.348134584573115
4.292744335088111
4.237354085603107
4.298898807253093
4.391215889728128
4.3727524732331275
4.298898807253093
4.3173622237481215
4.335825640243124
4.341980112408105
4.3173622237481215
4.335825640243124
4.366598001068117
4.348134584573115
4.3173622237481215
4.3112077515831135
4.3727524732331275
4.341980112408105
4.305053279418103
4.292744335088111
4.231199613438097
4.292744335088111
4.415833778388112
4.391215889728128
4.298898807253093
4.335825640243124
4.37890694539811
4.366598001068117
4.249663029933098
4.2681264464281
4.348134584573115
4.3112077515831135
4.2865898629231
4.329671168078114
4.335825640243124
4.3173622237481215
4.329671168078114
4.298898807253093
4.261971974263091
4.2681264464281
4.3112077515831135
4.305053279418103
4.2681264464281
4.255817502098108
4.280435390758092
4.360443528903107
4.348134584573115
4.255817502098108
4.323516695913104
4.341980112408105
4.329671168078114
4.3173622237481215
4.255817502098108
4.2065817247780855
4.255817502098108
4.280435390758092
4.2681264464281
4.341980112408105
4.354289056738125
4.329671168078114
4.298898807253093
4.249663029933098
4.249663029933098
4.323516695913104
4.329671168078114
4.27428091859311
4.305053279418103
4.27428091859311
4.354289056738125
4.3173622237481215
4.298898807253093
4.37890694539811
4.360443528903107
4.255817502098108
4.255817502098108
4.305053279418103
4.305053279418103
4.2865898629231
4.2865898629231
4.2865898629231
4.200427252613103
4.3112077515831135
4.415833778388112
4.360443528903107
4.348134584573115
4.329671168078114
4.3112077515831135
4.3112077515831135
4.255817502098108
4.2681264464281
4.341980112408105
4.354289056738125
4.354289056738125
4.341980112408105
4.354289056738125
4.428142722718132
4.428142722718132
4.354289056738125
4.3112077515831135
4.366598001068117
4.329671168078114
4.348134584573115
4.329671168078114
4.335825640243124
4.415833778388112
4.421988250553122
4.3727524732331275
4.2681264464281
4.225045141273086
4.3112077515831135
4.397370361893111
4.385061417563119
4.360443528903107
4.385061417563119
4.341980112408105
4.3173622237481215
4.428142722718132
4.440451667048122
4.397370361893111
4.366598001068117
4.354289056738125
4.354289056738125
4.329671168078114
4.298898807253093
4.2681264464281
4.329671168078114
4.366598001068117
4.366598001068117
4.341980112408105
4.292744335088111
4.292744335088111
4.348134584573115
4.323516695913104
4.305053279418103
4.3173622237481215
4.27428091859311
4.231199613438097
4.292744335088111
4.341980112408105
4.3112077515831135
4.298898807253093
4.341980112408105
4.292744335088111
4.280435390758092
4.3112077515831135
4.3112077515831135
4.3173622237481215
4.280435390758092
4.280435390758092
4.2681264464281
4.305053279418103
4.3112077515831135
4.348134584573115
4.292744335088111
4.27428091859311
4.360443528903107
4.335825640243124
4.3112077515831135
4.292744335088111
4.292744335088111
4.280435390758092
4.255817502098108
4.37890694539811
4.428142722718132
4.397370361893111
4.360443528903107
4.298898807253093
4.2681264464281
4.298898807253093
4.249663029933098
4.27428091859311
4.348134584573115
4.366598001068117
4.360443528903107
4.329671168078114
4.341980112408105
4.323516695913104
4.335825640243124
4.3112077515831135
4.261971974263091
4.255817502098108
4.298898807253093
4.305053279418103
4.249663029933098
4.37890694539811
4.391215889728128
4.341980112408105
4.249663029933098
4.243508557768089
4.181963836118102
4.2681264464281
4.2865898629231
4.2681264464281
4.261971974263091
4.2065817247780855
4.1942727804480935
4.3112077515831135
4.329671168078114
4.348134584573115
4.305053279418103
4.2681264464281
4.261971974263091
4.218890669108104
4.249663029933098
4.292744335088111
4.348134584573115
4.341980112408105
4.231199613438097
4.212736196943095
4.261971974263091
4.280435390758092
4.3173622237481215
4.255817502098108
4.1942727804480935
4.2681264464281
4.335825640243124
4.354289056738125
4.2865898629231
4.255817502098108
4.3173622237481215
4.292744335088111
4.27428091859311
4.292744335088111
4.298898807253093
4.305053279418103
4.298898807253093
4.261971974263091
4.1942727804480935
4.2065817247780855
4.280435390758092
4.225045141273086
4.218890669108104
4.225045141273086
4.292744335088111
4.335825640243124
4.280435390758092
4.261971974263091
4.292744335088111
4.218890669108104
4.1758093639530935
4.212736196943095
4.261971974263091
4.2865898629231
4.2865898629231
4.243508557768089
4.2681264464281
4.225045141273086
4.2065817247780855
4.3112077515831135
4.329671168078114
4.218890669108104
4.120419114468088
4.120419114468088
4.255817502098108
4.329671168078114
4.323516695913104
4.335825640243124
4.27428091859311
4.231199613438097
4.27428091859311
4.2681264464281
4.305053279418103
4.341980112408105
4.292744335088111
4.27428091859311
4.280435390758092
4.2681264464281
4.27428091859311
4.2865898629231
4.261971974263091
4.2681264464281
4.231199613438097
4.237354085603107
4.237354085603107
4.1942727804480935
4.243508557768089
4.2865898629231
4.218890669108104
4.2681264464281
4.385061417563119
4.37890694539811
4.3173622237481215
4.292744335088111
4.231199613438097
4.2065817247780855
4.2681264464281
4.298898807253093
4.280435390758092
4.1942727804480935
4.237354085603107
4.3173622237481215
4.2681264464281
4.1942727804480935
4.292744335088111
4.348134584573115
4.335825640243124
4.298898807253093
4.3112077515831135
4.329671168078114
4.298898807253093
4.237354085603107
4.249663029933098
4.348134584573115
4.341980112408105
4.255817502098108
4.237354085603107
4.3727524732331275
4.348134584573115
4.298898807253093
4.2865898629231
4.27428091859311
4.1758093639530935
4.237354085603107
4.354289056738125
4.27428091859311
4.261971974263091
4.3112077515831135
4.360443528903107
4.341980112408105
4.298898807253093
4.305053279418103
4.2865898629231
4.218890669108104
4.2065817247780855
4.212736196943095
4.249663029933098
4.292744335088111
4.249663029933098
4.280435390758092
4.280435390758092
4.212736196943095
4.249663029933098
4.212736196943095
4.163500419623101
4.169654891788083
4.200427252613103
4.2865898629231
4.305053279418103
4.27428091859311
4.261971974263091
4.249663029933098
4.231199613438097
4.1942727804480935
4.237354085603107
4.255817502098108
4.231199613438097
4.2065817247780855
4.243508557768089
4.292744335088111
4.249663029933098
4.212736196943095
4.1942727804480935
4.243508557768089
4.2681264464281
4.212736196943095
4.157345947458091
4.157345947458091
4.218890669108104
4.261971974263091
4.323516695913104
4.335825640243124
4.243508557768089
4.2065817247780855
4.2065817247780855
4.243508557768089
4.2681264464281
4.2065817247780855
4.163500419623101
4.243508557768089
4.3173622237481215
4.2681264464281
4.218890669108104
4.225045141273086
4.237354085603107
4.225045141273086
4.200427252613103
4.292744335088111
4.292744335088111
4.237354085603107
4.1942727804480935
4.181963836118102
4.2681264464281
4.237354085603107
4.249663029933098
4.305053279418103
4.231199613438097
4.2681264464281
4.323516695913104
4.243508557768089
4.218890669108104
4.3112077515831135
4.323516695913104
4.2865898629231
4.243508557768089
4.280435390758092
4.2681264464281
4.237354085603107
4.27428091859311
4.2681264464281
4.225045141273086
4.225045141273086
4.231199613438097
4.200427252613103
4.261971974263091
4.305053279418103
4.27428091859311
4.231199613438097
4.255817502098108
4.27428091859311
4.305053279418103
4.305053279418103
4.280435390758092
4.305053279418103
4.354289056738125
4.280435390758092
4.200427252613103
4.249663029933098
4.3173622237481215
4.292744335088111
4.335825640243124
4.341980112408105
4.261971974263091
4.218890669108104
4.280435390758092
4.323516695913104
4.261971974263091
4.255817502098108
4.27428091859311
4.261971974263091
4.249663029933098
4.2681264464281
4.2865898629231
4.249663029933098
4.169654891788083
4.243508557768089
4.27428091859311
4.231199613438097
4.225045141273086
4.261971974263091
4.231199613438097
4.231199613438097
4.261971974263091
4.2865898629231
4.27428091859311
4.249663029933098
4.261971974263091
4.2865898629231
4.3112077515831135
4.298898807253093
4.280435390758092
4.237354085603107
4.1942727804480935
4.231199613438097
4.243508557768089
4.237354085603107
4.231199613438097
4.249663029933098
4.237354085603107
4.2065817247780855
4.200427252613103
4.231199613438097
4.323516695913104
4.360443528903107
4.360443528903107
4.348134584573115
4.255817502098108
4.212736196943095
4.261971974263091
4.2681264464281
4.218890669108104
4.200427252613103
4.255817502098108
4.335825640243124
4.323516695913104
4.292744335088111
4.292744335088111
4.298898807253093
4.298898807253093
4.2865898629231
4.305053279418103
4.298898807253093
4.249663029933098
4.255817502098108
4.280435390758092
4.249663029933098
4.280435390758092
4.335825640243124
4.305053279418103
4.27428091859311
4.2681264464281
4.305053279418103
4.323516695913104
4.335825640243124
4.348134584573115
4.3112077515831135
4.298898807253093
4.255817502098108
4.255817502098108
4.2865898629231
4.329671168078114
4.341980112408105
4.348134584573115
4.329671168078114
4.305053279418103
4.237354085603107
4.27428091859311
4.3112077515831135
4.366598001068117
4.385061417563119
4.360443528903107
4.2681264464281
4.292744335088111
4.329671168078114
4.354289056738125
4.366598001068117
4.360443528903107
4.354289056738125
4.3173622237481215
4.298898807253093
4.3112077515831135
4.341980112408105
4.348134584573115
4.341980112408105
4.298898807253093
4.237354085603107
4.218890669108104
4.261971974263091
4.261971974263091
4.2865898629231
4.292744335088111
4.323516695913104
4.341980112408105
4.2865898629231
4.212736196943095
4.237354085603107
4.3112077515831135
4.292744335088111
4.237354085603107
4.2681264464281
4.243508557768089
4.181963836118102
4.212736196943095
4.298898807253093
4.3112077515831135
4.335825640243124
4.323516695913104
4.255817502098108
4.1942727804480935
4.200427252613103
4.27428091859311
4.37890694539811
4.354289056738125
4.27428091859311
4.2865898629231
4.280435390758092
4.181963836118102
4.2065817247780855
4.237354085603107
4.237354085603107
4.212736196943095
4.225045141273086
4.280435390758092
4.280435390758092
4.249663029933098
4.2681264464281
4.27428091859311
4.27428091859311
4.3112077515831135
4.305053279418103
4.2865898629231
4.27428091859311
4.249663029933098
4.225045141273086
4.2681264464281
4.2865898629231
4.2865898629231
4.261971974263091
4.243508557768089
4.280435390758092
4.280435390758092
4.305053279418103
4.292744335088111
4.243508557768089
4.243508557768089
4.2681264464281
4.305053279418103
4.280435390758092
4.237354085603107
4.225045141273086
4.255817502098108
4.2865898629231
4.323516695913104
4.3112077515831135
4.2681264464281
4.218890669108104
4.1942727804480935
4.218890669108104
4.2681264464281
4.298898807253093
4.323516695913104
4.27428091859311
4.212736196943095
4.2065817247780855
4.225045141273086
4.255817502098108
4.3173622237481215
4.341980112408105
4.27428091859311
4.243508557768089
4.237354085603107
4.218890669108104
4.200427252613103
4.231199613438097
4.298898807253093
4.298898807253093
4.261971974263091
4.231199613438097
4.2681264464281
4.3173622237481215
4.354289056738125
4.305053279418103
4.2865898629231
4.305053279418103
4.292744335088111
4.280435390758092
4.280435390758092
4.225045141273086
4.27428091859311
4.40352483405812
4.335825640243124
4.243508557768089
4.218890669108104
4.188118308283084
4.212736196943095
4.255817502098108
4.225045141273086
4.169654891788083
4.225045141273086
4.292744335088111
4.243508557768089
4.237354085603107
4.2681264464281
4.2681264464281
4.2681264464281
4.261971974263091
4.218890669108104
4.255817502098108
4.2865898629231
4.243508557768089
4.218890669108104
4.298898807253093
4.305053279418103
4.255817502098108
4.243508557768089
4.212736196943095
4.2065817247780855
4.225045141273086
4.1942727804480935
4.200427252613103
4.225045141273086
4.212736196943095
4.225045141273086
4.237354085603107
4.2681264464281
4.3173622237481215
4.298898807253093
4.2681264464281
4.225045141273086
4.2681264464281
4.323516695913104
4.3112077515831135
4.2865898629231
4.225045141273086
4.1758093639530935
4.237354085603107
4.255817502098108
4.27428091859311
4.243508557768089
4.305053279418103
4.305053279418103
4.249663029933098
4.1758093639530935
4.188118308283084
4.2865898629231
4.255817502098108
4.237354085603107
4.305053279418103
4.323516695913104
4.27428091859311
4.27428091859311
4.305053279418103
4.2681264464281
4.261971974263091
4.237354085603107
4.169654891788083
4.1327280587980795
4.2865898629231
4.348134584573115
4.280435390758092
4.225045141273086
4.305053279418103
4.3173622237481215
4.2681264464281
4.1942727804480935
4.298898807253093
4.397370361893111
4.341980112408105
4.3112077515831135
4.3173622237481215
4.237354085603107
4.225045141273086
4.292744335088111
4.335825640243124
4.323516695913104
4.366598001068117
4.385061417563119
4.354289056738125
4.354289056738125
4.329671168078114
4.280435390758092
4.2681264464281
4.243508557768089
4.237354085603107
4.3112077515831135
4.298898807253093
4.280435390758092
4.292744335088111
4.231199613438097
4.2865898629231
4.354289056738125
4.3112077515831135
4.27428091859311
4.243508557768089
4.249663029933098
4.249663029933098
4.243508557768089
4.231199613438097
4.114264642303079
4.181963836118102
4.3173622237481215
4.3112077515831135
4.323516695913104
4.2681264464281
4.243508557768089
4.212736196943095
4.2065817247780855
4.280435390758092
4.237354085603107
4.200427252613103
4.249663029933098
4.280435390758092
4.2865898629231
4.261971974263091
4.218890669108104
4.181963836118102
4.237354085603107
4.298898807253093
4.27428091859311
4.249663029933098
4.2065817247780855
4.181963836118102
4.225045141273086
4.292744335088111
4.329671168078114
4.261971974263091
4.27428091859311
4.27428091859311
4.218890669108104
4.181963836118102
4.237354085603107
4.280435390758092
4.3173622237481215
4.280435390758092
4.27428091859311
4.231199613438097
4.225045141273086
4.243508557768089
4.237354085603107
4.225045141273086
4.249663029933098
4.298898807253093
4.3112077515831135
4.3112077515831135
4.27428091859311
4.255817502098108
4.280435390758092
4.27428091859311
4.225045141273086
4.225045141273086
4.255817502098108
4.292744335088111
4.2865898629231
4.249663029933098
4.231199613438097
4.243508557768089
4.249663029933098
4.261971974263091
4.292744335088111
4.225045141273086
4.2065817247780855
4.329671168078114
4.3173622237481215
4.280435390758092
4.280435390758092
4.280435390758092
4.225045141273086
4.188118308283084
4.2681264464281
4.27428091859311
4.249663029933098
4.218890669108104
4.249663029933098
4.341980112408105
4.348134584573115
4.2865898629231
4.237354085603107
4.305053279418103
4.348134584573115
4.3112077515831135
4.3173622237481215
4.329671168078114
4.237354085603107
4.225045141273086
4.292744335088111
4.354289056738125
4.341980112408105
4.305053279418103
4.261971974263091
4.231199613438097
4.2065817247780855
4.200427252613103
4.255817502098108
4.2865898629231
4.255817502098108
4.2065817247780855
4.2865898629231
4.335825640243124
4.261971974263091
4.212736196943095
4.27428091859311
4.3112077515831135
4.249663029933098
4.212736196943095
4.225045141273086
4.27428091859311
4.329671168078114
4.3173622237481215
4.3112077515831135
4.280435390758092
4.163500419623101
4.1942727804480935
4.2065817247780855
4.145037003128072
4.151191475293081
4.261971974263091
4.3112077515831135
4.329671168078114
4.323516695913104
4.3112077515831135
4.280435390758092
4.225045141273086
4.188118308283084
4.27428091859311
4.360443528903107
4.323516695913104
4.305053279418103
4.255817502098108
4.200427252613103
4.1758093639530935
4.163500419623101
4.218890669108104
4.261971974263091
4.2865898629231
4.298898807253093
4.280435390758092
4.243508557768089
4.341980112408105
4.354289056738125
4.3173622237481215
4.341980112408105
4.348134584573115
4.335825640243124
4.354289056738125
4.329671168078114
4.3112077515831135
4.354289056738125
4.255817502098108
4.280435390758092
4.366598001068117
4.366598001068117
4.385061417563119
4.40967930622313
4.348134584573115
4.2865898629231
4.261971974263091
4.3727524732331275
4.440451667048122
4.366598001068117
4.2865898629231
4.280435390758092
4.391215889728128
4.440451667048122
4.415833778388112
4.360443528903107
4.348134584573115
4.354289056738125
4.385061417563119
4.3727524732331275
4.341980112408105
4.323516695913104
4.3727524732331275
4.40967930622313
4.360443528903107
4.40967930622313
4.465069555708134
4.421988250553122
4.40967930622313
4.415833778388112
4.40352483405812
4.37890694539811
4.261971974263091
4.188118308283084
4.385061417563119
4.360443528903107
4.335825640243124
4.335825640243124
4.329671168078114
4.366598001068117
4.335825640243124
4.3112077515831135
4.249663029933098
4.280435390758092
4.3173622237481215
4.323516695913104
4.348134584573115
4.360443528903107
4.335825640243124
4.27428091859311
4.255817502098108
4.2681264464281
4.40352483405812
4.354289056738125
4.292744335088111
4.385061417563119
4.421988250553122
4.385061417563119
4.2865898629231
4.231199613438097
4.237354085603107
4.298898807253093
4.329671168078114
4.354289056738125
4.3727524732331275
4.341980112408105
4.27428091859311
4.2865898629231
4.305053279418103
4.27428091859311
4.323516695913104
4.397370361893111
4.354289056738125
4.3112077515831135
4.3112077515831135
4.323516695913104
4.354289056738125
4.391215889728128
4.366598001068117
4.305053279418103
4.3173622237481215
4.323516695913104
4.323516695913104
4.292744335088111
4.27428091859311
4.2681264464281
4.335825640243124
4.37890694539811
4.354289056738125
4.341980112408105
4.360443528903107
4.360443528903107
4.243508557768089
4.237354085603107
4.3173622237481215
4.385061417563119
4.354289056738125
4.3173622237481215
4.348134584573115
4.354289056738125
4.3173622237481215
4.3173622237481215
4.3173622237481215
4.3173622237481215
4.323516695913104
4.335825640243124
4.329671168078114
4.261971974263091
4.298898807253093
4.385061417563119
4.323516695913104
4.3112077515831135
4.391215889728128
4.3112077515831135
4.298898807253093
4.348134584573115
4.335825640243124
4.335825640243124
4.292744335088111
4.305053279418103
4.329671168078114
4.261971974263091
4.2865898629231
4.40967930622313
4.335825640243124
4.298898807253093
4.366598001068117
4.366598001068117
4.335825640243124
4.298898807253093
4.280435390758092
4.280435390758092
4.341980112408105
4.329671168078114
4.249663029933098
4.237354085603107
4.292744335088111
4.298898807253093
4.3112077515831135
4.305053279418103
4.305053279418103
4.292744335088111
4.255817502098108
4.157345947458091
4.218890669108104
4.27428091859311
4.27428091859311
4.292744335088111
4.261971974263091
4.212736196943095
4.2065817247780855
4.231199613438097
4.27428091859311
4.323516695913104
4.305053279418103
4.12657358663307
4.2681264464281
4.298898807253093
4.249663029933098
4.218890669108104
4.218890669108104
4.218890669108104
4.1758093639530935
4.200427252613103
4.181963836118102
4.188118308283084
4.261971974263091
4.3173622237481215
4.2865898629231
4.243508557768089
4.2065817247780855
4.231199613438097
4.292744335088111
4.261971974263091
4.218890669108104
4.218890669108104
4.255817502098108
4.249663029933098
4.225045141273086
4.249663029933098
4.292744335088111
4.249663029933098
4.200427252613103
4.2065817247780855
4.261971974263091
4.249663029933098
4.188118308283084
4.243508557768089
4.3112077515831135
4.292744335088111
4.2865898629231
4.255817502098108
4.237354085603107
4.231199613438097
4.243508557768089
4.237354085603107
4.249663029933098
4.292744335088111
4.280435390758092
4.255817502098108
4.27428091859311
4.237354085603107
4.212736196943095
4.261971974263091
4.2681264464281
4.2865898629231
4.298898807253093
4.249663029933098
4.27428091859311
4.249663029933098
4.280435390758092
4.341980112408105
4.360443528903107
4.298898807253093
4.2865898629231
4.298898807253093
4.3112077515831135
4.255817502098108
4.280435390758092
4.2865898629231
4.243508557768089
4.280435390758092
4.3173622237481215
4.335825640243124
4.348134584573115
4.354289056738125
4.335825640243124
4.298898807253093
4.292744335088111
4.280435390758092
4.243508557768089
4.305053279418103
4.360443528903107
4.323516695913104
4.2681264464281
4.261971974263091
4.255817502098108
4.249663029933098
4.1942727804480935
4.188118308283084
4.249663029933098
4.27428091859311
4.27428091859311
4.231199613438097
4.243508557768089
4.243508557768089
4.200427252613103
4.231199613438097
4.2865898629231
4.280435390758092
4.212736196943095
4.181963836118102
4.169654891788083
4.151191475293081
4.27428091859311
4.3112077515831135
4.298898807253093
4.27428091859311
4.255817502098108
4.261971974263091
4.255817502098108
4.243508557768089
4.249663029933098
4.2681264464281
4.237354085603107
4.2065817247780855
4.218890669108104
4.249663029933098
4.27428091859311
4.27428091859311
4.181963836118102
4.218890669108104
4.280435390758092
4.218890669108104
4.1942727804480935
4.2681264464281
4.261971974263091
4.225045141273086
4.3112077515831135
4.2865898629231
4.243508557768089
4.237354085603107
4.249663029933098
4.2681264464281
4.255817502098108
4.181963836118102
4.1942727804480935
4.1942727804480935
4.200427252613103
4.2065817247780855
4.200427252613103
4.2681264464281
4.292744335088111
4.2681264464281
4.218890669108104
4.200427252613103
4.243508557768089
4.2681264464281
4.261971974263091
4.255817502098108
4.169654891788083
4.169654891788083
4.255817502098108
4.280435390758092
4.261971974263091
4.243508557768089
4.218890669108104
4.1758093639530935
4.1758093639530935
4.280435390758092
4.354289056738125
4.3112077515831135
4.292744335088111
4.292744335088111
4.261971974263091
4.243508557768089
4.231199613438097
4.212736196943095
4.1942727804480935
4.2065817247780855
4.249663029933098
4.3112077515831135
4.341980112408105
4.341980112408105
4.27428091859311
4.1942727804480935
4.237354085603107
4.335825640243124
4.3727524732331275
4.329671168078114
4.2865898629231
4.2865898629231
4.335825640243124
4.323516695913104
4.298898807253093
4.329671168078114
