4.114264642303079
4.114264642303079
4.108110170138069
4.114264642303079
4.108110170138069
4.120419114468088
4.120419114468088
4.114264642303079
4.095801225808078
4.058874392818074
4.077337809313075
4.095801225808078
4.108110170138069
4.120419114468088
4.12657358663307
4.114264642303079
4.12657358663307
4.120419114468088
4.12657358663307
4.1327280587980795
4.12657358663307
4.1327280587980795
4.1327280587980795
4.138882530963089
4.145037003128072
4.145037003128072
4.145037003128072
4.163500419623101
4.163500419623101
4.151191475293081
4.163500419623101
4.181963836118102
4.188118308283084
4.1758093639530935
4.181963836118102
4.1758093639530935
4.1758093639530935
4.1758093639530935
4.188118308283084
4.181963836118102
4.188118308283084
4.1758093639530935
4.157345947458091
4.163500419623101
4.163500419623101
4.157345947458091
4.157345947458091
4.163500419623101
4.169654891788083
4.157345947458091
4.151191475293081
4.151191475293081
4.157345947458091
4.163500419623101
4.163500419623101
4.163500419623101
4.169654891788083
4.157345947458091
4.169654891788083
4.163500419623101
4.163500419623101
4.188118308283084
4.2065817247780855
4.200427252613103
4.1942727804480935
4.188118308283084
4.1758093639530935
4.145037003128072
4.114264642303079
4.108110170138069
4.095801225808078
4.114264642303079
4.1327280587980795
4.151191475293081
4.151191475293081
4.151191475293081
4.157345947458091
4.151191475293081
4.145037003128072
4.145037003128072
4.138882530963089
4.145037003128072
4.138882530963089
4.145037003128072
4.138882530963089
4.138882530963089
4.138882530963089
4.151191475293081
4.145037003128072
4.151191475293081
4.157345947458091
4.157345947458091
4.157345947458091
4.151191475293081
4.157345947458091
4.145037003128072
4.145037003128072
4.145037003128072
4.151191475293081
4.157345947458091
4.157345947458091
4.163500419623101
4.157345947458091
4.151191475293081
4.095801225808078
4.151191475293081
4.163500419623101
4.169654891788083
4.169654891788083
4.163500419623101
4.1758093639530935
4.163500419623101
4.138882530963089
4.151191475293081
4.181963836118102
4.1758093639530935
4.1758093639530935
4.188118308283084
4.1942727804480935
4.1942727804480935
4.1942727804480935
4.200427252613103
4.2065817247780855
4.2065817247780855
4.2065817247780855
4.200427252613103
4.200427252613103
4.2065817247780855
4.200427252613103
4.2065817247780855
4.2065817247780855
4.169654891788083
4.231199613438097
4.231199613438097
4.200427252613103
4.157345947458091
4.12657358663307
4.145037003128072
4.145037003128072
4.151191475293081
4.138882530963089
4.12657358663307
4.138882530963089
4.151191475293081
4.163500419623101
4.169654891788083
4.169654891788083
4.163500419623101
4.181963836118102
4.237354085603107
4.2865898629231
4.360443528903107
4.495841916533128
4.569695582513134
4.68047608148317
4.785102108288171
4.883573662928187
5.0743623000432105
5.357468019633243
5.542102184583286
5.73904529386332
5.806744487678317
5.782126599018307
5.911370514483344
6.619134813458466
7.782330052643643
8.693191933063781
12.441265481549307
16.82940413519493
17.795656265100046
17.580249739325037
17.370997685714983
17.161745632104957
16.94018463416494
16.737087052719897
16.546298415604866
16.37397319498485
16.183184557869826
16.0108593372498
15.83237964446477
15.647745479514752
15.463111314564737
15.198469011469681
13.37059077846442
9.554818036163898
7.166882836143556
5.800590015513308
4.883573662928187
4.212736196943095
3.7142239515780275
3.3141832608529764
3.018768596932925
2.7848986546628876
2.581801073217871
2.4156303247628297
2.2802319371328093
2.1694514381628007
2.064825411357801
1.990971745377768
1.9294270237277809
1.8740367742427766
1.830955469087764
1.8001831082627426
1.7817196917677414
1.7632562752727399
1.7386383866127564
1.7324839144477464
1.7324839144477464
1.7324839144477464
1.7324839144477464
1.7386383866127564
1.7386383866127564
1.757101803107758
1.7694107474377496
1.7755652196027594
1.7878741639327511
1.8124920525927626
1.830955469087764
1.855573357747775
1.861727829912757
1.8740367742427766
1.8863457185727683
1.9048091350677696
1.9232725515627715
1.9355814958927628
1.9417359680577726
1.972508328882766
1.9786628010477763
1.990971745377768
2.009435161872797
2.0278985783677985
2.0586709391927913
2.0709798835227837
2.1017522443478045
2.1079067165127863
2.1263701330077875
2.150988021667799
2.1694514381628007
2.187914854657802
2.2186872154828228
2.2371506319778245
2.2679229928028177
2.2925408814628288
2.323313242287822
2.360240075277825
2.372549019607845
2.4156303247628297
2.4217847969278394
2.4279392690928487
2.446402685587851
2.434093741257831
2.4156303247628297
2.409475852597848
2.372549019607845
2.483329518577854
2.526410823732866
2.5325652958978484
2.55102871239285
2.575646601052861
2.587955545382853
2.587955545382853
2.575646601052861
2.6002644897128726
2.631036850537866
2.6433457948678853
2.667963683527869
2.68642710002287
2.6987360443528896
2.7171994608478913
2.735662877342893
2.7418173495078744
2.754126293837894
2.778744182497905
2.7910531268278973
2.8156710154879088
2.8218254876528905
2.8402889041478923
2.858752320642893
2.883370209302905
2.8895246814679143
2.907988097962916
2.9202970422929075
2.9387604587879093
2.9572238752829105
2.96953281961293
2.9818417639429216
2.9879962361079313
3.0126141247679152
3.0372320134279267
3.055695429922928
3.0680043742529195
3.080313318582939
3.0864677907479487
3.0987767350779407
3.1233946237379517
3.141858040232953
3.160321456727955
3.1726304010579467
3.1849393453879378
3.2095572340479492
3.215711706212959
3.234175122707961
3.2526385392029624
3.258793011367972
3.271101955697964
3.283410900027955
3.301874316522957
3.3203377330179586
3.3388011495129604
3.35111009384298
3.357264566007961
3.3695735103379807
3.381882454667973
3.381882454667973
3.394191398997992
3.394191398997992
3.381882454667973
3.400345871162974
3.4126548154929934
3.424963759822985
3.418809287657976
3.4126548154929934
3.418809287657976
3.4311182319879947
3.424963759822985
3.424963759822985
3.4434271763179867
3.4434271763179867
3.449581648482997
3.461890592812989
3.4741995371429804
3.48035400930799
3.4926629536379816
3.486508481473
3.4926629536379816
3.511126370132983
3.5234353144630024
3.5357442587929944
3.5357442587929944
3.541898730958004
3.554207675287996
3.572671091782997
3.5849800361130173
3.578825563948007
3.5972889804430093
3.61575239693801
3.628061341268002
3.628061341268002
3.634215813433012
3.640370285598021
3.6465247577630033
3.658833702093023
3.6649881742580046
3.677297118588024
3.677297118588024
3.6834515907530063
3.6896060629180156
3.6896060629180156
3.695760535083026
3.701915007248036
3.7080694794130173
3.7142239515780275
3.720378423743037
3.7142239515780275
3.732687368073029
3.732687368073029
3.738841840238039
3.75730525673304
3.763459728898022
3.7696142010630322
3.7696142010630322
3.781923145393024
3.788077617558033
3.7942320897230433
3.800386561888025
3.75115078456803
3.8126955062180454
3.825004450548036
3.8126955062180454
3.7942320897230433
3.8188499783830263
3.825004450548036
3.831158922713046
3.8434678670430373
3.8496223392080475
3.855776811373057
3.8496223392080475
3.8680857557030492
3.874240227868059
3.874240227868059
3.874240227868059
3.8927036443630603
3.8927036443630603
3.8927036443630603
3.8988581165280416
3.9173215330230438
3.9234760051880535
3.9234760051880535
3.9357849495180455
3.9357849495180455
3.948093893848065
3.948093893848065
3.9419394216830552
3.9604028381780574
3.9727117825080476
3.9727117825080476
3.9665573103430654
3.9665573103430654
3.9604028381780574
3.9542483660130467
3.948093893848065
3.9542483660130467
3.9419394216830552
3.9542483660130467
3.9788662546730578
3.9850207268380675
3.9850207268380675
3.9665573103430654
3.874240227868059
3.9357849495180455
3.9911751990030497
4.009638615498079
4.040410976323072
4.058874392818074
4.058874392818074
4.040410976323072
4.021947559828071
4.034256504158063
4.034256504158063
4.028102031993082
4.021947559828071
4.003484143333068
3.9727117825080476
3.9419394216830552
3.9357849495180455
4.3173622237481215
5.548256656748296
6.976094199028532
9.6963708959589
7.505378805218594
5.954451819638329
5.252841992828244
4.840492357773174
4.557386638183142
4.3727524732331275
4.237354085603107
4.157345947458091
4.1327280587980795
4.028102031993082
3.9665573103430654
3.9357849495180455
3.9604028381780574
3.9911751990030497
3.9665573103430654
3.9111670608580615
3.8803947000330408
3.8803947000330408
3.8619312835380395
3.825004450548036
3.8126955062180454
3.8065410340530352
3.8065410340530352
3.7942320897230433
3.800386561888025
3.8065410340530352
3.800386561888025
3.763459728898022
3.7080694794130173
3.738841840238039
3.8434678670430373
3.874240227868059
3.855776811373057
3.855776811373057
3.8619312835380395
3.8496223392080475
5.2220696320032225
13.50598916609444
14.736883599094611
9.83792375575393
7.351517001093571
6.151394928918363
5.449785102108279
5.018972050558207
4.67432160931816
4.452760611378115
4.237354085603107
4.101955697973087
4.040410976323072
3.9604028381780574
3.9542483660130467
8.391622796978721
16.78016835787491
17.83873757025506
17.758729432110044
17.58640421149002
17.395615574374997
17.161745632104957
16.367818722819866
12.872078533099351
9.111696040283835
7.185346252638558
5.991378652628332
5.19129727117823
4.569695582513134
4.095801225808078
3.781923145393024
3.511126370132983
3.277256427862973
3.4434271763179867
8.662419572238761
15.776989394979763
16.257038223849833
16.047786170239803
15.850843060959768
15.672363368174762
15.506192619719721
15.364639759924717
15.186160067139687
15.032298263014663
14.878436458889643
14.170672159914547
10.459525444419029
7.0253299763485275
5.295923297983257
4.225045141273086
3.6034434526080172
3.277256427862973
2.772589710332896
2.3356221866178415
2.0278985783677985
1.8494188855827651
2.8464433763129016
9.277866788738848
14.312225019709553
14.447623407339572
14.28145265888456
14.05989166094454
11.887362986699236
7.579232471198627
5.178988326848239
3.8680857557030492
3.0249230690979347
2.4279392690928487
1.990971745377768
1.677093664962742
1.437069250527695
1.2647440299076718
1.1170366979476598
1.0062561989776508
0.9200935886676254
0.8770122835126126
0.8523943948526291
0.8093130896976164
0.7846952010376053
0.8400854505226096
3.578825563948007
12.21355001144428
14.712265710434632
14.521477073319604
14.355306324864562
14.226062409399553
14.102972966099525
13.955265634139513
13.8075583021795
13.678314386714465
13.530607054754451
13.407517611454423
13.253655807329402
13.093639531039395
12.958241143409378
12.835151700109348
12.693598840314344
12.576663869179328
12.453574425879301
12.324330510414287
12.17662317845425
12.059688207319258
11.764273543399206
8.988606596983805
5.209760687673231
3.271101955697964
2.138679077337807
1.363215584547689
0.7970041453676248
0.37850003814754446
0.06462195773251911
-0.2000203453625393
-0.390808982477564
-0.5138984257775646
-0.6185244525825918
-0.7046870628925893
-0.7539228402126119
-0.7970041453676248
-0.8339309783576276
-0.8462399226876194
-0.8523943948526291
-0.8277765061926179
-0.8093130896976164
-0.7908496732026148
-0.7539228402126119
-0.7477683680476023
-0.7169960072226089
-0.6923781185625978
-0.6739147020675963
-0.6492968134075848
-0.5939065639225805
-0.5508252587675677
-0.5077439536125827
-0.47697159278756174
-0.427735815467567
-0.3723455659825625
-0.3292642608275498
-0.26771953917753555
-0.2000203453625393
-0.15078456804251686
-0.1015487907225221
-0.05231301340249961
0.009231708247514623
0.0707764298975011
0.08923984639250258
0.2061748175275213
0.26156506701252585
0.31695531649755804
0.396963454642546
0.46466264845757
0.5200528979425745
0.5569797309325776
0.6185244525825918
0.6554512855725947
0.6739147020675963
0.7046870628925893
0.7600773123775938
0.8277765061926179
0.889321227842632
0.9385570051626267
1.000101726812641
1.0431830319676536
1.0801098649576568
1.1170366979476598
1.1724269474326645
1.215508252587677
1.2585895577426898
1.2832074464026733
1.3385976958876775
1.39398794537271
1.4309147783627132
1.467841611352716
1.504768444342719
1.5540042216627135
1.590931054652717
1.6278578876427194
1.6709391927977324
1.7201749701177547
1.7694107474377496
1.8124920525927626
1.8371099412527454
1.8740367742427766
1.9171180793977614
1.9601993845527748
2.009435161872797
2.0463619948628
2.083288827852803
2.1325246051727973
2.1694514381628007
2.187914854657802
2.212532743317813
2.2679229928028177
2.477175046412844
3.080313318582939
7.776175580478634
16.035477225909812
17.014038300144946
16.817095190864908
16.6509244424099
16.490908166119866
16.28165611250984
15.51850156404974
11.702728821749192
8.12082602171868
6.366801454693455
5.388240380458265
4.828183413443182
4.557386638183142
4.434297194883113
4.108110170138069
4.12657358663307
4.508150860863147
5.419012741283257
6.243712011393371
7.277663335113566
8.108517077388688
9.764070089773924
11.25345235370412
11.887362986699236
10.822639302154077
10.201037613488978
8.465476462958726
6.286793316548384
5.068207827878203
5.19745174334324
5.954451819638329
9.56097250832888
14.269143714554566
14.527631545484587
14.04758271661452
13.475216805269449
12.496655731034313
10.311818112458987
7.271508862948581
5.086671244373231
3.8188499783830263
3.006459652602933
2.4402482134228407
2.0278985783677985
1.7078660257877356
1.4555326670226965
1.289361918567683
1.1539635309376628
1.0370285598026439
0.9447114773276367
0.8831667556776225
0.8400854505226096
0.8031586175326066
0.7785407288726233
0.7539228402126119
0.7354594237176103
0.7354594237176103
0.7477683680476023
0.7600773123775938
0.7785407288726233
0.7970041453676248
0.7785407288726233
0.7908496732026148
0.8770122835126126
0.9077846443376336
0.9200935886676254
0.9570204216576284
0.9816383103176396
1.0062561989776508
1.0062561989776508
1.0247196154726523
1.0308740876376343
1.1355001144426613
1.1662724752676545
1.1908903639276658
1.2278171969176688
1.2585895577426898
1.2585895577426898
1.2955163907326928
1.3201342793926762
1.3385976958876775
1.3755245288776807
1.437069250527695
1.4924595000126994
1.5293863330027024
1.5724676381577152
1.6093944711477182
1.6278578876427194
1.6463213041377214
1.6709391927977324
1.689402609292734
1.7140204979527454
1.7447928587777384
1.7817196917677414
1.8186465247577446
1.855573357747775
1.8863457185727683
1.9171180793977614
1.9478904402227823
1.966353856717784
2.003280689707787
2.052516467027782
2.077134355687793
2.1079067165127863
2.1325246051727973
2.1756059103278105
2.2063782711528033
2.224841687647805
2.2309961598128147
2.2802319371328093
2.329467714452832
2.372549019607845
2.409475852597848
2.434093741257831
2.471020574247862
2.4894839907428636
2.520256351567857
2.544874240227868
2.575646601052861
2.6002644897128726
2.624882378372884
2.6371913227028756
2.661809211362886
2.68642710002287
2.704890516517872
2.723353933012873
2.747971821672884
2.7848986546628876
2.797207598992907
2.8095165433228986
2.8279799598179
2.8649067928079033
2.883370209302905
2.901833625797906
2.9387604587879093
2.9633783474479203
2.975687291777912
3.0003051804379233
3.018768596932925
3.0310775412629165
3.049540957757918
3.0987767350779407
3.141858040232953
3.160321456727955
3.1726304010579467
3.1726304010579467
3.166475928892937
3.141858040232953
3.1233946237379517
3.141858040232953
3.166475928892937
3.1849393453879378
3.215711706212959
3.5357442587929944
8.803972432033792
16.380127667149857
17.149436687774966
16.903257801174938
16.30627400116985
12.927468782584356
8.963988708323821
7.0253299763485275
5.868289209328331
5.092825716538213
4.54507769385315
4.151191475293081
3.8496223392080475
3.61575239693801
3.437272704152977
3.2957198443579747
3.2034027618829395
3.1110856794079322
3.049540957757918
2.9818417639429216
2.944914930952919
2.907988097962916
2.883370209302905
2.8525978484779113
2.8402889041478923
2.83413443198291
2.83413443198291
2.83413443198291
2.8402889041478923
2.83413443198291
2.8464433763129016
2.858752320642893
2.8525978484779113
2.871061264972913
2.895679153632896
2.9141425701278982
2.9633783474479203
3.0618499020879373
3.1233946237379517
3.0680043742529195
3.0864677907479487
3.043386485592936
3.0372320134279267
3.0372320134279267
3.055695429922928
3.080313318582939
3.092622262912931
3.1049312072429505
3.117240151572942
3.1357035680679433
3.1480125123979352
3.166475928892937
3.191093817552948
3.2034027618829395
3.221866178377941
3.234175122707961
3.234175122707961
3.2403295948729705
3.2526385392029624
3.258793011367972
3.271101955697964
3.283410900027955
3.289565372192965
3.308028788687967
3.308028788687967
3.3264922051829684
3.3449556216779697
3.35111009384298
3.363419038172971
3.3695735103379807
3.381882454667973
3.400345871162974
3.406500343327984
3.4311182319879947
3.4434271763179867
3.4557361206479786
3.468045064977998
3.486508481473
3.4988174258029914
3.504971897968001
3.5234353144630024
3.5234353144630024
3.541898730958004
3.554207675287996
3.5665166196180156
3.578825563948007
3.591134508277999
3.6034434526080172
3.61575239693801
3.628061341268002
3.640370285598021
3.7080694794130173
3.9173215330230438
4.563541110348153
5.695963988708308
7.123801530988544
8.865517153683806
10.933419801124083
12.816688283614349
14.915363291879647
16.31242847333483
16.417054500139862
16.33089188982984
16.43551791663486
16.39859108364486
16.318582945499845
16.189339030034834
16.035477225909812
15.844688588794787
15.678517840339746
15.493883675389732
15.315403982604698
15.186160067139687
15.069225096004669
14.915363291879647
14.767655959919635
14.607639683629603
14.466086823834571
14.336842908369562
14.18298110424454
14.04142824444954
13.906029856819519
13.75832252485948
13.62292413722946
13.487525749599438
13.339818417639426
13.204420030009405
13.062867170214377
12.933623254749365
12.804379339284356
12.675135423819343
12.552045980519317
12.428956537219287
12.305867093919288
12.182777650619258
12.059688207319258
11.94890770834922
11.831972737214205
11.721192238244193
11.616566211439194
11.505785712469157
11.395005213499148
11.284224714529142
11.179598687724113
11.074972660919112
10.982655578444106
10.878029551639079
10.779557996999062
10.681086442359044
10.588769359884035
10.490297805244019
10.391826250604005
10.305663640294005
10.213346557818996
10.133338419673981
10.034866865033965
9.961013199053959
9.868696116578924
9.776379034103917
9.70252536812391
9.610208285648902
9.480964370183893
9.480964370183893
9.413265176368867
9.333257038223852
9.259403372243845
9.167086289768841
9.09323262378883
9.043996846468808
8.976297652653814
8.9147529310038
8.840899265023793
8.77935454337378
8.711655349558784
8.63780168357875
8.582411434093745
8.51471224027875
8.453167518628735
8.385468324813736
8.311614658833705
8.250069937183719
8.182370743368693
8.114671549553698
8.059281300068694
8.01004552274867
7.948500801098657
7.899265023778662
7.850029246458641
7.788484524808653
7.739248747488632
7.690012970168636
7.6346227206836295
7.591541415528619
7.536151166043615
7.4930698608886015
7.456143027898598
7.4192161949085955
7.3699804175885735
7.3576714732585815
7.33920805676358
7.302281223773576
7.259199918618564
7.216118613463552
7.142264947483545
7.06841128150354
6.988403143358524
6.939167366038529
6.902240533048526
6.877622644388515
6.846850283563521
6.82223239490351
6.785305561913507
6.754533201088487
6.717606368098483
6.68067953510848
6.649907174283487
6.619134813458466
6.576053508303481
6.54528114747846
6.514508786653467
6.471427481498454
6.379110399023446
6.348338038198453
6.372955926858436
6.348338038198453
6.323720149538442
6.286793316548384
6.249866483558382
6.2252485948983685
6.206785178403368
6.176012817578375
6.151394928918363
6.132931512423362
6.09600467943336
6.077541262938357
6.034459957783345
6.015996541288343
5.98522418046335
5.98522418046335
5.960606291803339
5.929833930978346
5.905216042318334
5.886752625823332
5.874443681493341
5.84982579283333
5.83751684850331
5.819053432008309
5.7944355433483254
5.782126599018307
5.757508710358322
5.751354238193313
5.7328908216983105
5.7082729330383
5.689809516543297
5.677500572213306
5.665191627883287
5.646728211388286
5.628264794893284
5.609801378398282
5.591337961903281
5.572874545408279
5.560565601078289
5.548256656748296
5.529793240253267
5.535947712418277
5.542102184583286
5.505175351593283
5.486711935098282
5.449785102108279
5.419012741283257
5.388240380458265
5.375931436128245
5.357468019633243
5.3390046031382425
5.3143867144782595
5.283614353653238
5.271305409323245
5.252841992828244
5.234378576333243
5.252841992828244
5.252841992828244
5.21591515983824
5.178988326848239
5.0497444113832
5.098980188703223
5.129752549528216
5.117443605198224
5.080516772208221
4.668167137153151
1.9294270237277809
-0.8523943948526291
-2.2433051041428067
-3.1049312072429505
-3.640370285598049
-4.009638615498079
-4.274280918593137
-4.458915083543152
-4.582004526843181
-4.662012664988168
-4.71124844230819
-4.729711858803193
-4.698939497978172
-4.6189313598331845
-4.3727524732331275
-3.7942320897230712
-1.757101803107758
1.7632562752727399
4.065028864983084
4.68047608148317
4.452760611378115
5.277459881488256
6.329874621703424
6.514508786653467
6.397573815518448
5.886752625823332
5.548256656748296
5.806744487678317
6.194476234073376
5.431321685613277
4.5820045268431535
4.637394776328158
4.618931359833156
4.385061417563119
4.538923221688139
4.735866330968175
4.67432160931816
4.212736196943095
3.75730525673304
3.461890592812989
3.461890592812989
3.591134508277999
3.61575239693801
3.671142646423015
3.75115078456803
3.7696142010630322
3.75730525673304
3.8496223392080475
3.9234760051880535
3.9357849495180455
3.781923145393024
3.0618499020879373
2.114061188677796
1.3755245288776807
0.8154675618626261
0.4523537041275505
0.14463009587750708
-0.26771953917753555
-0.6000610360875902
-0.7785407288726233
-1.0554919762976458
-1.178581419597674
-1.400142417537692
-1.7017115536227536
-1.990971745377768
-2.2679229928028177
-2.434093741257831
-2.575646601052861
-2.723353933012873
-2.8464433763129016
-2.895679153632896
-2.9202970422929075
-2.944914930952919
-2.944914930952919
-2.9202970422929075
-2.895679153632896
-2.8525978484779113
-2.8156710154879088
-2.760280766002876
-2.711044988682881
-2.661809211362886
-2.606418961877855
-2.5387197680628577
-2.471020574247862
-2.409475852597848
-2.3356221866178415
-2.2740774649678275
-2.200223798987821
-2.1263701330077875
-2.0463619948628
-1.972508328882766
-1.892500190737778
-1.8186465247577446
-1.7509473309427481
-1.6647847206327224
-1.5970855268177266
-1.5293863330027024
-1.4616871391877062
-1.3878334732077002
-1.3201342793926762
-1.2462806134126705
-1.1724269474326645
-1.11088222578265
-1.0493375041326358
-0.9877927824826491
-0.9385570051626267
-0.8770122835126126
-0.8093130896976164
-0.7477683680476023
-0.6923781185625978
-0.6246789247476013
-0.5692886752625692
-0.5077439536125827
-0.4523537041275505
-0.3846545103125543
-0.3354187329925596
-0.32310978866254003
-0.2061748175275213
-0.1384756237125251
-0.08923984639250258
-0.05231301340249961
0.003077236082504875
0.07693090206251085
0.15693904020752658
0.2431016505175243
0.3108008443325483
0.3846545103125543
0.4400447597975588
0.4708171206225797
0.5077439536125827
0.538516314437576
0.5508252587675677
0.5877520917575707
0.6492968134075848
0.7293049515526008
0.8093130896976164
0.8708578113476306
0.9324025329976448
1.000101726812641
1.073955392792647
1.1724269474326645
1.3447521680526875
1.5847765824877347
2.077134355687793
4.803565524783171
12.07199715164925
14.226062409399553
14.05373718877953
13.91833880114951
13.78294041351949
13.659850970219459
13.518298110424459
13.382899722794441
13.253655807329402
13.118257419699408
12.99516797639938
12.86592406093437
12.73052567330435
12.601281757839313
12.4720378423743
12.355102871239282
12.238167900104266
12.115078456804262
11.985834541339225
11.868899570204206
11.751964599069217
11.647338572264188
11.53655807329418
11.431932046489152
11.333460491849134
11.234988937209115
11.130362910404118
11.0318913557641
10.927265328959074
10.834948246484066
10.736476691844048
10.64415960936904
10.557996999059045
10.465679916584008
10.379517306274012
10.293354695963984
10.207192085653988
10.121029475343962
10.028712392868956
9.961013199053959
9.881005060908944
9.794842450598916
9.714834312453902
9.647135118638905
9.5732814526589
9.487118842348874
9.413265176368867
9.345565982553872
9.259403372243845
9.17939523409883
9.105541568118824
9.03168790213882
8.945525291828794
8.865517153683806
8.785509015538791
8.717809821723765
8.65011062790877
8.582411434093745
8.508557768113741
8.440858574298742
8.373159380483719
8.299305714503713
8.2377609928537
8.188525215533705
8.133134966048699
8.065435772233677
8.016199994913679
7.960809745428676
7.905419495943672
7.837720302128648
7.800793469138645
7.75155769181865
7.696167442333619
7.640777192848613
7.60385035985861
7.542305638208595
7.4930698608886015
7.449988555733588
7.400752778413594
7.345362528928589
7.314590168103568
7.265354390783574
7.216118613463552
7.173037308308565
7.129956003153555
7.086874697998541
7.056102337173549
7.013021032018535
6.969939726863522
6.920703949543528
6.889931588718507
6.859159227893513
6.80376897840851
6.6991429516034815
6.754533201088487
6.723760840263493
6.68067953510848
6.643752702118477
6.606825869128475
6.576053508303481
6.520663258818478
6.403728287683458
6.446809592838443
6.434500648508451
6.397573815518448
6.366801454693455
6.342183566033444
6.317565677373432
6.274484372218392
6.219094122733386
6.212939650568378
6.194476234073376
6.169858345413365
6.139085984588371
6.114468095928361
6.09600467943336
6.071386790773348
6.046768902113364
6.022151013453353
5.9975331247933426
5.972915236133329
5.948297347473347
5.929833930978346
5.905216042318334
5.874443681493341
5.84982579283333
5.825207904173318
5.800590015513308
5.775972126853325
5.751354238193313
5.7328908216983105
5.720581877368319
5.689809516543297
5.677500572213306
5.6590371557183055
5.646728211388286
5.622110322728302
5.609801378398282
5.585183489738299
5.560565601078289
5.542102184583286
5.529793240253267
5.511329823758264
5.492866407263264
5.486711935098282
5.468248518603279
5.443630629943269
5.419012741283257
5.412858269118276
5.394394852623274
5.388240380458265
5.375931436128245
5.357468019633243
5.3390046031382425
5.33285013097326
5.3143867144782595
5.302077770148239
5.302077770148239
5.295923297983257
5.283614353653238
5.277459881488256
5.258996464993254
5.246687520663236
5.234378576333243
5.209760687673231
5.209760687673231
5.19745174334324
5.185142799013221
5.166679382518219
5.142061493858235
5.142061493858235
5.111289133033214
5.092825716538213
5.080516772208221
5.0743623000432105
5.06205335571322
5.037435467053208
5.037435467053208
5.025126522723218
5.012817578393197
5.006663106228215
4.9881996897332135
4.9881996897332135
4.982045217568204
4.969736273238212
4.957427328908192
4.969736273238212
4.982045217568204
5.000508634063205
4.9881996897332135
4.982045217568204
4.963581801073202
4.9389639124131905
4.902037079423188
4.858955774268176
4.81587446911319
4.809719996948181
4.822028941278172
4.828183413443182
4.828183413443182
4.822028941278172
4.822028941278172
4.809719996948181
4.803565524783171
4.797411052618189
4.797411052618189
4.785102108288171
4.785102108288171
4.778947636123188
4.766638691793168
4.760484219628157
4.760484219628157
4.754329747463175
4.748175275298167
4.723557386638155
4.68047608148317
4.735866330968175
4.723557386638155
4.698939497978172
4.68047608148317
4.698939497978172
4.686630553648152
4.686630553648152
4.67432160931816
4.655858192823159
4.440451667048122
2.3417766587828237
-0.1200122072175236
-0.8277765061926179
-0.6246789247476013
-0.5631342030975872
-0.24925612268253405
0.17540245670252808
0.8462399226876194
1.9048091350677696
2.9264515144579173
4.249663029933098
4.908191551588198
5.111289133033214
5.203606215508222
5.203606215508222
5.203606215508222
5.19129727117823
5.19129727117823
5.178988326848239
5.160524910353237
5.135907021693225
5.129752549528216
5.117443605198224
5.117443605198224
5.123598077363234
5.129752549528216
5.117443605198224
5.111289133033214
5.105134660868233
5.086671244373231
5.0743623000432105
5.06205335571322
5.043589939218219
5.025126522723218
5.000508634063205
4.9881996897332135
4.969736273238212
4.945118384578201
4.9389639124131905
4.92050049591819
4.908191551588198
4.902037079423188
4.883573662928187
4.871264718598195
4.8651102464331855
4.846646829938185
4.846646829938185
4.828183413443182
4.81587446911319
4.803565524783171
4.797411052618189
4.760484219628157
4.68047608148317
4.649703720658149
4.754329747463175
4.772793163958178
4.772793163958178
4.772793163958178
4.772793163958178
4.760484219628157
4.754329747463175
4.748175275298167
4.7297118588031655
4.723557386638155
4.723557386638155
4.717402914473173
4.717402914473173
4.717402914473173
4.711248442308165
4.705093970143154
4.692785025813162
4.686630553648152
4.68047608148317
4.67432160931816
4.68047608148317
4.668167137153151
4.662012664988168
4.662012664988168
4.6435492484931675
4.6435492484931675
4.637394776328158
4.6435492484931675
4.631240304163148
4.631240304163148
4.618931359833156
4.612776887668146
4.606622415503137
4.606622415503137
4.5943134711731455
4.588158999008135
4.5820045268431535
4.575850054678144
4.575850054678144
4.575850054678144
4.563541110348153
4.569695582513134
4.569695582513134
4.557386638183142
4.551232166018132
4.520459805193139
4.169654891788083
3.825004450548036
4.2065817247780855
4.477378500038126
4.538923221688139
4.54507769385315
4.538923221688139
4.5327687495231315
4.526614277358149
4.501996388698137
4.489687444368147
4.465069555708134
4.520459805193139
4.520459805193139
4.508150860863147
4.501996388698137
4.495841916533128
4.483532972203136
4.446606139213133
4.446606139213133
4.446606139213133
4.440451667048122
4.434297194883113
4.366598001068117
3.215711706212959
0.1938658731975296
-1.7447928587777384
-2.760280766002876
-3.406500343328012
-3.849622339208075
-4.151191475293109
-4.354289056738125
-4.508150860863147
-4.612776887668174
-4.662012664988168
-4.68663055364818
-4.69278502581319
-4.68047608148317
-4.655858192823187
-4.625085831998166
-4.582004526843181
-4.532768749523157
-4.4835329722031645
-4.409679306223158
-4.354289056738125
-4.28658986292313
-4.218890669108104
-4.151191475293109
-4.077337809313103
-3.9911751990030773
-3.9111670608580615
-3.8311589227130742
-3.7449963124030474
-3.652679229928041
-3.578825563948035
-3.4865084814730274
-3.406500343328012
-3.3203377330179857
-3.2341751227079882
-3.1480125123979352
-3.0618499020879373
-2.975687291777912
-2.895679153632896
-2.8095165433228986
-2.7171994608478913
-2.624882378372884
-2.507947407237865
-2.409475852597848
-2.329467714452832
-2.255614048472826
-2.1817603824928202
-2.1263701330077875
-2.064825411357801
-2.0217441062027888
-1.972508328882766
-1.8801912464077586
-1.7878741639327511
-1.6955570814577436
-1.6340123598077294
-1.5540042216627135
-1.4863050278477177
-1.4186058340326935
-1.3385976958876775
-1.2585895577426898
-1.1970448360926755
-1.1231911701126696
-1.0616464484626553
-0.9877927824826491
-0.9631748938226381
-0.9077846443376336
-0.7785407288726233
-0.7169960072226089
-0.6616057577376044
-0.5939065639225805
-0.538516314437576
-0.47697159278756174
-0.44619923196256844
-0.3846545103125543
-0.30464637216753854
-0.24925612268253405
-0.18771140103251985
-0.13232115154751534
-0.07693090206251085
-0.02154065257750637
0.04000406907250786
0.09539431855751236
0.15078456804251686
0.2000203453625393
0.26156506701252585
0.3108008443325483
0.3723455659825625
0.4154268711375475
0.46466264845757
0.5262073701075842
0.5692886752625692
0.6185244525825918
0.6739147020675963
0.7231504793875909
0.7785407288726233
0.8154675618626261
0.8647033391826209
0.9139391165026156
0.9570204216576284
1.0062561989776508
1.0493375041326358
1.0862643371226666
1.141654586607671
1.1724269474326645
1.221662724752659
1.2647440299076718
1.3016708628976748
1.3570611123826792
1.4186058340326935
1.8063375804277528
3.720378423743037
7.154573891813565
11.635029627934196
13.727550164034485
13.8075583021795
13.690623331044481
13.53676152691946
13.395208667124429
13.253655807329402
13.1121029475344
12.964395615574386
12.828997227944367
12.699753312479329
12.558200452684327
12.435111009384297
12.305867093919288
12.17662317845425
12.041224790824256
11.93659876401923
11.819663792884208
11.702728821749192
11.585793850614172
11.468858879479157
11.364232852674155
11.25345235370412
11.148826326899119
11.050354772259102
10.933419801124083
10.828793774319085
10.736476691844048
10.63185066503905
10.527224638234022
10.422598611429024
10.330281528953988
10.244118918643991
10.151801836168985
10.065639225858957
9.96716767121894
9.881005060908944
9.788687978433936
9.70867984028892
9.616362757813912
9.542509091833878
9.468655425853873
9.394801759873866
9.302484677398859
9.222476539253844
9.148622873273835
9.074769207293832
9.000915541313825
8.933216347498801
8.859362681518796
8.79781795986878
8.736273238218766
8.656265100073778
8.594720378423766
8.52702118460874
8.465476462958726
8.397777269143731
8.336232547493715
8.274687825843701
8.200834159863696
8.139289438213682
8.090053660893687
8.016199994913679
7.966964217593659
7.905419495943672
7.850029246458641
7.794638996973634
7.739248747488632
7.683858498003627
7.640777192848613
7.579232471198627
7.529996693878605
7.486915388723593
7.4315251392385875
7.388443834083573
7.33920805676358
7.289972279443584
7.246890974288571
7.191500724803569
7.148419419648555
7.111492586658551
7.06225680933853
7.013021032018535
6.988403143358524
6.945321838203511
6.889931588718507
6.859159227893513
6.816077922738501
6.772996617583488
6.729915312428503
6.6991429516034815
6.656061646448497
6.619134813458466
6.582207980468463
6.54528114747846
6.508354314488457
6.477581953663464
6.446809592838443
6.41603723201345
6.379110399023446
6.348338038198453
6.317565677373432
6.299102260878375
6.262175427888372
6.243712011393371
6.219094122733386
6.188321761908366
6.169858345413365
6.145240456753354
6.114468095928361
6.083695735103367
6.059077846443356
6.028305485618364
6.009842069123361
5.97906970829834
5.954451819638329
5.929833930978346
5.8805981536583225
5.83751684850331
5.763663182523304
5.800590015513308
5.775972126853325
5.751354238193313
5.720581877368319
5.695963988708308
5.640573739223304
5.628264794893284
5.628264794893284
5.6036469062333
5.591337961903281
5.566720073243298
5.554411128913278
5.529793240253267
5.517484295923275
5.505175351593283
5.505175351593283
5.499020879428274
5.499020879428274
5.492866407263264
5.468248518603279
5.431321685613277
5.406703796953265
5.351313547468262
5.308232242313249
5.265150937158236
5.2405330484982535
5.2405330484982535
5.246687520663236
5.228224104168233
5.2220696320032225
5.209760687673231
5.19745174334324
5.19129727117823
5.172833854683229
5.166679382518219
5.142061493858235
5.123598077363234
5.123598077363234
5.117443605198224
5.098980188703223
5.086671244373231
5.06205335571322
5.05589888354821
5.037435467053208
5.018972050558207
5.018972050558207
5.006663106228215
5.006663106228215
5.000508634063205
4.982045217568204
4.969736273238212
4.957427328908192
4.951272856743211
4.9389639124131905
4.932809440248209
4.9266549680832
4.91434602375318
4.895882607258178
4.889728135093197
4.877419190763177
4.877419190763177
4.871264718598195
4.858955774268176
4.8651102464331855
4.8528013021031935
4.846646829938185
4.846646829938185
4.840492357773174
4.822028941278172
4.822028941278172
4.822028941278172
4.81587446911319
4.81587446911319
4.809719996948181
4.803565524783171
4.797411052618189
4.803565524783171
4.797411052618189
4.7912565804531795
4.785102108288171
4.778947636123188
4.772793163958178
4.778947636123188
4.766638691793168
4.760484219628157
4.748175275298167
4.748175275298167
4.723557386638155
4.705093970143154
4.692785025813162
4.68047608148317
4.662012664988168
4.649703720658149
4.6435492484931675
4.637394776328158
4.618931359833156
4.606622415503137
4.5943134711731455
4.5820045268431535
4.569695582513134
4.569695582513134
4.563541110348153
4.557386638183142
4.551232166018132
4.551232166018132
4.54507769385315
4.526614277358149
4.526614277358149
4.526614277358149
4.520459805193139
4.520459805193139
4.520459805193139
4.514305333028129
4.520459805193139
4.508150860863147
4.501996388698137
4.495841916533128
4.495841916533128
4.483532972203136
4.483532972203136
4.471224027873144
4.428142722718132
4.471224027873144
4.458915083543125
4.465069555708134
4.471224027873144
4.465069555708134
4.471224027873144
4.465069555708134
4.452760611378115
4.446606139213133
4.446606139213133
4.446606139213133
4.440451667048122
4.440451667048122
4.434297194883113
4.440451667048122
4.434297194883113
4.415833778388112
4.40967930622313
4.415833778388112
4.415833778388112
4.415833778388112
4.415833778388112
4.40967930622313
4.397370361893111
4.323516695913104
4.391215889728128
4.421988250553122
4.40352483405812
4.397370361893111
4.391215889728128
4.37890694539811
4.37890694539811
4.341980112408105
4.354289056738125
4.360443528903107
4.360443528903107
4.354289056738125
4.366598001068117
4.360443528903107
4.354289056738125
4.354289056738125
4.366598001068117
4.366598001068117
4.354289056738125
4.354289056738125
4.354289056738125
4.354289056738125
4.341980112408105
4.348134584573115
4.335825640243124
4.335825640243124
4.341980112408105
4.329671168078114
4.323516695913104
4.323516695913104
4.3173622237481215
4.323516695913104
4.3173622237481215
4.323516695913104
4.3112077515831135
4.3112077515831135
4.305053279418103
4.3173622237481215
4.3112077515831135
4.323516695913104
4.323516695913104
4.323516695913104
4.3173622237481215
4.329671168078114
4.335825640243124
4.341980112408105
4.329671168078114
4.341980112408105
4.341980112408105
4.341980112408105
4.341980112408105
4.335825640243124
4.335825640243124
4.329671168078114
4.329671168078114
4.323516695913104
4.305053279418103
4.305053279418103
4.292744335088111
4.2865898629231
4.2865898629231
4.2865898629231
4.292744335088111
4.305053279418103
4.298898807253093
4.2865898629231
4.2865898629231
4.292744335088111
4.292744335088111
4.280435390758092
4.2865898629231
4.298898807253093
4.298898807253093
4.305053279418103
4.335825640243124
4.366598001068117
4.366598001068117
4.366598001068117
4.354289056738125
4.335825640243124
4.298898807253093
4.2681264464281
4.231199613438097
4.237354085603107
4.249663029933098
4.261971974263091
4.280435390758092
4.292744335088111
4.2865898629231
4.2865898629231
4.280435390758092
4.27428091859311
4.27428091859311
4.261971974263091
4.2681264464281
4.2681264464281
4.231199613438097
4.292744335088111
4.292744335088111
4.280435390758092
4.27428091859311
4.255817502098108
4.261971974263091
4.2681264464281
4.27428091859311
4.27428091859311
4.27428091859311
4.280435390758092
4.2681264464281
4.2681264464281
4.280435390758092
4.2865898629231
4.280435390758092
4.2865898629231
4.27428091859311
4.280435390758092
4.27428091859311
4.280435390758092
4.2865898629231
4.2865898629231
4.2865898629231
4.292744335088111
4.2865898629231
4.298898807253093
4.298898807253093
4.305053279418103
4.305053279418103
4.3173622237481215
4.3173622237481215
4.323516695913104
4.323516695913104
4.323516695913104
4.329671168078114
4.335825640243124
4.341980112408105
4.348134584573115
4.348134584573115
4.360443528903107
4.360443528903107
4.366598001068117
4.360443528903107
4.360443528903107
4.366598001068117
4.360443528903107
4.360443528903107
4.348134584573115
4.341980112408105
4.329671168078114
4.329671168078114
4.3112077515831135
4.3112077515831135
4.305053279418103
4.292744335088111
4.2681264464281
4.2681264464281
4.2681264464281
4.261971974263091
4.27428091859311
4.27428091859311
4.27428091859311
4.2681264464281
4.27428091859311
4.2681264464281
4.261971974263091
4.261971974263091
4.261971974263091
4.2681264464281
4.2681264464281
4.27428091859311
4.27428091859311
4.27428091859311
4.2681264464281
4.261971974263091
4.2681264464281
4.27428091859311
4.27428091859311
4.2681264464281
4.27428091859311
4.2681264464281
4.2681264464281
4.280435390758092
4.27428091859311
4.27428091859311
4.27428091859311
4.280435390758092
4.2865898629231
4.2865898629231
4.280435390758092
4.280435390758092
4.2865898629231
4.298898807253093
4.298898807253093
4.2865898629231
4.27428091859311
4.27428091859311
4.280435390758092
4.2865898629231
4.280435390758092
4.280435390758092
4.280435390758092
4.2865898629231
4.280435390758092
4.27428091859311
4.280435390758092
4.292744335088111
4.280435390758092
4.280435390758092
4.2865898629231
4.280435390758092
4.280435390758092
4.27428091859311
4.27428091859311
4.280435390758092
4.2865898629231
4.2865898629231
4.27428091859311
4.27428091859311
4.255817502098108
4.212736196943095
4.249663029933098
4.2681264464281
4.2681264464281
4.27428091859311
4.280435390758092
4.280435390758092
4.280435390758092
4.255817502098108
4.261971974263091
4.27428091859311
4.27428091859311
4.27428091859311
4.2681264464281
4.2681264464281
4.2681264464281
4.261971974263091
4.261971974263091
4.255817502098108
4.237354085603107
4.218890669108104
4.1942727804480935
4.138882530963089
4.120419114468088
4.1327280587980795
4.114264642303079
3.9788662546730578
3.855776811373057
3.800386561888025
3.424963759822985
2.391012436102846
1.3016708628976748
0.35388214948756097
-0.09539431855751236
-0.396963454642546
-0.5631342030975872
-0.3846545103125543
-0.06462195773251911
0.4154268711375475
1.2339716690826785
1.8801912464077586
2.3171587701228398
2.009435161872797
1.4432237226927047
1.3201342793926762
1.4247603061977032
1.3078253350626845
0.5631342030975872
-0.47697159278756174
-1.0801098649576568
-0.6923781185625978
-0.6000610360875902
-0.9754838381526297
-1.0801098649576568
-1.0062561989776508
-0.7539228402126119
-0.6000610360875902
-0.45850817629256013
-0.2984919000025288
-0.24925612268253405
-0.8708578113476306
-1.3201342793926762
-1.2093537804226673
-0.8093130896976164
-0.5508252587675677
0.02769512474251612
1.0801098649576568
1.9048091350677696
1.9171180793977614
1.7017115536227536
1.6278578876427194
1.510922916507701
1.3324432237226955
1.5540042216627135
1.9171180793977614
2.471020574247862
3.0126141247679152
3.504971897968001
4.255817502098108
4.957427328908192
5.960606291803339
6.612980341293484
6.705297423768492
6.754533201088487
6.754533201088487
6.729915312428503
6.68067953510848
6.643752702118477
6.606825869128475
6.576053508303481
6.532972203148468
6.483736425828446
6.434500648508451
6.329874621703424
5.7944355433483254
4.91434602375318
4.563541110348153
5.185142799013221
5.615955850563292
5.782126599018307
5.960606291803339
6.163703873248383
6.200630706238385
6.188321761908366
6.182167289743385
6.157549401083372
6.139085984588371
6.114468095928361
6.083695735103367
6.059077846443356
6.040614429948354
6.015996541288343
5.9975331247933426
5.966760763968348
5.948297347473347
5.917524986648326
5.8805981536583225
5.868289209328331
5.8559802649983395
5.84367132066832
5.806744487678317
5.769817654688314
5.702118460873318
5.751354238193313
5.7328908216983105
5.7082729330383
5.646728211388286
5.634419267058294
5.628264794893284
5.597492434068291
5.572874545408279
5.542102184583286
5.523638768088285
5.492866407263264
5.455939574273261
5.437476157778259
5.412858269118276
5.388240380458265
5.369776963963263
5.351313547468262
5.326695658808251
5.302077770148239
5.289768825818246
5.265150937158236
5.252841992828244
5.234378576333243
5.209760687673231
5.19745174334324
5.185142799013221
5.172833854683229
5.160524910353237
5.148215966023217
5.142061493858235
5.129752549528216
5.105134660868233
5.098980188703223
5.092825716538213
5.080516772208221
5.068207827878203
5.06205335571322
5.0497444113832
5.025126522723218
5.012817578393197
5.012817578393197
5.006663106228215
5.000508634063205
4.994354161898196
4.963581801073202
4.951272856743211
4.945118384578201
4.9389639124131905
4.9389639124131905
4.92050049591819
4.902037079423188
4.889728135093197
4.877419190763177
4.871264718598195
4.858955774268176
4.8528013021031935
4.840492357773174
4.828183413443182
4.828183413443182
4.822028941278172
4.809719996948181
4.797411052618189
4.7912565804531795
4.778947636123188
4.772793163958178
4.766638691793168
4.754329747463175
4.735866330968175
4.7297118588031655
4.735866330968175
4.7297118588031655
4.717402914473173
4.711248442308165
4.692785025813162
4.692785025813162
4.698939497978172
4.686630553648152
4.686630553648152
4.668167137153151
4.662012664988168
4.649703720658149
4.6435492484931675
4.631240304163148
4.631240304163148
4.631240304163148
4.618931359833156
4.606622415503137
4.606622415503137
4.612776887668146
4.612776887668146
4.5943134711731455
4.5943134711731455
4.5820045268431535
4.5820045268431535
4.563541110348153
4.551232166018132
4.563541110348153
4.563541110348153
4.575850054678144
4.569695582513134
4.575850054678144
4.5820045268431535
4.569695582513134
4.551232166018132
4.5327687495231315
4.520459805193139
4.5327687495231315
4.557386638183142
4.563541110348153
4.557386638183142
4.54507769385315
4.551232166018132
4.569695582513134
4.54507769385315
4.526614277358149
4.501996388698137
4.489687444368147
4.477378500038126
4.477378500038126
4.465069555708134
4.434297194883113
4.397370361893111
4.458915083543125
4.471224027873144
4.458915083543125
4.440451667048122
4.440451667048122
4.434297194883113
4.415833778388112
4.391215889728128
4.37890694539811
4.3727524732331275
4.428142722718132
4.452760611378115
4.471224027873144
4.495841916533128
4.514305333028129
4.520459805193139
4.483532972203136
4.428142722718132
4.40967930622313
4.37890694539811
4.366598001068117
4.348134584573115
4.37890694539811
4.391215889728128
3.437272704152977
0.45850817629256013
-1.4924595000126994
-2.471020574247862
-3.092622262912931
-3.535744258793022
-3.861931283538067
-4.101955697973114
-4.268126446428129
-4.3727524732331275
-4.391215889728128
-3.4311182319879947
2.2309961598128147
4.421988250553122
2.55718318455786
0.3415732051575415
-1.4616871391877062
-2.4217847969278394
-2.96953281961293
-3.2834109000279827
-3.504971897968029
-2.618727906207874
3.6896060629180156
6.151394928918363
3.9542483660130467
0.5262073701075842
-1.0862643371226666
-1.91096360723278
-2.4402482134228407
-2.7848986546628876
-2.975687291777912
-3.1049312072429505
-3.2218661783779687
-3.264947483532982
-3.2711019556979917
-3.2711019556979917
-3.264947483532982
-3.2280206505429785
-3.2034027618829675
-3.1480125123979352
-3.0864677907479487
-3.0003051804379233
-2.9387604587879093
-2.877215737137895
-2.8156710154879088
-2.766435238167886
-2.6925815721878803
-2.631036850537866
-2.544874240227868
-2.4587116299178424
-2.391012436102846
-2.323313242287822
-2.249459576307816
-2.187914854657802
-2.1325246051727973
-2.04020752269779
-1.9601993845527748
-1.91096360723278
-1.8371099412527454
-1.7632562752727399
-1.7017115536227536
-1.6340123598077294
-1.590931054652717
-1.5416952773327222
-1.467841611352716
-1.3816790010426905
-1.3139798072276945
-1.2585895577426898
-1.1970448360926755
-1.141654586607671
-1.073955392792647
-1.0247196154726523
-0.9693293659876481
-0.9139391165026156
-0.8462399226876194
-0.7846952010376053
-0.7231504793875909
-0.6554512855725947
-0.5877520917575707
-0.5262073701075842
-0.4708171206225797
-0.4154268711375475
-0.3415732051575415
-0.29233742783754685
-0.2246382340225228
-0.18771140103251985
-0.18155692886753785
-0.1384756237125251
-0.033849596907498114
0.04615854123751762
0.11385773505251384
0.15693904020752658
0.18155692886753785
0.24925612268253405
0.3292642608275498
0.3846545103125543
0.37850003814754446
0.36619109381755277
0.49543500928256323
0.5446707866025856
0.5446707866025856
0.5939065639225805
0.6431423412426028
0.6985325907276074
0.7662317845426038
0.8031586175326066
0.8400854505226096
0.889321227842632
0.9385570051626267
0.9754838381526297
1.0124106711426328
1.0554919762976458
1.0985732814526583
1.141654586607671
1.1601180031026725
1.184735891762656
1.221662724752659
1.2708985020726815
1.3324432237226955
1.3693700567126987
1.400142417537692
1.4247603061977032
1.4555326670226965
1.4924595000126994
1.5232318608377204
1.5601586938277234
1.590931054652717
1.6093944711477182
1.6524757763027311
1.6955570814577436
1.7078660257877356
1.7201749701177547
1.757101803107758
1.8001831082627426
1.8432644134177558
1.861727829912757
1.89865466290276
1.9294270237277809
1.9601993845527748
1.9232725515627715
1.972508328882766
2.052516467027782
2.0709798835227837
2.1079067165127863
2.1325246051727973
2.138679077337807
2.138679077337807
2.150988021667799
2.200223798987821
2.261768520637808
2.286386409297819
2.298695353627811
2.3171587701228398
2.347931130947833
2.3848579639378364
2.3971669082678284
2.4217847969278394
2.434093741257831
2.477175046412844
2.507947407237865
2.520256351567857
2.5387197680628577
2.55718318455786
2.581801073217871
2.612573434042864
2.6433457948678853
2.674118155692878
2.704890516517872
2.7171994608478913
2.729508405177883
2.723353933012873
2.7418173495078744
2.778744182497905
2.83413443198291
2.8525978484779113
2.8464433763129016
2.83413443198291
2.8402889041478923
2.871061264972913
2.8895246814679143
2.8895246814679143
2.895679153632896
2.901833625797906
2.901833625797906
2.9510694031179288
2.994150708272913
3.0249230690979347
3.0126141247679152
2.9818417639429216
2.9818417639429216
2.994150708272913
3.0126141247679152
3.0680043742529195
3.1049312072429505
3.1233946237379517
3.160321456727955
3.2095572340479492
3.2403295948729705
3.2464840670379527
3.2526385392029624
3.258793011367972
3.234175122707961
3.1726304010579467
3.154166984562945
3.154166984562945
3.1972482897179573
3.234175122707961
3.264947483532954
3.264947483532954
3.258793011367972
3.264947483532954
3.277256427862973
3.258793011367972
3.301874316522957
3.357264566007961
3.375727982502963
3.363419038172971
3.35111009384298
3.35111009384298
3.332646677347978
3.381882454667973
3.406500343327984
3.424963759822985
3.437272704152977
3.4434271763179867
3.4311182319879947
3.418809287657976
3.424963759822985
3.437272704152977
3.461890592812989
3.4741995371429804
3.4926629536379816
3.511126370132983
3.511126370132983
3.529589786627985
3.541898730958004
3.560362147453006
3.548053203123014
3.548053203123014
3.572671091782997
3.578825563948007
3.572671091782997
3.578825563948007
3.5972889804430093
3.61575239693801
3.61575239693801
3.609597924773
3.6034434526080172
3.6034434526080172
3.634215813433012
3.671142646423015
3.6896060629180156
3.671142646423015
3.6649881742580046
3.6649881742580046
3.6834515907530063
3.7080694794130173
3.7265328959080186
3.738841840238039
3.7449963124030208
3.738841840238039
3.732687368073029
3.732687368073029
3.75115078456803
3.75730525673304
3.831158922713046
4.649703720658149
6.539126675313478
7.7146308588286185
7.88695607944867
6.41603723201345
5.326695658808251
4.7912565804531795
4.465069555708134
4.225045141273086
4.065028864983084
3.9665573103430654
3.8988581165280416
3.8496223392080475
3.788077617558033
3.7449963124030208
3.7080694794130173
3.6896060629180156
3.6834515907530063
3.6649881742580046
3.6649881742580046
3.677297118588024
3.658833702093023
3.628061341268002
3.640370285598021
3.6465247577630033
3.6465247577630033
3.652679229928013
3.634215813433012
3.61575239693801
3.61575239693801
3.658833702093023
3.6896060629180156
3.6896060629180156
3.6896060629180156
3.677297118588024
3.658833702093023
3.634215813433012
3.677297118588024
3.701915007248036
3.701915007248036
3.6896060629180156
3.677297118588024
3.677297118588024
3.695760535083026
3.7142239515780275
3.7142239515780275
3.720378423743037
3.738841840238039
3.7449963124030208
3.7265328959080186
3.7265328959080186
3.7449963124030208
3.7757686732280415
3.7696142010630322
3.7696142010630322
3.781923145393024
3.7942320897230433
3.8126955062180454
3.825004450548036
3.7942320897230433
3.788077617558033
3.800386561888025
3.825004450548036
3.8126955062180454
3.8188499783830263
3.8188499783830263
3.831158922713046
3.855776811373057
3.8680857557030492
3.874240227868059
3.8680857557030492
3.8434678670430373
3.855776811373057
3.8803947000330408
3.8680857557030492
3.855776811373057
3.9296304773530633
3.886549172198051
3.8619312835380395
3.8803947000330408
3.8927036443630603
3.8927036443630603
3.9050125886930522
3.9050125886930522
3.8988581165280416
3.8927036443630603
3.9296304773530633
3.948093893848065
3.9419394216830552
3.9234760051880535
3.8988581165280416
3.9050125886930522
3.948093893848065
3.9604028381780574
3.9542483660130467
3.9296304773530633
3.9050125886930522
3.8803947000330408
3.9296304773530633
3.9850207268380675
3.9911751990030497
3.9850207268380675
3.9542483660130467
3.9419394216830552
3.9850207268380675
4.015793087663061
4.009638615498079
3.9850207268380675
3.9911751990030497
4.021947559828071
4.034256504158063
4.028102031993082
4.021947559828071
4.040410976323072
4.021947559828071
4.009638615498079
4.003484143333068
4.003484143333068
3.9973296711680604
4.015793087663061
4.034256504158063
4.021947559828071
4.015793087663061
3.9973296711680604
4.028102031993082
4.108110170138069
4.225045141273086
4.446606139213133
4.68047608148317
4.9389639124131905
5.080516772208221
5.098980188703223
5.06205335571322
4.846646829938185
4.606622415503137
4.458915083543125
4.428142722718132
4.397370361893111
4.348134584573115
4.292744335088111
4.243508557768089
4.27428091859311
4.385061417563119
4.483532972203136
4.7297118588031655
4.8651102464331855
4.858955774268176
4.91434602375318
4.828183413443182
4.631240304163148
4.508150860863147
4.421988250553122
4.2865898629231
4.151191475293081
4.077337809313075
4.040410976323072
4.015793087663061
3.9788662546730578
3.9727117825080476
3.9665573103430654
3.9357849495180455
3.9111670608580615
3.9542483660130467
3.9542483660130467
3.9419394216830552
3.948093893848065
3.9604028381780574
3.9234760051880535
3.9234760051880535
4.015793087663061
4.089646753643067
4.120419114468088
4.089646753643067
4.040410976323072
3.9973296711680604
3.9542483660130467
3.9357849495180455
3.9296304773530633
3.9296304773530633
3.9296304773530633
3.9542483660130467
3.948093893848065
3.9357849495180455
3.9296304773530633
3.9296304773530633
3.9542483660130467
3.9296304773530633
3.855776811373057
3.9542483660130467
3.9850207268380675
3.9788662546730578
3.9788662546730578
3.9850207268380675
3.9850207268380675
3.9604028381780574
3.9357849495180455
3.9542483660130467
3.9111670608580615
3.9850207268380675
4.021947559828071
4.015793087663061
4.003484143333068
3.9727117825080476
3.9788662546730578
3.9973296711680604
4.009638615498079
4.009638615498079
4.003484143333068
3.9973296711680604
3.9788662546730578
3.9665573103430654
3.9604028381780574
3.9973296711680604
3.9911751990030497
3.9665573103430654
3.9419394216830552
3.948093893848065
3.948093893848065
3.9542483660130467
3.9542483660130467
3.9542483660130467
3.948093893848065
3.9788662546730578
3.9727117825080476
3.9419394216830552
3.9727117825080476
3.9973296711680604
3.9727117825080476
3.9788662546730578
3.9973296711680604
4.015793087663061
4.015793087663061
4.015793087663061
4.015793087663061
4.015793087663061
3.9911751990030497
3.9727117825080476
4.003484143333068
4.0465654484880815
4.0465654484880815
4.015793087663061
4.009638615498079
4.028102031993082
4.028102031993082
4.028102031993082
4.028102031993082
4.021947559828071
3.9973296711680604
4.003484143333068
4.028102031993082
4.034256504158063
4.028102031993082
4.058874392818074
4.065028864983084
4.101955697973087
4.385061417563119
6.5637445639734615
13.333663945474415
16.841713079524926
16.7740138857099
16.577070776429892
16.41090002797485
16.232420335189847
16.072404058899814
15.900078838279791
15.684672312504755
15.487729203224719
15.315403982604698
15.143078761984675
14.952290124869648
13.770631469189498
10.145647364003972
7.7146308588286185
6.366801454693455
5.443630629943269
4.772793163958178
4.27428091859311
3.9050125886930522
3.628061341268002
3.400345871162974
3.1972482897179573
3.055695429922928
2.9387604587879093
2.8156710154879088
2.711044988682881
2.649500267032867
2.5941100175478624
2.55102871239285
2.507947407237865
2.4894839907428636
2.495638462907845
2.446402685587851
2.403321380432838
2.3848579639378364
2.3848579639378364
2.3848579639378364
2.378703491772827
2.372549019607845
2.3663945474428347
2.391012436102846
2.403321380432838
2.403321380432838
2.434093741257831
2.446402685587851
2.4587116299178424
2.4894839907428636
2.507947407237865
2.495638462907845
2.520256351567857
2.5325652958978484
2.55718318455786
2.5694921288878514
2.587955545382853
2.6371913227028756
2.674118155692878
2.6987360443528896
2.6987360443528896
2.6925815721878803
2.667963683527869
2.631036850537866
2.704890516517872
2.735662877342893
2.729508405177883
2.729508405177883
2.760280766002876
2.7910531268278973
2.8033620711578893
2.8095165433228986
2.772589710332896
2.797207598992907
2.83413443198291
2.858752320642893
2.907988097962916
2.96953281961293
2.96953281961293
2.9572238752829105
2.994150708272913
3.1849393453879378
4.280435390758092
8.607029322753757
11.499631240304177
11.764273543399206
12.699753312479329
11.659647516594179
9.788687978433936
7.954655273263667
6.6991429516034815
6.643752702118477
7.930037384603655
9.825614811423938
11.468858879479157
12.152005289794264
12.416647592889296
12.595127285674327
12.755143561964331
12.724371201139341
13.093639531039395
13.721395691869475
13.967574578469504
13.875257495994497
13.746013580529487
13.635233081559479
13.499834693929458
13.352127361969417
13.198265557844394
13.050558225884384
12.933623254749365
12.816688283614349
12.699753312479329
12.545891508354309
12.410493120724286
12.29355814958927
12.170468706289268
12.041224790824256
11.93044429185422
11.80120037638921
11.6904198774192
11.573484906284182
11.462704407314172
11.38885074133414
11.27807024236413
11.185753159889122
11.074972660919112
10.964192161949104
10.859566135144078
10.754940108339051
10.638005137204033
10.354899417614002
8.046972355738674
5.006663106228215
3.4434271763179867
2.4525571577528327
1.7017115536227536
1.1970448360926755
0.8770122835126126
0.6000610360875902
0.40311792680755576
0.2431016505175243
0.11385773505251384
0.06462195773251911
-0.02769512474251612
-0.13232115154751534
-0.2061748175275213
-0.21232928969253104
-0.2184837618575408
-0.2554105948475438
-0.29233742783754685
-0.29233742783754685
-0.26771953917753555
-0.2554105948475438
-0.2246382340225228
-0.21232928969253104
-0.2246382340225228
-0.1938658731975296
-0.15078456804251686
-0.1261666793825056
-0.1261666793825056
-0.1015487907225221
-0.05231301340249961
0.02769512474251612
0.04615854123751762
0.0707764298975011
0.10770326288750408
0.1261666793825056
0.14463009587750708
0.18155692886753785
0.23079270618753256
0.30464637216753854
0.360036621652543
0.34772767732255133
0.360036621652543
0.4892805371175811
0.575443147427579
0.6123699804175821
0.6185244525825918
0.6308333969125834
0.6308333969125834
0.7046870628925893
0.8031586175326066
0.8216220340276081
0.8154675618626261
0.8031586175326066
0.9262480608326351
1.000101726812641
1.0431830319676536
1.0247196154726523
1.0308740876376343
1.0678009206276373
1.1662724752676545
1.2462806134126705
1.25243508557768
1.2832074464026733
1.3570611123826792
1.3816790010426905
1.4555326670226965
1.4555326670226965
1.4186058340326935
1.4493781948577145
1.510922916507701
1.5663131659927332
1.5663131659927332
1.5663131659927332
1.6401668319727392
1.7263294422827367
1.7694107474377496
1.7940286360977609
1.8248009969227539
1.8248009969227539
1.8371099412527454
1.8740367742427766
1.9171180793977614
1.9478904402227823
2.009435161872797
2.064825411357801
2.052516467027782
2.003280689707787
2.0278985783677985
2.1017522443478045
2.1694514381628007
2.2063782711528033
2.200223798987821
2.1756059103278105
2.2063782711528033
2.255614048472826
2.2309961598128147
2.2802319371328093
2.3848579639378364
2.391012436102846
2.372549019607845
2.409475852597848
2.3971669082678284
2.378703491772827
2.446402685587851
2.5325652958978484
2.575646601052861
2.587955545382853
2.581801073217871
2.649500267032867
2.68642710002287
2.655654739197877
2.575646601052861
2.6371913227028756
2.7418173495078744
2.729508405177883
2.6987360443528896
2.754126293837894
2.8279799598179
2.8156710154879088
2.7171994608478913
2.766435238167886
2.9141425701278982
2.994150708272913
2.932605986622927
2.8525978484779113
2.871061264972913
2.9818417639429216
3.006459652602933
2.9572238752829105
2.9264515144579173
3.006459652602933
3.0126141247679152
2.975687291777912
2.9879962361079313
3.0249230690979347
3.0987767350779407
3.1480125123979352
3.1295490959029335
3.0987767350779407
3.1110856794079322
3.1726304010579467
3.154166984562945
3.1295490959029335
3.160321456727955
3.2034027618829395
3.234175122707961
3.2526385392029624
3.301874316522957
3.332646677347978
3.3388011495129604
3.3264922051829684
3.332646677347978
3.332646677347978
3.3264922051829684
3.289565372192965
3.258793011367972
3.258793011367972
3.3141832608529764
3.35111009384298
3.332646677347978
3.3449556216779697
3.400345871162974
3.406500343327984
3.418809287657976
3.424963759822985
3.4557361206479786
3.449581648482997
3.461890592812989
3.4988174258029914
3.468045064977998
3.461890592812989
3.486508481473
3.511126370132983
3.511126370132983
3.468045064977998
3.591134508277999
3.5972889804430093
3.578825563948007
3.5665166196180156
3.560362147453006
3.591134508277999
3.5972889804430093
3.591134508277999
3.6034434526080172
3.5972889804430093
3.5972889804430093
3.5849800361130173
3.578825563948007
3.634215813433012
3.6834515907530063
3.7142239515780275
3.695760535083026
3.640370285598021
3.677297118588024
3.7080694794130173
3.6834515907530063
3.6896060629180156
3.6896060629180156
3.7080694794130173
3.7449963124030208
3.7449963124030208
3.75730525673304
3.788077617558033
3.7942320897230433
3.8065410340530352
3.75730525673304
3.732687368073029
3.800386561888025
3.8434678670430373
3.8188499783830263
3.8188499783830263
3.837313394878028
3.831158922713046
3.825004450548036
3.886549172198051
3.874240227868059
3.837313394878028
3.8619312835380395
3.8927036443630603
3.855776811373057
3.825004450548036
3.825004450548036
3.825004450548036
3.8434678670430373
3.825004450548036
3.837313394878028
3.8188499783830263
3.837313394878028
3.8927036443630603
3.874240227868059
3.8619312835380395
3.8680857557030492
3.886549172198051
3.8803947000330408
3.8803947000330408
3.886549172198051
3.9111670608580615
3.8927036443630603
3.8988581165280416
3.9111670608580615
3.8988581165280416
3.8803947000330408
3.886549172198051
3.9111670608580615
3.9050125886930522
3.9604028381780574
3.9727117825080476
3.9665573103430654
3.9111670608580615
3.8680857557030492
3.8803947000330408
3.9234760051880535
3.948093893848065
3.948093893848065
4.021947559828071
4.052719920653064
3.9850207268380675
3.9357849495180455
3.9419394216830552
3.9665573103430654
3.9788662546730578
4.021947559828071
4.028102031993082
3.9850207268380675
3.9911751990030497
4.034256504158063
4.003484143333068
4.009638615498079
4.0465654484880815
4.040410976323072
4.015793087663061
4.021947559828071
4.058874392818074
4.052719920653064
4.021947559828071
3.9911751990030497
3.9911751990030497
4.021947559828071
4.0711833371480655
4.0711833371480655
4.0465654484880815
4.052719920653064
4.021947559828071
3.9850207268380675
4.015793087663061
4.040410976323072
4.0711833371480655
4.0711833371480655
4.052719920653064
4.065028864983084
4.089646753643067
4.077337809313075
4.065028864983084
4.058874392818074
4.058874392818074
4.0711833371480655
4.040410976323072
4.0711833371480655
4.077337809313075
4.083492281478085
4.0711833371480655
4.040410976323072
4.021947559828071
4.0465654484880815
4.077337809313075
4.065028864983084
4.083492281478085
4.083492281478085
4.095801225808078
4.108110170138069
4.083492281478085
4.077337809313075
4.0465654484880815
4.058874392818074
4.0711833371480655
4.120419114468088
4.138882530963089
4.12657358663307
4.120419114468088
4.114264642303079
4.089646753643067
4.101955697973087
4.095801225808078
4.009638615498079
3.9665573103430654
3.9788662546730578
4.015793087663061
3.9788662546730578
3.9665573103430654
3.9419394216830552
3.9234760051880535
3.9234760051880535
3.9357849495180455
3.9542483660130467
3.9050125886930522
3.874240227868059
3.8988581165280416
3.9357849495180455
3.9111670608580615
3.9050125886930522
3.9173215330230438
3.9234760051880535
3.9173215330230438
3.9296304773530633
3.9542483660130467
3.948093893848065
3.948093893848065
3.9850207268380675
3.9911751990030497
3.9604028381780574
3.9911751990030497
4.065028864983084
4.0711833371480655
4.058874392818074
4.0465654484880815
4.021947559828071
4.015793087663061
4.003484143333068
3.9788662546730578
3.9357849495180455
3.9665573103430654
4.034256504158063
4.0465654484880815
3.9727117825080476
3.948093893848065
3.9850207268380675
4.003484143333068
4.003484143333068
4.009638615498079
3.9911751990030497
3.9973296711680604
4.040410976323072
4.077337809313075
4.0711833371480655
4.021947559828071
3.9727117825080476
4.003484143333068
4.028102031993082
3.9911751990030497
3.9727117825080476
3.9973296711680604
4.034256504158063
4.009638615498079
4.028102031993082
4.095801225808078
4.077337809313075
4.040410976323072
4.052719920653064
4.052719920653064
4.040410976323072
4.065028864983084
4.0711833371480655
4.0711833371480655
4.052719920653064
4.052719920653064
4.052719920653064
4.058874392818074
4.0465654484880815
4.065028864983084
4.077337809313075
4.0711833371480655
4.058874392818074
4.028102031993082
4.058874392818074
4.077337809313075
4.083492281478085
4.089646753643067
4.083492281478085
4.028102031993082
4.0465654484880815
4.120419114468088
4.145037003128072
4.138882530963089
4.108110170138069
4.077337809313075
4.077337809313075
4.0711833371480655
4.0711833371480655
4.065028864983084
4.120419114468088
4.12657358663307
4.089646753643067
4.065028864983084
4.095801225808078
4.065028864983084
3.9604028381780574
4.034256504158063
4.083492281478085
4.077337809313075
4.034256504158063
3.9911751990030497
4.021947559828071
4.034256504158063
3.9973296711680604
4.028102031993082
4.065028864983084
4.028102031993082
4.003484143333068
3.9973296711680604
4.009638615498079
4.009638615498079
3.9911751990030497
4.034256504158063
4.065028864983084
4.0465654484880815
4.028102031993082
4.034256504158063
4.065028864983084
4.120419114468088
4.114264642303079
4.089646753643067
4.052719920653064
4.089646753643067
4.101955697973087
4.0465654484880815
4.015793087663061
4.077337809313075
4.095801225808078
4.077337809313075
4.058874392818074
4.083492281478085
4.108110170138069
4.101955697973087
4.083492281478085
4.058874392818074
4.065028864983084
4.089646753643067
4.101955697973087
4.089646753643067
4.101955697973087
4.095801225808078
4.108110170138069
4.108110170138069
4.095801225808078
4.089646753643067
4.101955697973087
4.114264642303079
4.12657358663307
4.101955697973087
4.0465654484880815
4.101955697973087
4.188118308283084
4.12657358663307
4.089646753643067
4.077337809313075
4.0711833371480655
4.108110170138069
4.1327280587980795
4.095801225808078
4.065028864983084
4.095801225808078
4.138882530963089
4.138882530963089
4.1327280587980795
4.114264642303079
4.089646753643067
4.138882530963089
4.145037003128072
4.083492281478085
4.12657358663307
4.169654891788083
4.145037003128072
4.095801225808078
4.077337809313075
4.095801225808078
4.089646753643067
4.1327280587980795
4.157345947458091
4.114264642303079
4.1327280587980795
4.1327280587980795
4.114264642303079
4.12657358663307
4.145037003128072
4.151191475293081
4.169654891788083
4.188118308283084
4.163500419623101
4.120419114468088
4.101955697973087
4.108110170138069
4.101955697973087
4.1327280587980795
4.212736196943095
4.181963836118102
4.1327280587980795
4.12657358663307
4.12657358663307
4.1327280587980795
4.1327280587980795
4.157345947458091
4.1758093639530935
4.169654891788083
4.163500419623101
4.157345947458091
4.151191475293081
4.163500419623101
4.145037003128072
4.151191475293081
4.1758093639530935
4.169654891788083
4.225045141273086
4.188118308283084
4.145037003128072
4.145037003128072
4.145037003128072
4.145037003128072
4.151191475293081
4.101955697973087
4.083492281478085
4.138882530963089
4.1327280587980795
4.101955697973087
4.151191475293081
4.157345947458091
4.1327280587980795
4.12657358663307
4.157345947458091
4.163500419623101
4.151191475293081
4.120419114468088
4.095801225808078
4.108110170138069
4.163500419623101
4.225045141273086
4.249663029933098
4.231199613438097
4.249663029933098
4.261971974263091
4.231199613438097
4.1758093639530935
4.12657358663307
4.101955697973087
4.065028864983084
4.065028864983084
4.114264642303079
4.163500419623101
4.188118308283084
4.169654891788083
4.181963836118102
4.1758093639530935
4.145037003128072
4.12657358663307
4.1327280587980795
4.138882530963089
4.169654891788083
4.1942727804480935
4.181963836118102
4.157345947458091
4.1327280587980795
4.151191475293081
4.181963836118102
4.163500419623101
4.114264642303079
4.114264642303079
4.157345947458091
4.163500419623101
4.145037003128072
4.157345947458091
4.157345947458091
4.1942727804480935
4.188118308283084
4.188118308283084
4.1942727804480935
4.1758093639530935
4.157345947458091
4.169654891788083
4.200427252613103
4.243508557768089
4.249663029933098
4.212736196943095
4.169654891788083
4.145037003128072
4.169654891788083
4.231199613438097
4.27428091859311
4.255817502098108
4.225045141273086
4.212736196943095
4.231199613438097
4.237354085603107
4.218890669108104
4.231199613438097
4.249663029933098
4.261971974263091
4.2681264464281
4.249663029933098
4.261971974263091
4.249663029933098
4.231199613438097
4.2681264464281
4.292744335088111
4.280435390758092
4.2681264464281
4.27428091859311
4.255817502098108
4.249663029933098
4.249663029933098
4.249663029933098
4.225045141273086
4.2065817247780855
4.212736196943095
4.212736196943095
4.212736196943095
4.212736196943095
4.188118308283084
4.1758093639530935
4.200427252613103
4.2065817247780855
4.200427252613103
4.225045141273086
4.200427252613103
4.1758093639530935
4.181963836118102
4.2065817247780855
4.188118308283084
4.1758093639530935
4.1942727804480935
4.188118308283084
4.181963836118102
4.2065817247780855
4.212736196943095
4.151191475293081
4.181963836118102
4.181963836118102
4.1942727804480935
4.218890669108104
4.218890669108104
4.169654891788083
4.151191475293081
4.163500419623101
4.181963836118102
4.1942727804480935
4.163500419623101
4.169654891788083
4.1942727804480935
4.1942727804480935
4.188118308283084
4.1758093639530935
4.151191475293081
4.188118308283084
4.255817502098108
4.249663029933098
4.218890669108104
4.218890669108104
4.218890669108104
4.169654891788083
4.151191475293081
4.188118308283084
4.225045141273086
4.225045141273086
4.1942727804480935
4.181963836118102
4.1758093639530935
4.200427252613103
4.218890669108104
4.212736196943095
4.212736196943095
4.200427252613103
4.2065817247780855
4.218890669108104
4.200427252613103
4.163500419623101
4.163500419623101
4.163500419623101
4.188118308283084
4.2065817247780855
4.1942727804480935
4.1942727804480935
4.1942727804480935
4.163500419623101
4.169654891788083
4.1942727804480935
4.188118308283084
4.181963836118102
4.200427252613103
4.212736196943095
4.1942727804480935
4.169654891788083
4.163500419623101
4.212736196943095
4.231199613438097
4.212736196943095
4.1942727804480935
4.1758093639530935
4.1942727804480935
4.1942727804480935
4.188118308283084
4.212736196943095
4.212736196943095
4.1942727804480935
4.188118308283084
4.200427252613103
4.1942727804480935
4.1942727804480935
4.188118308283084
4.200427252613103
4.231199613438097
4.1758093639530935
4.1327280587980795
4.151191475293081
4.1327280587980795
4.181963836118102
4.237354085603107
4.255817502098108
4.243508557768089
4.169654891788083
4.151191475293081
4.2065817247780855
4.218890669108104
4.188118308283084
4.169654891788083
4.1942727804480935
4.212736196943095
4.2065817247780855
4.212736196943095
4.225045141273086
4.212736196943095
4.1942727804480935
4.212736196943095
4.237354085603107
4.231199613438097
4.188118308283084
4.200427252613103
4.225045141273086
4.212736196943095
4.212736196943095
4.212736196943095
4.1942727804480935
4.1758093639530935
4.200427252613103
4.200427252613103
4.188118308283084
4.200427252613103
4.188118308283084
4.188118308283084
4.188118308283084
4.1758093639530935
4.181963836118102
4.200427252613103
4.225045141273086
4.2065817247780855
4.157345947458091
4.12657358663307
4.114264642303079
4.1758093639530935
4.188118308283084
4.261971974263091
4.280435390758092
4.2865898629231
4.2865898629231
4.249663029933098
4.200427252613103
4.157345947458091
4.1758093639530935
4.1758093639530935
4.157345947458091
4.169654891788083
4.1942727804480935
4.181963836118102
4.181963836118102
4.188118308283084
4.1758093639530935
4.157345947458091
4.157345947458091
4.1758093639530935
4.188118308283084
4.188118308283084
4.181963836118102
4.169654891788083
4.1758093639530935
4.200427252613103
4.1942727804480935
4.169654891788083
4.145037003128072
4.157345947458091
4.212736196943095
4.200427252613103
4.145037003128072
4.151191475293081
4.169654891788083
4.169654891788083
4.169654891788083
4.1758093639530935
4.1758093639530935
4.188118308283084
4.2065817247780855
4.212736196943095
4.237354085603107
4.218890669108104
4.169654891788083
4.163500419623101
4.181963836118102
4.188118308283084
4.212736196943095
4.1942727804480935
4.163500419623101
4.1758093639530935
4.2065817247780855
4.200427252613103
4.2065817247780855
4.212736196943095
4.212736196943095
4.231199613438097
4.212736196943095
4.218890669108104
4.237354085603107
4.225045141273086
4.2065817247780855
4.225045141273086
4.237354085603107
4.231199613438097
4.218890669108104
4.237354085603107
4.218890669108104
4.181963836118102
4.200427252613103
4.225045141273086
4.231199613438097
4.231199613438097
4.225045141273086
4.212736196943095
4.1758093639530935
4.169654891788083
4.181963836118102
4.181963836118102
4.169654891788083
4.157345947458091
4.163500419623101
4.157345947458091
4.157345947458091
4.169654891788083
4.163500419623101
4.157345947458091
4.163500419623101
4.163500419623101
4.12657358663307
4.12657358663307
4.151191475293081
4.157345947458091
4.157345947458091
4.163500419623101
4.138882530963089
4.12657358663307
4.1327280587980795
4.151191475293081
4.157345947458091
4.163500419623101
4.188118308283084
4.181963836118102
4.138882530963089
4.1327280587980795
4.169654891788083
4.1758093639530935
4.163500419623101
4.151191475293081
4.1327280587980795
4.145037003128072
4.1758093639530935
4.157345947458091
4.145037003128072
4.138882530963089
4.120419114468088
4.138882530963089
4.169654891788083
4.1327280587980795
4.052719920653064
4.1327280587980795
4.163500419623101
4.157345947458091
4.12657358663307
4.114264642303079
4.145037003128072
4.151191475293081
4.138882530963089
4.151191475293081
4.181963836118102
4.151191475293081
4.138882530963089
4.200427252613103
4.1942727804480935
4.151191475293081
4.145037003128072
4.163500419623101
4.163500419623101
4.157345947458091
4.157345947458091
4.151191475293081
4.157345947458091
4.188118308283084
4.188118308283084
4.188118308283084
4.1758093639530935
4.145037003128072
4.12657358663307
4.169654891788083
4.188118308283084
4.188118308283084
4.1758093639530935
4.151191475293081
4.157345947458091
4.157345947458091
4.157345947458091
4.157345947458091
4.1758093639530935
4.181963836118102
4.1758093639530935
4.151191475293081
4.114264642303079
4.145037003128072
4.157345947458091
4.169654891788083
4.1758093639530935
4.200427252613103
4.2065817247780855
4.2065817247780855
4.188118308283084
4.163500419623101
4.145037003128072
4.157345947458091
4.169654891788083
4.163500419623101
4.181963836118102
4.188118308283084
4.163500419623101
4.1327280587980795
4.151191475293081
4.2065817247780855
4.225045141273086
4.1942727804480935
4.181963836118102
4.1758093639530935
4.188118308283084
4.200427252613103
4.212736196943095
4.2065817247780855
4.200427252613103
4.1942727804480935
4.2065817247780855
4.2065817247780855
4.181963836118102
4.157345947458091
4.163500419623101
4.169654891788083
4.181963836118102
4.188118308283084
4.169654891788083
4.163500419623101
4.169654891788083
4.163500419623101
4.169654891788083
4.1758093639530935
4.157345947458091
4.157345947458091
4.169654891788083
4.188118308283084
4.2065817247780855
4.1942727804480935
4.218890669108104
4.261971974263091
4.2681264464281
4.249663029933098
4.231199613438097
4.231199613438097
4.2065817247780855
4.181963836118102
4.163500419623101
4.157345947458091
4.1327280587980795
4.1327280587980795
4.169654891788083
4.200427252613103
4.200427252613103
4.188118308283084
4.1758093639530935
4.200427252613103
4.200427252613103
4.188118308283084
4.169654891788083
4.1758093639530935
4.1942727804480935
4.1758093639530935
4.169654891788083
4.169654891788083
4.181963836118102
4.1758093639530935
4.2065817247780855
4.200427252613103
4.138882530963089
4.188118308283084
4.188118308283084
4.188118308283084
4.1942727804480935
4.212736196943095
4.2065817247780855
4.200427252613103
4.157345947458091
4.138882530963089
4.1758093639530935
4.2065817247780855
4.2065817247780855
4.1942727804480935
4.188118308283084
4.169654891788083
4.151191475293081
4.181963836118102
4.2065817247780855
4.1942727804480935
4.225045141273086
4.255817502098108
4.231199613438097
4.188118308283084
4.120419114468088
4.225045141273086
4.2681264464281
4.249663029933098
4.225045141273086
4.218890669108104
4.243508557768089
4.231199613438097
4.212736196943095
4.218890669108104
4.218890669108104
4.200427252613103
4.2065817247780855
4.237354085603107
4.261971974263091
4.249663029933098
4.237354085603107
4.225045141273086
4.212736196943095
4.231199613438097
4.225045141273086
4.218890669108104
4.200427252613103
4.1942727804480935
4.181963836118102
4.1942727804480935
4.181963836118102
4.181963836118102
4.1942727804480935
4.1942727804480935
4.1758093639530935
4.163500419623101
4.157345947458091
4.163500419623101
4.188118308283084
4.181963836118102
4.163500419623101
4.169654891788083
4.200427252613103
4.1758093639530935
4.151191475293081
4.138882530963089
4.1758093639530935
4.2065817247780855
4.188118308283084
4.188118308283084
4.1758093639530935
4.163500419623101
4.181963836118102
4.212736196943095
4.1942727804480935
4.1758093639530935
4.188118308283084
4.1942727804480935
4.188118308283084
4.200427252613103
4.2065817247780855
4.1942727804480935
4.181963836118102
4.1942727804480935
4.212736196943095
4.212736196943095
4.188118308283084
4.181963836118102
4.1942727804480935
4.188118308283084
4.157345947458091
4.181963836118102
4.188118308283084
4.163500419623101
4.188118308283084
4.200427252613103
4.225045141273086
4.218890669108104
4.2065817247780855
4.188118308283084
4.181963836118102
4.181963836118102
4.212736196943095
4.225045141273086
4.1758093639530935
4.163500419623101
4.163500419623101
4.188118308283084
4.212736196943095
4.212736196943095
4.1758093639530935
4.1758093639530935
4.200427252613103
4.200427252613103
4.1942727804480935
4.181963836118102
4.1758093639530935
4.181963836118102
4.200427252613103
4.218890669108104
4.169654891788083
4.1327280587980795
4.120419114468088
4.200427252613103
4.212736196943095
4.1942727804480935
4.157345947458091
4.163500419623101
4.1758093639530935
4.188118308283084
4.1942727804480935
4.163500419623101
4.1758093639530935
4.181963836118102
4.169654891788083
4.169654891788083
4.181963836118102
4.200427252613103
4.218890669108104
4.1942727804480935
4.163500419623101
4.169654891788083
4.181963836118102
4.218890669108104
4.225045141273086
4.218890669108104
4.212736196943095
4.200427252613103
4.200427252613103
4.1942727804480935
4.2065817247780855
4.212736196943095
4.218890669108104
4.225045141273086
4.231199613438097
4.231199613438097
4.225045141273086
4.2065817247780855
4.212736196943095
4.200427252613103
4.181963836118102
4.169654891788083
4.200427252613103
4.231199613438097
4.225045141273086
4.2065817247780855
4.225045141273086
4.218890669108104
4.188118308283084
4.163500419623101
4.157345947458091
4.188118308283084
4.2065817247780855
4.243508557768089
4.243508557768089
4.237354085603107
4.237354085603107
4.218890669108104
4.243508557768089
4.280435390758092
4.3112077515831135
4.305053279418103
4.292744335088111
4.261971974263091
4.231199613438097
4.2065817247780855
4.181963836118102
4.200427252613103
4.2065817247780855
4.1942727804480935
4.200427252613103
4.200427252613103
4.218890669108104
4.243508557768089
4.218890669108104
4.2065817247780855
4.225045141273086
4.231199613438097
4.237354085603107
4.243508557768089
4.212736196943095
4.200427252613103
4.212736196943095
4.237354085603107
4.212736196943095
4.188118308283084
4.1942727804480935
4.1942727804480935
4.212736196943095
4.218890669108104
4.212736196943095
4.2065817247780855
4.212736196943095
4.218890669108104
4.237354085603107
4.225045141273086
4.2065817247780855
4.169654891788083
4.169654891788083
4.200427252613103
4.243508557768089
4.249663029933098
4.243508557768089
4.255817502098108
4.243508557768089
4.200427252613103
4.225045141273086
4.255817502098108
4.243508557768089
4.225045141273086
4.237354085603107
4.261971974263091
4.280435390758092
4.27428091859311
4.249663029933098
4.255817502098108
4.243508557768089
4.249663029933098
4.255817502098108
4.2681264464281
4.280435390758092
4.27428091859311
4.2865898629231
4.280435390758092
4.225045141273086
4.2865898629231
4.305053279418103
4.298898807253093
4.280435390758092
4.249663029933098
4.255817502098108
4.231199613438097
4.218890669108104
4.225045141273086
4.2065817247780855
4.2065817247780855
4.231199613438097
4.231199613438097
4.212736196943095
4.2065817247780855
4.2065817247780855
4.188118308283084
4.169654891788083
4.1758093639530935
4.1942727804480935
4.218890669108104
4.225045141273086
4.1942727804480935
4.188118308283084
4.200427252613103
4.2065817247780855
4.200427252613103
4.188118308283084
4.212736196943095
4.237354085603107
4.218890669108104
4.181963836118102
4.181963836118102
4.200427252613103
4.218890669108104
4.231199613438097
4.237354085603107
4.200427252613103
4.200427252613103
4.1942727804480935
4.1942727804480935
4.2065817247780855
4.212736196943095
4.200427252613103
4.2065817247780855
4.225045141273086
4.225045141273086
4.212736196943095
4.1942727804480935
4.2065817247780855
4.212736196943095
4.188118308283084
4.2065817247780855
4.218890669108104
4.225045141273086
4.255817502098108
4.2681264464281
4.261971974263091
4.218890669108104
4.188118308283084
4.169654891788083
4.181963836118102
4.2065817247780855
4.231199613438097
4.237354085603107
4.231199613438097
4.200427252613103
4.2065817247780855
4.2065817247780855
4.2065817247780855
4.1942727804480935
4.218890669108104
4.225045141273086
4.237354085603107
4.237354085603107
4.231199613438097
4.218890669108104
4.200427252613103
4.2065817247780855
4.243508557768089
4.243508557768089
4.225045141273086
4.1942727804480935
4.188118308283084
4.188118308283084
4.200427252613103
4.231199613438097
4.237354085603107
4.218890669108104
4.200427252613103
4.200427252613103
4.218890669108104
4.169654891788083
4.169654891788083
4.231199613438097
4.261971974263091
4.243508557768089
4.225045141273086
4.218890669108104
4.212736196943095
4.188118308283084
4.188118308283084
4.218890669108104
4.212736196943095
4.218890669108104
4.212736196943095
4.218890669108104
4.200427252613103
4.181963836118102
4.2065817247780855
4.218890669108104
4.231199613438097
4.212736196943095
4.225045141273086
4.225045141273086
4.225045141273086
4.231199613438097
4.231199613438097
4.231199613438097
4.237354085603107
4.243508557768089
4.2065817247780855
4.255817502098108
4.255817502098108
4.218890669108104
4.225045141273086
4.225045141273086
4.237354085603107
4.243508557768089
4.249663029933098
4.225045141273086
4.218890669108104
4.231199613438097
4.218890669108104
4.200427252613103
4.200427252613103
4.188118308283084
4.200427252613103
4.231199613438097
4.237354085603107
4.218890669108104
4.212736196943095
4.200427252613103
4.181963836118102
4.2065817247780855
4.243508557768089
4.249663029933098
4.249663029933098
4.2865898629231
4.298898807253093
4.298898807253093
4.292744335088111
4.261971974263091
4.225045141273086
4.2065817247780855
4.188118308283084
4.181963836118102
4.181963836118102
4.188118308283084
4.1942727804480935
4.1942727804480935
4.218890669108104
4.2065817247780855
4.181963836118102
4.181963836118102
4.1758093639530935
4.188118308283084
4.2065817247780855
4.218890669108104
4.1942727804480935
4.1942727804480935
4.200427252613103
4.2065817247780855
4.2065817247780855
4.1942727804480935
4.200427252613103
4.188118308283084
4.1758093639530935
4.200427252613103
4.2065817247780855
4.231199613438097
4.243508557768089
4.231199613438097
4.2065817247780855
4.200427252613103
4.2065817247780855
4.200427252613103
4.2065817247780855
4.200427252613103
4.212736196943095
4.2065817247780855
4.1942727804480935
4.200427252613103
4.243508557768089
4.237354085603107
4.225045141273086
4.231199613438097
4.243508557768089
4.249663029933098
4.255817502098108
4.255817502098108
4.249663029933098
4.2681264464281
4.255817502098108
4.255817502098108
4.249663029933098
4.243508557768089
4.237354085603107
4.237354085603107
4.249663029933098
4.261971974263091
4.280435390758092
4.2865898629231
4.2865898629231
4.292744335088111
4.261971974263091
4.2681264464281
4.2681264464281
4.261971974263091
4.27428091859311
4.280435390758092
4.237354085603107
4.1942727804480935
4.212736196943095
4.231199613438097
4.212736196943095
4.212736196943095
4.212736196943095
4.188118308283084
4.169654891788083
4.188118308283084
4.2065817247780855
4.1942727804480935
4.1758093639530935
4.181963836118102
4.169654891788083
4.169654891788083
4.1942727804480935
4.225045141273086
4.200427252613103
4.169654891788083
4.188118308283084
4.1942727804480935
4.1327280587980795
4.1942727804480935
4.200427252613103
4.218890669108104
4.237354085603107
4.225045141273086
4.188118308283084
4.181963836118102
4.188118308283084
4.169654891788083
4.1758093639530935
4.2065817247780855
4.218890669108104
4.225045141273086
4.243508557768089
4.255817502098108
4.218890669108104
4.200427252613103
4.2065817247780855
4.212736196943095
4.212736196943095
4.218890669108104
4.218890669108104
4.212736196943095
4.225045141273086
4.225045141273086
4.218890669108104
4.218890669108104
4.225045141273086
4.1942727804480935
4.169654891788083
4.181963836118102
4.225045141273086
4.255817502098108
4.280435390758092
4.237354085603107
4.2065817247780855
4.218890669108104
4.231199613438097
4.225045141273086
4.243508557768089
4.249663029933098
4.231199613438097
4.218890669108104
4.218890669108104
4.218890669108104
4.218890669108104
4.218890669108104
4.218890669108104
4.218890669108104
4.225045141273086
4.218890669108104
4.212736196943095
4.231199613438097
4.237354085603107
4.231199613438097
4.225045141273086
4.218890669108104
4.212736196943095
4.212736196943095
4.218890669108104
4.231199613438097
4.231199613438097
4.231199613438097
4.243508557768089
4.249663029933098
4.237354085603107
4.1942727804480935
4.188118308283084
4.231199613438097
4.255817502098108
4.231199613438097
4.243508557768089
4.243508557768089
4.249663029933098
4.243508557768089
4.237354085603107
4.231199613438097
4.231199613438097
4.249663029933098
4.261971974263091
4.249663029933098
4.225045141273086
4.231199613438097
4.237354085603107
4.225045141273086
4.237354085603107
4.255817502098108
4.249663029933098
4.2681264464281
4.2865898629231
4.2865898629231
4.2681264464281
4.237354085603107
4.2065817247780855
4.212736196943095
4.261971974263091
4.3173622237481215
4.292744335088111
4.255817502098108
4.249663029933098
4.231199613438097
4.231199613438097
4.231199613438097
4.231199613438097
4.212736196943095
4.212736196943095
4.237354085603107
4.249663029933098
4.237354085603107
4.231199613438097
4.218890669108104
4.212736196943095
4.218890669108104
4.218890669108104
4.225045141273086
4.231199613438097
4.27428091859311
4.280435390758092
4.27428091859311
4.27428091859311
4.2865898629231
4.2681264464281
4.298898807253093
4.27428091859311
4.249663029933098
4.212736196943095
4.181963836118102
4.188118308283084
4.1942727804480935
4.218890669108104
4.231199613438097
4.237354085603107
4.225045141273086
4.218890669108104
4.2065817247780855
4.200427252613103
4.231199613438097
4.255817502098108
4.243508557768089
4.231199613438097
4.249663029933098
4.243508557768089
4.225045141273086
4.212736196943095
4.237354085603107
4.249663029933098
4.243508557768089
4.237354085603107
4.255817502098108
4.249663029933098
4.249663029933098
4.255817502098108
4.243508557768089
4.225045141273086
4.237354085603107
4.237354085603107
4.231199613438097
4.261971974263091
4.261971974263091
4.261971974263091
4.261971974263091
4.237354085603107
4.1758093639530935
4.249663029933098
4.280435390758092
4.280435390758092
4.27428091859311
4.2681264464281
4.261971974263091
4.243508557768089
4.243508557768089
4.255817502098108
4.249663029933098
4.255817502098108
4.27428091859311
4.292744335088111
4.305053279418103
4.305053279418103
4.280435390758092
4.280435390758092
4.298898807253093
4.298898807253093
4.292744335088111
4.298898807253093
4.298898807253093
4.3173622237481215
4.323516695913104
4.3112077515831135
4.3112077515831135
4.3112077515831135
4.2865898629231
4.261971974263091
4.2681264464281
4.261971974263091
4.255817502098108
4.249663029933098
4.212736196943095
4.181963836118102
4.2065817247780855
4.243508557768089
4.237354085603107
4.212736196943095
4.218890669108104
4.200427252613103
4.1942727804480935
4.218890669108104
4.231199613438097
4.243508557768089
4.231199613438097
4.2065817247780855
4.200427252613103
4.200427252613103
4.212736196943095
4.218890669108104
4.218890669108104
4.200427252613103
4.1942727804480935
4.212736196943095
4.200427252613103
4.1942727804480935
4.1942727804480935
4.200427252613103
4.200427252613103
4.212736196943095
4.212736196943095
4.212736196943095
4.231199613438097
4.231199613438097
4.237354085603107
4.249663029933098
4.218890669108104
4.1942727804480935
4.200427252613103
4.200427252613103
4.1942727804480935
4.181963836118102
4.188118308283084
4.188118308283084
4.200427252613103
4.225045141273086
4.243508557768089
4.225045141273086
4.151191475293081
4.120419114468088
4.212736196943095
4.237354085603107
4.249663029933098
4.243508557768089
4.188118308283084
4.1758093639530935
4.188118308283084
4.200427252613103
4.188118308283084
4.1758093639530935
4.188118308283084
4.200427252613103
4.188118308283084
4.1942727804480935
4.1942727804480935
4.1942727804480935
4.1942727804480935
4.2065817247780855
4.225045141273086
4.200427252613103
4.188118308283084
4.212736196943095
4.218890669108104
4.2065817247780855
4.188118308283084
4.1942727804480935
4.200427252613103
4.188118308283084
4.1758093639530935
4.1942727804480935
4.225045141273086
4.225045141273086
4.200427252613103
4.2065817247780855
4.225045141273086
4.212736196943095
4.2065817247780855
4.200427252613103
4.212736196943095
4.1942727804480935
4.200427252613103
4.2065817247780855
4.181963836118102
4.212736196943095
4.231199613438097
4.212736196943095
4.200427252613103
4.2065817247780855
4.188118308283084
4.169654891788083
4.2065817247780855
4.218890669108104
4.2065817247780855
4.225045141273086
4.243508557768089
4.237354085603107
4.231199613438097
4.212736196943095
4.188118308283084
4.212736196943095
4.243508557768089
4.249663029933098
4.231199613438097
4.231199613438097
4.225045141273086
4.225045141273086
4.231199613438097
4.212736196943095
4.212736196943095
4.200427252613103
4.2065817247780855
4.1942727804480935
4.200427252613103
4.188118308283084
4.188118308283084
4.188118308283084
4.188118308283084
4.1942727804480935
4.188118308283084
4.181963836118102
4.1942727804480935
4.2065817247780855
4.225045141273086
4.237354085603107
4.231199613438097
4.243508557768089
4.2681264464281
4.292744335088111
4.292744335088111
4.292744335088111
4.255817502098108
4.231199613438097
4.1758093639530935
4.114264642303079
4.120419114468088
4.181963836118102
4.1942727804480935
4.1758093639530935
4.1758093639530935
4.181963836118102
4.188118308283084
4.188118308283084
4.200427252613103
4.1942727804480935
4.188118308283084
4.188118308283084
4.2065817247780855
4.231199613438097
4.2065817247780855
4.1942727804480935
4.1942727804480935
4.200427252613103
4.200427252613103
4.218890669108104
4.1942727804480935
4.1758093639530935
4.2065817247780855
4.200427252613103
4.188118308283084
4.2065817247780855
4.181963836118102
4.101955697973087
4.1327280587980795
4.163500419623101
4.212736196943095
4.231199613438097
4.237354085603107
4.218890669108104
4.1942727804480935
4.188118308283084
4.1942727804480935
4.225045141273086
4.231199613438097
4.231199613438097
4.218890669108104
4.231199613438097
4.243508557768089
4.237354085603107
4.243508557768089
4.243508557768089
4.243508557768089
4.243508557768089
4.255817502098108
4.2681264464281
4.27428091859311
4.27428091859311
4.261971974263091
4.231199613438097
4.225045141273086
4.249663029933098
4.237354085603107
4.27428091859311
4.292744335088111
4.280435390758092
4.280435390758092
4.280435390758092
4.255817502098108
4.255817502098108
4.27428091859311
4.255817502098108
4.237354085603107
4.218890669108104
4.225045141273086
4.231199613438097
4.212736196943095
4.218890669108104
4.1942727804480935
4.188118308283084
4.169654891788083
4.181963836118102
4.2065817247780855
4.200427252613103
4.188118308283084
4.1942727804480935
4.2065817247780855
4.212736196943095
4.1942727804480935
4.181963836118102
4.2065817247780855
4.237354085603107
4.212736196943095
4.181963836118102
4.1758093639530935
4.200427252613103
4.218890669108104
4.231199613438097
4.218890669108104
4.218890669108104
4.225045141273086
4.200427252613103
4.188118308283084
4.1942727804480935
4.2065817247780855
4.212736196943095
4.2065817247780855
4.231199613438097
4.218890669108104
4.212736196943095
4.218890669108104
4.225045141273086
4.237354085603107
4.231199613438097
4.2065817247780855
4.200427252613103
4.218890669108104
4.225045141273086
4.218890669108104
4.218890669108104
4.200427252613103
4.181963836118102
4.181963836118102
4.200427252613103
4.225045141273086
4.225045141273086
4.231199613438097
4.225045141273086
4.212736196943095
4.2065817247780855
4.225045141273086
4.218890669108104
4.225045141273086
4.218890669108104
4.1942727804480935
4.181963836118102
4.188118308283084
4.200427252613103
4.188118308283084
4.1758093639530935
4.1942727804480935
4.200427252613103
4.212736196943095
4.163500419623101
4.200427252613103
4.212736196943095
4.1942727804480935
4.200427252613103
4.181963836118102
4.1758093639530935
4.218890669108104
4.212736196943095
4.169654891788083
4.163500419623101
4.169654891788083
4.138882530963089
4.212736196943095
4.1942727804480935
4.212736196943095
4.188118308283084
4.1942727804480935
4.1942727804480935
4.200427252613103
4.200427252613103
4.1942727804480935
4.181963836118102
4.1942727804480935
4.218890669108104
4.225045141273086
4.200427252613103
4.169654891788083
4.188118308283084
4.200427252613103
4.231199613438097
4.218890669108104
4.212736196943095
4.225045141273086
4.231199613438097
4.261971974263091
4.255817502098108
4.231199613438097
4.231199613438097
4.225045141273086
4.218890669108104
4.181963836118102
4.181963836118102
4.200427252613103
4.218890669108104
4.212736196943095
4.1942727804480935
4.188118308283084
4.188118308283084
4.212736196943095
4.212736196943095
4.212736196943095
4.1942727804480935
4.1942727804480935
4.1942727804480935
4.2065817247780855
4.2065817247780855
4.200427252613103
4.237354085603107
4.2681264464281
4.261971974263091
4.255817502098108
4.255817502098108
4.243508557768089
4.218890669108104
4.200427252613103
4.181963836118102
4.157345947458091
4.163500419623101
4.1758093639530935
4.1758093639530935
4.181963836118102
4.2065817247780855
4.212736196943095
4.212736196943095
4.225045141273086
4.237354085603107
4.218890669108104
4.2065817247780855
4.188118308283084
4.181963836118102
4.181963836118102
4.212736196943095
4.218890669108104
4.200427252613103
4.1942727804480935
4.200427252613103
4.200427252613103
4.2065817247780855
4.2065817247780855
4.200427252613103
4.181963836118102
4.188118308283084
4.2065817247780855
4.200427252613103
4.218890669108104
4.231199613438097
4.212736196943095
4.2065817247780855
4.225045141273086
4.243508557768089
4.218890669108104
4.218890669108104
4.218890669108104
4.231199613438097
4.231199613438097
4.231199613438097
4.237354085603107
4.218890669108104
4.212736196943095
4.225045141273086
4.231199613438097
4.225045141273086
4.249663029933098
4.261971974263091
4.261971974263091
4.261971974263091
4.243508557768089
4.237354085603107
4.237354085603107
4.231199613438097
4.261971974263091
4.2865898629231
4.2865898629231
4.280435390758092
4.243508557768089
4.243508557768089
4.255817502098108
4.27428091859311
4.280435390758092
4.249663029933098
4.225045141273086
4.225045141273086
4.188118308283084
4.138882530963089
4.225045141273086
4.237354085603107
4.225045141273086
4.200427252613103
4.1758093639530935
4.169654891788083
4.1758093639530935
4.1758093639530935
4.163500419623101
4.169654891788083
4.188118308283084
4.188118308283084
4.181963836118102
4.1942727804480935
4.188118308283084
4.1942727804480935
4.181963836118102
4.169654891788083
4.1758093639530935
4.200427252613103
4.2065817247780855
4.200427252613103
4.188118308283084
4.225045141273086
4.212736196943095
4.188118308283084
4.2065817247780855
4.212736196943095
4.1942727804480935
4.169654891788083
4.188118308283084
4.200427252613103
4.1942727804480935
4.200427252613103
4.218890669108104
4.218890669108104
4.212736196943095
4.200427252613103
4.1942727804480935
4.212736196943095
4.225045141273086
4.218890669108104
4.231199613438097
4.231199613438097
4.218890669108104
4.212736196943095
4.2065817247780855
4.225045141273086
4.225045141273086
4.212736196943095
4.231199613438097
4.231199613438097
4.225045141273086
4.200427252613103
4.2065817247780855
4.200427252613103
4.2065817247780855
4.212736196943095
4.243508557768089
4.231199613438097
4.2065817247780855
4.200427252613103
4.200427252613103
4.218890669108104
4.225045141273086
4.243508557768089
4.249663029933098
4.249663029933098
4.231199613438097
4.1942727804480935
4.218890669108104
4.231199613438097
4.218890669108104
4.225045141273086
4.249663029933098
4.225045141273086
4.2065817247780855
4.218890669108104
4.237354085603107
4.249663029933098
4.225045141273086
4.200427252613103
4.1942727804480935
4.2065817247780855
4.225045141273086
4.225045141273086
4.225045141273086
4.237354085603107
4.225045141273086
4.1942727804480935
4.1758093639530935
4.200427252613103
4.225045141273086
4.237354085603107
4.231199613438097
4.218890669108104
4.212736196943095
4.225045141273086
4.243508557768089
4.249663029933098
4.218890669108104
4.2065817247780855
4.231199613438097
4.249663029933098
4.249663029933098
4.249663029933098
4.249663029933098
4.255817502098108
4.249663029933098
4.255817502098108
4.255817502098108
4.261971974263091
4.2865898629231
4.280435390758092
4.2681264464281
4.237354085603107
4.237354085603107
4.237354085603107
4.218890669108104
4.212736196943095
4.212736196943095
4.181963836118102
4.243508557768089
4.231199613438097
4.188118308283084
4.1758093639530935
4.181963836118102
4.1942727804480935
4.2065817247780855
4.231199613438097
4.231199613438097
4.188118308283084
4.1942727804480935
4.231199613438097
4.243508557768089
4.255817502098108
4.2865898629231
4.27428091859311
4.2865898629231
4.298898807253093
4.280435390758092
4.261971974263091
4.237354085603107
4.212736196943095
4.169654891788083
4.1758093639530935
4.212736196943095
4.237354085603107
4.243508557768089
4.212736196943095
4.188118308283084
4.2065817247780855
4.231199613438097
4.243508557768089
4.237354085603107
4.243508557768089
4.243508557768089
4.237354085603107
4.255817502098108
4.249663029933098
4.218890669108104
4.2065817247780855
4.218890669108104
4.225045141273086
4.231199613438097
4.225045141273086
4.225045141273086
4.225045141273086
4.237354085603107
4.237354085603107
4.212736196943095
4.225045141273086
4.249663029933098
4.243508557768089
4.255817502098108
4.237354085603107
4.225045141273086
4.237354085603107
4.231199613438097
4.1942727804480935
4.249663029933098
4.255817502098108
4.255817502098108
4.27428091859311
4.27428091859311
4.27428091859311
4.243508557768089
4.231199613438097
4.231199613438097
4.255817502098108
4.249663029933098
4.237354085603107
4.237354085603107
4.261971974263091
4.298898807253093
4.323516695913104
4.280435390758092
4.292744335088111
4.298898807253093
4.2865898629231
4.298898807253093
4.298898807253093
4.2865898629231
4.292744335088111
4.3173622237481215
4.3173622237481215
4.2865898629231
4.280435390758092
4.255817502098108
4.249663029933098
4.231199613438097
4.225045141273086
4.249663029933098
4.243508557768089
4.218890669108104
4.212736196943095
4.225045141273086
4.218890669108104
4.212736196943095
4.218890669108104
4.218890669108104
4.212736196943095
4.1942727804480935
4.1942727804480935
4.200427252613103
4.218890669108104
4.218890669108104
4.218890669108104
4.231199613438097
4.225045141273086
4.2065817247780855
4.212736196943095
4.212736196943095
4.1942727804480935
4.181963836118102
4.2065817247780855
4.237354085603107
4.231199613438097
4.218890669108104
4.2065817247780855
4.1942727804480935
4.212736196943095
4.225045141273086
4.200427252613103
4.255817502098108
4.237354085603107
4.218890669108104
4.212736196943095
4.212736196943095
4.1942727804480935
4.188118308283084
4.1942727804480935
4.1942727804480935
4.212736196943095
4.243508557768089
4.249663029933098
4.225045141273086
4.1942727804480935
4.2065817247780855
4.212736196943095
4.218890669108104
4.225045141273086
4.218890669108104
4.212736196943095
4.218890669108104
4.2065817247780855
4.200427252613103
4.212736196943095
4.231199613438097
4.237354085603107
4.237354085603107
4.218890669108104
4.212736196943095
4.200427252613103
4.212736196943095
4.237354085603107
4.231199613438097
4.218890669108104
4.2065817247780855
4.218890669108104
4.231199613438097
4.231199613438097
4.218890669108104
4.218890669108104
4.218890669108104
4.225045141273086
4.225045141273086
4.243508557768089
4.249663029933098
4.225045141273086
4.225045141273086
4.237354085603107
4.237354085603107
4.231199613438097
4.231199613438097
4.237354085603107
4.237354085603107
4.231199613438097
4.231199613438097
4.231199613438097
4.212736196943095
4.1942727804480935
4.2065817247780855
4.218890669108104
4.225045141273086
4.243508557768089
4.249663029933098
4.237354085603107
4.231199613438097
4.249663029933098
4.249663029933098
4.225045141273086
4.212736196943095
4.212736196943095
4.231199613438097
4.255817502098108
4.243508557768089
4.231199613438097
4.243508557768089
4.249663029933098
4.255817502098108
4.2681264464281
4.2681264464281
4.249663029933098
4.231199613438097
4.218890669108104
4.243508557768089
4.27428091859311
4.2865898629231
4.2681264464281
4.261971974263091
4.261971974263091
4.243508557768089
4.237354085603107
4.255817502098108
4.243508557768089
4.249663029933098
4.280435390758092
4.27428091859311
4.231199613438097
4.218890669108104
4.181963836118102
4.169654891788083
4.212736196943095
4.231199613438097
4.225045141273086
4.237354085603107
4.255817502098108
4.249663029933098
4.231199613438097
4.237354085603107
4.27428091859311
4.3173622237481215
4.3173622237481215
4.3173622237481215
4.329671168078114
4.298898807253093
4.255817502098108
4.212736196943095
4.188118308283084
4.181963836118102
4.212736196943095
4.212736196943095
4.212736196943095
4.218890669108104
4.1942727804480935
4.249663029933098
4.1942727804480935
4.200427252613103
4.212736196943095
4.237354085603107
4.237354085603107
4.243508557768089
4.249663029933098
4.243508557768089
4.231199613438097
4.218890669108104
4.225045141273086
4.249663029933098
4.243508557768089
4.212736196943095
4.218890669108104
4.231199613438097
4.231199613438097
4.231199613438097
4.237354085603107
4.243508557768089
4.231199613438097
4.237354085603107
4.225045141273086
4.218890669108104
4.218890669108104
4.231199613438097
4.243508557768089
4.255817502098108
4.261971974263091
4.249663029933098
4.231199613438097
4.231199613438097
4.255817502098108
4.255817502098108
4.237354085603107
4.243508557768089
4.249663029933098
4.2865898629231
4.298898807253093
4.280435390758092
4.2681264464281
4.255817502098108
4.255817502098108
4.292744335088111
4.298898807253093
4.2681264464281
4.27428091859311
4.305053279418103
4.305053279418103
4.298898807253093
4.323516695913104
4.3112077515831135
4.292744335088111
4.298898807253093
4.292744335088111
4.2865898629231
4.298898807253093
4.2865898629231
4.255817502098108
4.243508557768089
4.237354085603107
4.237354085603107
4.237354085603107
4.231199613438097
4.225045141273086
4.225045141273086
4.225045141273086
4.237354085603107
4.2065817247780855
4.1942727804480935
4.1942727804480935
4.231199613438097
4.231199613438097
4.231199613438097
4.2065817247780855
4.1942727804480935
4.218890669108104
4.243508557768089
4.237354085603107
4.237354085603107
4.231199613438097
4.231199613438097
4.218890669108104
4.225045141273086
4.225045141273086
4.212736196943095
4.2065817247780855
4.212736196943095
4.243508557768089
4.225045141273086
4.225045141273086
4.218890669108104
4.225045141273086
4.243508557768089
4.237354085603107
4.225045141273086
4.231199613438097
4.225045141273086
4.218890669108104
4.231199613438097
4.255817502098108
4.249663029933098
4.249663029933098
4.2681264464281
4.249663029933098
4.237354085603107
4.243508557768089
4.243508557768089
4.243508557768089
4.261971974263091
4.261971974263091
4.261971974263091
4.237354085603107
4.231199613438097
4.237354085603107
4.237354085603107
4.249663029933098
4.231199613438097
4.231199613438097
4.231199613438097
4.1942727804480935
4.243508557768089
4.249663029933098
4.231199613438097
4.2065817247780855
4.151191475293081
4.212736196943095
4.255817502098108
4.2681264464281
4.27428091859311
4.261971974263091
4.231199613438097
4.218890669108104
4.218890669108104
4.237354085603107
4.237354085603107
4.231199613438097
4.231199613438097
4.237354085603107
4.243508557768089
4.255817502098108
4.231199613438097
4.231199613438097
4.231199613438097
4.237354085603107
4.249663029933098
4.261971974263091
4.237354085603107
4.231199613438097
4.243508557768089
4.243508557768089
4.249663029933098
4.237354085603107
4.231199613438097
4.255817502098108
4.255817502098108
4.237354085603107
4.231199613438097
4.231199613438097
4.243508557768089
4.255817502098108
4.237354085603107
4.237354085603107
4.255817502098108
4.237354085603107
4.225045141273086
4.249663029933098
4.261971974263091
4.261971974263091
4.280435390758092
4.2681264464281
4.255817502098108
4.249663029933098
4.261971974263091
4.27428091859311
4.2865898629231
4.298898807253093
4.2681264464281
4.261971974263091
4.261971974263091
4.255817502098108
4.261971974263091
4.2681264464281
4.231199613438097
4.225045141273086
4.249663029933098
4.249663029933098
4.249663029933098
4.237354085603107
4.243508557768089
4.237354085603107
4.225045141273086
4.231199613438097
4.231199613438097
4.231199613438097
4.225045141273086
4.225045141273086
4.212736196943095
4.225045141273086
4.237354085603107
4.237354085603107
4.261971974263091
4.280435390758092
4.292744335088111
4.3173622237481215
4.3173622237481215
4.280435390758092
4.2865898629231
4.255817502098108
4.231199613438097
4.1942727804480935
4.163500419623101
4.181963836118102
4.255817502098108
4.280435390758092
4.243508557768089
4.225045141273086
4.237354085603107
4.237354085603107
4.243508557768089
4.249663029933098
4.237354085603107
4.243508557768089
4.2681264464281
4.255817502098108
4.225045141273086
4.218890669108104
4.243508557768089
4.255817502098108
4.249663029933098
4.237354085603107
4.225045141273086
4.225045141273086
4.243508557768089
4.231199613438097
4.255817502098108
4.255817502098108
4.231199613438097
4.237354085603107
4.255817502098108
4.249663029933098
4.237354085603107
4.1942727804480935
4.225045141273086
4.2681264464281
4.261971974263091
4.27428091859311
4.261971974263091
4.255817502098108
4.2681264464281
4.261971974263091
4.27428091859311
4.298898807253093
4.292744335088111
4.280435390758092
4.280435390758092
4.292744335088111
4.292744335088111
4.280435390758092
4.2865898629231
4.329671168078114
4.323516695913104
4.298898807253093
4.305053279418103
4.323516695913104
4.348134584573115
4.323516695913104
4.3173622237481215
4.3173622237481215
4.3173622237481215
4.329671168078114
4.323516695913104
4.3173622237481215
4.298898807253093
4.2865898629231
4.305053279418103
4.2865898629231
4.2681264464281
4.255817502098108
4.261971974263091
4.261971974263091
4.249663029933098
4.243508557768089
4.261971974263091
4.2865898629231
4.280435390758092
4.237354085603107
4.212736196943095
4.212736196943095
4.218890669108104
4.243508557768089
4.249663029933098
4.231199613438097
4.2065817247780855
4.225045141273086
4.237354085603107
4.2065817247780855
4.2065817247780855
4.237354085603107
4.280435390758092
4.2681264464281
4.237354085603107
4.237354085603107
4.255817502098108
4.261971974263091
4.243508557768089
4.218890669108104
4.231199613438097
4.255817502098108
4.255817502098108
4.231199613438097
4.231199613438097
4.249663029933098
4.249663029933098
4.243508557768089
4.2681264464281
4.2681264464281
4.243508557768089
4.243508557768089
4.237354085603107
4.225045141273086
4.249663029933098
4.2681264464281
4.243508557768089
4.225045141273086
4.231199613438097
4.255817502098108
4.280435390758092
4.27428091859311
4.261971974263091
4.237354085603107
4.225045141273086
4.243508557768089
4.2681264464281
4.249663029933098
4.231199613438097
4.212736196943095
4.249663029933098
4.2681264464281
4.255817502098108
4.27428091859311
4.2865898629231
4.27428091859311
4.243508557768089
4.218890669108104
4.225045141273086
4.249663029933098
4.249663029933098
4.255817502098108
4.261971974263091
4.261971974263091
4.243508557768089
4.243508557768089
4.243508557768089
4.237354085603107
4.255817502098108
4.2865898629231
4.292744335088111
4.261971974263091
4.231199613438097
4.218890669108104
4.249663029933098
4.27428091859311
4.249663029933098
4.181963836118102
4.243508557768089
4.255817502098108
4.249663029933098
4.212736196943095
4.212736196943095
4.225045141273086
4.249663029933098
4.2681264464281
4.255817502098108
4.255817502098108
4.249663029933098
4.249663029933098
4.261971974263091
4.2865898629231
4.323516695913104
4.354289056738125
4.348134584573115
4.335825640243124
4.3727524732331275
4.391215889728128
4.434297194883113
4.471224027873144
4.538923221688139
4.67432160931816
4.895882607258178
5.178988326848239
5.505175351593283
5.782126599018307
6.280638844383374
7.591541415528619
8.656265100073778
8.594720378423766
8.434704102133733
9.111696040283835
10.010248976373951
10.576460415554044
10.994964522774097
11.364232852674155
11.505785712469157
11.216525520714116
10.958037689784096
11.050354772259102
11.518094656799176
11.991989013504234
12.262785788764273
12.348948399074299
12.225858955774271
12.09661504030926
12.115078456804262
12.102769512474243
11.924289819689237
11.745810126904205
11.54886701762417
11.41346862999415
11.727346710409204
11.511940184634168
11.37654179700415
10.76724905266907
10.521070166069041
10.564151471224026
11.105745021744108
12.21355001144428
12.533582564024314
12.459728898044307
11.97352559700923
11.7950459042242
12.244322372269272
12.342793926909291
12.422802065054306
12.404338648559305
12.385875232064304
12.17662317845425
11.918135347524228
11.401159685664158
10.065639225858957
8.957834236158813
8.059281300068694
7.136110475318563
6.040614429948354
5.234378576333243
4.058874392818074
3.3203377330179586
2.7910531268278973
2.409475852597848
2.064825411357801
1.7817196917677414
1.5724676381577152
1.3878334732077002
1.2401261412476885
1.1231911701126696
1.0370285598026439
0.9816383103176396
0.9385570051626267
0.9324025329976448
0.901630172172624
0.8647033391826209
0.8523943948526291
0.8647033391826209
0.8647033391826209
0.8647033391826209
0.8647033391826209
0.8831667556776225
0.9077846443376336
0.9324025329976448
0.9631748938226381
1.000101726812641
1.0185651433076426
1.0185651433076426
1.0493375041326358
1.0862643371226666
1.11088222578265
1.1539635309376628
1.1970448360926755
1.2278171969176688
1.2462806134126705
1.2585895577426898
1.2832074464026733
1.3201342793926762
1.3447521680526875
1.3447521680526875
1.3509066402176972
1.363215584547689
1.4493781948577145
1.473996083517698
1.4924595000126994
1.5170773886727107
1.5293863330027024
1.5478497494977315
1.5724676381577152
1.590931054652717
1.6401668319727392
1.689402609292734
1.7263294422827367
1.7324839144477464
1.7694107474377496
1.8124920525927626
1.8248009969227539
1.855573357747775
1.89865466290276
1.9294270237277809
1.9232725515627715
1.9355814958927628
1.9971262175427773
2.0463619948628
2.083288827852803
2.1325246051727973
2.1632969659978185
2.1632969659978185
2.187914854657802
2.2186872154828228
2.2309961598128147
2.249459576307816
2.261768520637808
2.3171587701228398
2.360240075277825
2.378703491772827
2.3971669082678284
2.4217847969278394
2.4279392690928487
2.471020574247862
2.501792935072855
2.5141018794028467
2.520256351567857
2.544874240227868
2.581801073217871
2.606418961877855
2.624882378372884
2.649500267032867
2.680272627857888
2.704890516517872
2.723353933012873
2.7171994608478913
2.729508405177883
2.747971821672884
2.772589710332896
2.83413443198291
2.8525978484779113
2.8525978484779113
2.858752320642893
2.895679153632896
2.8895246814679143
2.907988097962916
2.944914930952919
2.9510694031179288
2.96953281961293
3.006459652602933
3.043386485592936
3.055695429922928
3.055695429922928
3.055695429922928
3.080313318582939
3.0987767350779407
3.141858040232953
3.1480125123979352
3.1110856794079322
3.1233946237379517
3.160321456727955
3.166475928892937
3.1726304010579467
3.2034027618829395
3.2403295948729705
3.234175122707961
3.215711706212959
3.2403295948729705
3.277256427862973
3.277256427862973
3.271101955697964
3.3203377330179586
3.35111009384298
3.35111009384298
3.3449556216779697
3.357264566007961
3.406500343327984
3.418809287657976
3.406500343327984
3.406500343327984
3.4311182319879947
3.4434271763179867
3.461890592812989
3.48035400930799
3.4926629536379816
3.4926629536379816
3.511126370132983
3.504971897968001
3.4926629536379816
3.5172808422979926
3.554207675287996
3.5665166196180156
3.548053203123014
3.529589786627985
3.541898730958004
3.578825563948007
3.5972889804430093
3.578825563948007
3.572671091782997
3.5849800361130173
3.6219068691030203
3.628061341268002
3.640370285598021
3.640370285598021
3.652679229928013
3.658833702093023
3.6465247577630033
3.634215813433012
3.701915007248036
3.720378423743037
3.695760535083026
3.738841840238039
3.763459728898022
3.781923145393024
3.7757686732280415
3.7696142010630322
3.75115078456803
3.732687368073029
3.695760535083026
3.695760535083026
3.720378423743037
3.7449963124030208
3.7696142010630322
3.7757686732280415
3.75730525673304
3.7757686732280415
3.8188499783830263
3.800386561888025
3.788077617558033
3.8065410340530352
3.831158922713046
3.8434678670430373
3.8496223392080475
3.8619312835380395
3.8619312835380395
3.837313394878028
3.837313394878028
3.8434678670430373
3.8680857557030492
3.8803947000330408
3.874240227868059
3.8619312835380395
3.8680857557030492
3.874240227868059
3.9050125886930522
3.9234760051880535
3.9173215330230438
3.9050125886930522
3.9173215330230438
3.9357849495180455
3.9419394216830552
3.9357849495180455
3.9419394216830552
3.9419394216830552
3.9542483660130467
3.9542483660130467
3.9604028381780574
3.9665573103430654
3.9727117825080476
3.9604028381780574
3.9727117825080476
3.9727117825080476
3.9788662546730578
4.003484143333068
4.021947559828071
4.028102031993082
4.034256504158063
4.021947559828071
4.040410976323072
4.040410976323072
4.052719920653064
4.052719920653064
4.040410976323072
4.065028864983084
4.095801225808078
4.083492281478085
4.077337809313075
4.083492281478085
4.089646753643067
4.089646753643067
4.114264642303079
4.089646753643067
4.052719920653064
4.040410976323072
4.052719920653064
4.052719920653064
4.052719920653064
4.052719920653064
4.058874392818074
4.052719920653064
4.040410976323072
4.052719920653064
4.040410976323072
4.009638615498079
4.028102031993082
4.083492281478085
4.089646753643067
4.052719920653064
4.028102031993082
4.040410976323072
4.052719920653064
4.052719920653064
4.065028864983084
4.0711833371480655
4.0711833371480655
4.058874392818074
4.065028864983084
4.083492281478085
4.089646753643067
4.077337809313075
4.065028864983084
4.058874392818074
4.052719920653064
4.0711833371480655
4.077337809313075
4.095801225808078
4.114264642303079
4.108110170138069
4.095801225808078
4.101955697973087
4.108110170138069
4.12657358663307
4.095801225808078
4.095801225808078
4.120419114468088
4.12657358663307
4.120419114468088
4.120419114468088
4.083492281478085
4.003484143333068
4.083492281478085
4.12657358663307
4.151191475293081
4.145037003128072
4.1327280587980795
4.101955697973087
4.108110170138069
4.145037003128072
4.157345947458091
4.12657358663307
4.108110170138069
4.120419114468088
4.120419114468088
4.108110170138069
4.114264642303079
4.145037003128072
4.151191475293081
4.120419114468088
4.120419114468088
4.114264642303079
4.108110170138069
4.052719920653064
4.138882530963089
4.169654891788083
4.157345947458091
4.145037003128072
4.120419114468088
4.1327280587980795
4.1327280587980795
4.101955697973087
4.151191475293081
4.157345947458091
4.12657358663307
4.108110170138069
4.120419114468088
4.1327280587980795
4.163500419623101
4.169654891788083
4.169654891788083
4.163500419623101
4.169654891788083
4.151191475293081
4.145037003128072
4.157345947458091
4.169654891788083
4.151191475293081
4.157345947458091
4.163500419623101
4.163500419623101
4.1758093639530935
4.188118308283084
4.188118308283084
4.1758093639530935
4.157345947458091
4.157345947458091
4.157345947458091
4.145037003128072
4.169654891788083
4.200427252613103
4.188118308283084
4.188118308283084
4.218890669108104
4.225045141273086
4.2065817247780855
4.200427252613103
4.2065817247780855
4.1942727804480935
4.188118308283084
4.200427252613103
4.188118308283084
4.169654891788083
4.1942727804480935
4.188118308283084
4.1758093639530935
4.181963836118102
4.200427252613103
4.181963836118102
4.1942727804480935
4.2065817247780855
4.200427252613103
4.1758093639530935
4.181963836118102
4.188118308283084
4.188118308283084
4.1942727804480935
4.200427252613103
4.212736196943095
4.218890669108104
4.243508557768089
4.243508557768089
4.261971974263091
4.27428091859311
4.2681264464281
4.237354085603107
4.200427252613103
4.169654891788083
4.163500419623101
4.157345947458091
4.157345947458091
4.157345947458091
4.188118308283084
4.200427252613103
4.1942727804480935
4.200427252613103
4.218890669108104
4.200427252613103
4.181963836118102
4.169654891788083
4.169654891788083
4.181963836118102
4.188118308283084
4.2065817247780855
4.225045141273086
4.225045141273086
4.2065817247780855
4.200427252613103
4.188118308283084
4.181963836118102
4.212736196943095
4.225045141273086
4.188118308283084
4.120419114468088
4.200427252613103
4.181963836118102
4.188118308283084
4.188118308283084
4.188118308283084
4.1942727804480935
4.1942727804480935
4.212736196943095
4.231199613438097
4.243508557768089
4.200427252613103
4.188118308283084
4.2065817247780855
4.218890669108104
4.231199613438097
4.237354085603107
4.231199613438097
4.225045141273086
4.225045141273086
4.218890669108104
4.212736196943095
4.249663029933098
4.27428091859311
4.261971974263091
4.243508557768089
4.261971974263091
4.2865898629231
4.2865898629231
4.261971974263091
4.255817502098108
4.261971974263091
4.261971974263091
4.249663029933098
4.27428091859311
4.298898807253093
4.2865898629231
4.255817502098108
4.2681264464281
4.2865898629231
4.261971974263091
4.225045141273086
4.231199613438097
4.218890669108104
4.200427252613103
4.188118308283084
4.200427252613103
4.2065817247780855
4.200427252613103
4.1758093639530935
4.1758093639530935
4.188118308283084
4.1942727804480935
4.200427252613103
4.212736196943095
4.200427252613103
4.188118308283084
4.200427252613103
4.212736196943095
4.1942727804480935
4.1942727804480935
4.212736196943095
4.200427252613103
4.200427252613103
4.2065817247780855
4.181963836118102
4.163500419623101
4.1942727804480935
4.225045141273086
4.225045141273086
4.200427252613103
4.1942727804480935
4.2065817247780855
4.218890669108104
4.212736196943095
4.2065817247780855
4.1942727804480935
4.200427252613103
4.212736196943095
4.231199613438097
4.243508557768089
4.225045141273086
4.2065817247780855
4.218890669108104
4.225045141273086
4.2065817247780855
4.2065817247780855
4.200427252613103
4.2065817247780855
