4.169654891788083
4.1758093639530935
4.188118308283084
4.1942727804480935
4.2065817247780855
4.2065817247780855
4.200427252613103
4.212736196943095
4.2065817247780855
4.2065817247780855
4.2065817247780855
4.200427252613103
4.1942727804480935
4.200427252613103
4.200427252613103
4.200427252613103
4.1942727804480935
4.200427252613103
4.212736196943095
4.225045141273086
4.2065817247780855
4.2065817247780855
4.200427252613103
4.2065817247780855
4.218890669108104
4.212736196943095
4.212736196943095
4.2065817247780855
4.212736196943095
4.218890669108104
4.212736196943095
4.212736196943095
4.200427252613103
4.1942727804480935
4.1942727804480935
4.1758093639530935
4.163500419623101
4.163500419623101
4.1758093639530935
4.200427252613103
4.212736196943095
4.1942727804480935
4.1942727804480935
4.188118308283084
4.188118308283084
4.188118308283084
4.1942727804480935
4.188118308283084
4.181963836118102
4.181963836118102
4.181963836118102
4.1758093639530935
4.169654891788083
4.169654891788083
4.169654891788083
4.163500419623101
4.151191475293081
4.163500419623101
4.163500419623101
4.1758093639530935
4.181963836118102
4.181963836118102
4.1758093639530935
4.181963836118102
4.181963836118102
4.181963836118102
4.181963836118102
4.1758093639530935
4.181963836118102
4.1758093639530935
4.188118308283084
4.188118308283084
4.188118308283084
4.188118308283084
4.163500419623101
4.114264642303079
4.1942727804480935
4.1942727804480935
4.1942727804480935
4.188118308283084
4.1758093639530935
4.1758093639530935
4.169654891788083
4.145037003128072
4.163500419623101
4.1758093639530935
4.1758093639530935
4.1758093639530935
4.169654891788083
4.169654891788083
4.169654891788083
4.1758093639530935
4.169654891788083
4.169654891788083
4.1758093639530935
4.1758093639530935
4.169654891788083
4.181963836118102
4.169654891788083
4.169654891788083
4.1758093639530935
4.1758093639530935
4.169654891788083
4.163500419623101
4.1758093639530935
4.1758093639530935
4.1327280587980795
4.151191475293081
4.2065817247780855
4.1942727804480935
4.188118308283084
4.181963836118102
4.1758093639530935
4.169654891788083
4.145037003128072
4.157345947458091
4.181963836118102
4.1942727804480935
4.1942727804480935
4.188118308283084
4.200427252613103
4.212736196943095
4.218890669108104
4.218890669108104
4.218890669108104
4.200427252613103
4.188118308283084
4.157345947458091
4.145037003128072
4.181963836118102
4.225045141273086
4.237354085603107
4.218890669108104
4.218890669108104
4.2065817247780855
4.188118308283084
4.169654891788083
4.181963836118102
4.163500419623101
4.157345947458091
4.188118308283084
4.181963836118102
4.181963836118102
4.181963836118102
4.169654891788083
4.169654891788083
4.157345947458091
4.157345947458091
4.157345947458091
4.163500419623101
4.1942727804480935
4.231199613438097
4.27428091859311
4.305053279418103
4.329671168078114
4.348134584573115
4.3173622237481215
4.243508557768089
4.1942727804480935
4.138882530963089
4.089646753643067
4.058874392818074
4.040410976323072
4.065028864983084
4.095801225808079
4.114264642303079
4.12657358663307
4.138882530963089
4.138882530963089
4.145037003128072
4.157345947458091
4.157345947458091
4.157345947458091
4.157345947458091
4.163500419623101
4.169654891788083
4.169654891788083
4.163500419623101
4.163500419623101
4.1758093639530935
4.169654891788083
4.181963836118102
4.188118308283084
4.188118308283084
4.188118308283084
4.188118308283084
4.188118308283084
4.1942727804480935
4.1942727804480935
4.1942727804480935
4.188118308283084
4.2065817247780855
4.218890669108104
4.2065817247780855
4.200427252613103
4.1942727804480935
4.1942727804480935
4.1758093639530935
4.237354085603107
4.231199613438097
4.212736196943095
4.188118308283084
4.212736196943095
4.231199613438097
4.225045141273086
4.231199613438097
4.243508557768089
4.243508557768089
4.243508557768089
4.243508557768089
4.249663029933098
4.249663029933098
4.255817502098108
4.237354085603107
4.231199613438097
4.231199613438097
4.249663029933098
4.243508557768089
4.237354085603107
4.225045141273086
4.218890669108104
4.231199613438097
4.237354085603107
4.231199613438097
4.212736196943095
4.212736196943095
4.218890669108104
4.218890669108104
4.218890669108104
4.2065817247780855
4.188118308283084
4.2065817247780855
4.200427252613103
4.2065817247780855
4.2065817247780855
4.2065817247780855
4.200427252613103
4.200427252613103
4.200427252613103
4.2065817247780855
4.212736196943095
4.218890669108104
4.2065817247780855
4.188118308283084
4.188118308283084
4.212736196943095
4.212736196943095
4.2065817247780855
4.2065817247780855
4.218890669108104
4.212736196943095
4.212736196943095
4.200427252613103
4.1942727804480935
4.200427252613103
4.200427252613103
4.2065817247780855
4.225045141273086
4.212736196943095
4.2065817247780855
4.2065817247780855
4.225045141273086
4.231199613438097
4.237354085603107
4.237354085603107
4.225045141273086
4.231199613438097
4.237354085603107
4.243508557768089
4.249663029933098
4.255817502098108
4.249663029933098
4.249663029933098
4.243508557768089
4.249663029933098
4.243508557768089
4.243508557768089
4.225045141273086
4.231199613438097
4.237354085603107
4.249663029933098
4.255817502098108
4.243508557768089
4.255817502098108
4.261971974263091
4.2681264464281
4.2681264464281
4.249663029933098
4.249663029933098
4.255817502098108
4.2681264464281
4.2681264464281
4.27428091859311
4.2681264464281
4.2681264464281
4.255817502098108
4.261971974263091
4.255817502098108
4.249663029933098
4.249663029933098
4.249663029933098
4.249663029933098
4.249663029933098
4.249663029933098
4.249663029933098
4.249663029933098
4.243508557768089
4.237354085603107
4.249663029933098
4.243508557768089
4.237354085603107
4.231199613438097
4.249663029933098
4.255817502098108
4.249663029933098
4.255817502098108
4.261971974263091
4.261971974263091
4.243508557768089
4.188118308283084
4.261971974263091
4.280435390758093
4.2681264464281
4.261971974263091
4.249663029933098
4.255817502098108
4.225045141273086
4.212736196943095
4.218890669108104
4.231199613438097
4.243508557768089
4.243508557768089
4.255817502098108
4.243508557768089
4.218890669108104
4.218890669108104
4.218890669108104
4.218890669108104
4.212736196943095
4.2065817247780855
4.2065817247780855
4.2065817247780855
4.200427252613103
4.2065817247780855
4.2065817247780855
4.200427252613103
4.1942727804480935
4.218890669108104
4.255817502098108
4.298898807253093
4.341980112408105
4.397370361893111
4.415833778388112
4.37890694539811
4.3173622237481215
4.255817502098108
4.212736196943095
4.157345947458091
4.12657358663307
4.1327280587980795
4.151191475293081
4.157345947458091
4.169654891788083
4.181963836118102
4.181963836118102
4.1942727804480935
4.1942727804480935
4.2065817247780855
4.200427252613103
4.2065817247780855
4.212736196943095
4.218890669108104
4.212736196943095
4.1942727804480935
4.1942727804480935
4.2065817247780855
4.2065817247780855
4.212736196943095
4.218890669108104
4.218890669108104
4.2065817247780855
4.200427252613103
4.188118308283084
4.188118308283084
4.181963836118102
4.1942727804480935
4.212736196943095
4.218890669108104
4.218890669108104
4.218890669108104
4.2065817247780855
4.212736196943095
4.218890669108104
4.225045141273086
4.218890669108104
4.225045141273086
4.218890669108104
4.200427252613103
4.200427252613103
4.2065817247780855
4.231199613438097
4.225045141273086
4.231199613438097
4.231199613438097
4.231199613438097
4.255817502098108
4.255817502098108
4.237354085603107
4.231199613438097
4.225045141273086
4.237354085603107
4.225045141273086
4.225045141273086
4.225045141273086
4.225045141273086
4.218890669108104
4.218890669108104
4.218890669108104
4.218890669108104
4.218890669108104
4.1942727804480935
4.169654891788083
4.237354085603107
4.237354085603107
4.225045141273086
4.218890669108104
4.218890669108104
4.218890669108104
4.2065817247780855
4.188118308283084
4.1942727804480935
4.200427252613103
4.2065817247780855
4.200427252613103
4.2065817247780855
4.212736196943095
4.200427252613103
4.2065817247780855
4.218890669108104
4.218890669108104
4.2065817247780855
4.169654891788083
4.237354085603107
4.231199613438097
4.2065817247780855
4.200427252613103
4.225045141273086
4.225045141273086
4.218890669108104
4.225045141273086
4.225045141273086
4.225045141273086
4.218890669108104
4.225045141273086
4.225045141273086
4.212736196943095
4.2065817247780855
4.212736196943095
4.212736196943095
4.218890669108104
4.212736196943095
4.225045141273086
4.212736196943095
4.212736196943095
4.218890669108104
4.218890669108104
4.225045141273086
4.225045141273086
4.218890669108104
4.231199613438097
4.225045141273086
4.218890669108104
4.231199613438097
4.231199613438097
4.225045141273086
4.218890669108104
4.225045141273086
4.225045141273086
4.218890669108104
4.218890669108104
4.218890669108104
4.218890669108104
4.212736196943095
4.2065817247780855
4.2065817247780855
4.2065817247780855
4.200427252613103
4.2065817247780855
4.2065817247780855
4.200427252613103
4.2065817247780855
4.200427252613103
4.200427252613103
4.200427252613103
4.1942727804480935
4.1942727804480935
4.181963836118102
4.181963836118102
4.1758093639530935
4.181963836118102
4.188118308283084
4.188118308283084
4.181963836118102
4.181963836118102
4.181963836118102
4.188118308283084
4.188118308283084
4.188118308283084
4.2065817247780855
4.2065817247780855
4.212736196943095
4.212736196943095
4.218890669108104
4.218890669108104
4.212736196943095
4.212736196943095
4.212736196943095
4.212736196943095
4.218890669108104
4.218890669108104
4.2065817247780855
4.2065817247780855
4.212736196943095
4.2065817247780855
4.218890669108104
4.212736196943095
4.2065817247780855
4.1942727804480935
4.200427252613103
4.188118308283084
4.181963836118102
4.1942727804480935
4.1942727804480935
4.188118308283084
4.1942727804480935
4.188118308283084
4.188118308283084
4.1942727804480935
4.188118308283084
4.181963836118102
4.188118308283084
4.2065817247780855
4.225045141273086
4.255817502098108
4.3112077515831135
4.366598001068117
4.40352483405812
4.40967930622313
4.366598001068117
4.298898807253093
4.243508557768089
4.1942727804480935
4.151191475293081
4.114264642303079
4.108110170138069
4.138882530963089
4.163500419623101
4.181963836118102
4.181963836118102
4.1942727804480935
4.200427252613103
4.200427252613103
4.188118308283084
4.151191475293081
4.218890669108104
4.218890669108104
4.218890669108104
4.212736196943095
4.2065817247780855
4.188118308283084
4.157345947458091
4.1758093639530935
4.181963836118102
4.188118308283084
4.1942727804480935
4.1942727804480935
4.200427252613103
4.188118308283084
4.181963836118102
4.2065817247780855
4.2065817247780855
4.2065817247780855
4.2065817247780855
4.2065817247780855
4.2065817247780855
4.200427252613103
4.1942727804480935
4.188118308283084
4.1942727804480935
4.188118308283084
4.1942727804480935
4.1942727804480935
4.188118308283084
4.1758093639530935
4.181963836118102
4.1942727804480935
4.1942727804480935
4.1942727804480935
4.1942727804480935
4.1942727804480935
4.200427252613103
4.1942727804480935
4.200427252613103
4.200427252613103
4.1942727804480935
4.2065817247780855
4.200427252613103
4.218890669108104
4.200427252613103
4.1942727804480935
4.1942727804480935
4.200427252613103
4.200427252613103
4.188118308283084
4.1942727804480935
4.188118308283084
4.1942727804480935
4.1942727804480935
4.1942727804480935
4.188118308283084
4.181963836118102
4.181963836118102
4.181963836118102
4.181963836118102
4.181963836118102
4.188118308283084
4.188118308283084
4.200427252613103
4.188118308283084
4.1942727804480935
4.1942727804480935
4.1942727804480935
4.188118308283084
4.1942727804480935
4.1942727804480935
4.1942727804480935
4.2065817247780855
4.2065817247780855
4.200427252613103
4.2065817247780855
4.200427252613103
4.2065817247780855
4.212736196943095
4.212736196943095
4.212736196943095
4.2065817247780855
4.2065817247780855
4.2065817247780855
4.200427252613103
4.2065817247780855
4.2065817247780855
4.2065817247780855
4.212736196943095
4.225045141273086
4.225045141273086
4.225045141273086
4.225045141273086
4.225045141273086
4.218890669108104
4.218890669108104
4.218890669108104
4.218890669108104
4.218890669108104
4.218890669108104
4.212736196943095
4.212736196943095
4.212736196943095
4.225045141273086
4.218890669108104
4.218890669108104
4.218890669108104
4.212736196943095
4.212736196943095
4.212736196943095
4.212736196943095
4.212736196943095
4.218890669108104
4.225045141273086
4.225045141273086
4.255817502098108
4.237354085603107
4.2065817247780855
4.225045141273086
4.225045141273086
4.2065817247780855
4.181963836118102
4.231199613438097
4.2065817247780855
4.181963836118102
4.1942727804480935
4.1942727804480935
4.1942727804480935
4.1942727804480935
4.2065817247780855
4.218890669108104
4.218890669108104
4.218890669108104
4.218890669108104
4.218890669108104
4.225045141273086
4.212736196943095
4.212736196943095
4.225045141273086
4.225045141273086
4.225045141273086
4.2065817247780855
4.2065817247780855
4.225045141273086
4.243508557768089
4.237354085603107
4.225045141273086
4.218890669108104
4.218890669108104
4.212736196943095
4.225045141273086
4.237354085603107
4.249663029933098
4.249663029933098
4.243508557768089
4.237354085603107
4.231199613438097
4.231199613438097
4.225045141273086
4.231199613438097
4.218890669108104
4.2065817247780855
4.200427252613103
4.200427252613103
4.2065817247780855
4.1942727804480935
4.1758093639530935
4.169654891788083
4.181963836118102
4.2065817247780855
4.200427252613103
4.151191475293081
4.1942727804480935
4.231199613438097
4.255817502098108
4.298898807253093
4.341980112408105
4.397370361893111
4.40967930622313
4.3727524732331275
4.341980112408105
4.280435390758093
4.231199613438097
4.1758093639530935
4.1327280587980795
4.108110170138069
4.108110170138069
4.12657358663307
4.145037003128072
4.157345947458091
4.1758093639530935
4.188118308283084
4.200427252613103
4.200427252613103
4.188118308283084
4.200427252613103
4.2065817247780855
4.2065817247780855
4.212736196943095
4.218890669108104
4.212736196943095
4.218890669108104
4.218890669108104
4.225045141273086
4.218890669108104
4.212736196943095
4.212736196943095
4.212736196943095
4.212736196943095
4.212736196943095
4.212736196943095
4.218890669108104
4.218890669108104
4.218890669108104
4.218890669108104
4.231199613438097
4.237354085603107
4.237354085603107
4.237354085603107
4.237354085603107
4.243508557768089
4.255817502098108
4.2681264464281
4.261971974263091
4.2681264464281
4.2681264464281
4.255817502098108
4.249663029933098
4.243508557768089
4.261971974263091
4.255817502098108
4.261971974263091
4.255817502098108
4.243508557768089
4.237354085603107
4.255817502098108
4.249663029933098
4.255817502098108
4.255817502098108
4.255817502098108
4.255817502098108
4.249663029933098
4.237354085603107
4.1942727804480935
4.249663029933098
4.255817502098108
4.255817502098108
4.255817502098108
4.249663029933098
4.225045141273086
4.2065817247780855
4.218890669108104
4.218890669108104
4.225045141273086
4.225045141273086
4.225045141273086
4.231199613438097
4.218890669108104
4.218890669108104
4.218890669108104
4.231199613438097
4.231199613438097
4.212736196943095
4.212736196943095
4.212736196943095
4.225045141273086
4.218890669108104
4.218890669108104
4.218890669108104
4.218890669108104
4.231199613438097
4.218890669108104
4.218890669108104
4.218890669108104
4.231199613438097
4.231199613438097
4.243508557768089
4.231199613438097
4.225045141273086
4.225045141273086
4.218890669108104
4.212736196943095
4.218890669108104
4.225045141273086
4.243508557768089
4.243508557768089
4.243508557768089
4.225045141273086
4.212736196943095
4.200427252613103
4.200427252613103
4.212736196943095
4.225045141273086
4.237354085603107
4.231199613438097
4.231199613438097
4.218890669108104
4.212736196943095
4.218890669108104
4.212736196943095
4.225045141273086
4.237354085603107
4.237354085603107
4.237354085603107
4.231199613438097
4.243508557768089
4.237354085603107
4.255817502098108
4.249663029933098
4.249663029933098
4.237354085603107
4.237354085603107
4.237354085603107
4.231199613438097
4.231199613438097
4.225045141273086
4.231199613438097
4.237354085603107
4.231199613438097
4.237354085603107
4.237354085603107
4.249663029933098
4.243508557768089
4.249663029933098
4.243508557768089
4.243508557768089
4.237354085603107
4.249663029933098
4.237354085603107
4.231199613438097
4.237354085603107
4.237354085603107
4.243508557768089
4.237354085603107
4.243508557768089
4.231199613438097
4.237354085603107
4.237354085603107
4.243508557768089
4.237354085603107
4.249663029933098
4.249663029933098
4.249663029933098
4.243508557768089
4.243508557768089
4.243508557768089
4.237354085603107
4.249663029933098
4.249663029933098
4.243508557768089
4.237354085603107
4.231199613438097
4.231199613438097
4.225045141273086
4.231199613438097
4.231199613438097
4.237354085603107
4.231199613438097
4.237354085603107
4.231199613438097
4.225045141273086
4.231199613438097
4.243508557768089
4.243508557768089
4.225045141273086
4.188118308283084
4.255817502098108
4.261971974263091
4.305053279418103
4.366598001068117
4.428142722718132
4.446606139213133
4.40967930622313
4.335825640243124
4.2681264464281
4.231199613438097
4.169654891788083
4.138882530963089
4.1327280587980795
4.138882530963089
4.163500419623101
4.181963836118102
4.1942727804480935
4.200427252613103
4.218890669108104
4.212736196943095
4.218890669108104
4.2065817247780855
4.212736196943095
4.212736196943095
4.225045141273086
4.218890669108104
4.225045141273086
4.225045141273086
4.225045141273086
4.237354085603107
4.237354085603107
4.237354085603107
4.231199613438097
4.231199613438097
4.231199613438097
4.237354085603107
4.231199613438097
4.231199613438097
4.231199613438097
4.231199613438097
4.231199613438097
4.243508557768089
4.249663029933098
4.249663029933098
4.255817502098108
4.261971974263091
4.261971974263091
4.2681264464281
4.261971974263091
4.2681264464281
4.261971974263091
4.261971974263091
4.261971974263091
4.2681264464281
4.2681264464281
4.27428091859311
4.261971974263091
4.261971974263091
4.2681264464281
4.27428091859311
4.280435390758093
4.2681264464281
4.255817502098108
4.261971974263091
4.255817502098108
4.255817502098108
4.249663029933098
4.243508557768089
4.243508557768089
4.261971974263091
4.2681264464281
4.2681264464281
4.261971974263091
4.2681264464281
4.2865898629231
4.2865898629231
4.27428091859311
4.2681264464281
4.249663029933098
4.237354085603107
4.243508557768089
4.249663029933098
4.249663029933098
4.261971974263091
4.261971974263091
4.27428091859311
4.280435390758093
4.27428091859311
4.27428091859311
4.27428091859311
4.2681264464281
4.261971974263091
4.261971974263091
4.255817502098108
4.237354085603107
4.237354085603107
4.231199613438097
4.243508557768089
4.237354085603107
4.225045141273086
4.225045141273086
4.218890669108104
4.212736196943095
4.225045141273086
4.200427252613103
4.1758093639530935
4.157345947458091
4.169654891788083
4.181963836118102
4.188118308283084
4.1758093639530935
4.157345947458091
4.157345947458091
4.145037003128072
4.120419114468088
4.108110170138069
4.089646753643067
4.077337809313075
4.058874392818074
4.040410976323072
4.083492281478085
4.028102031993082
4.077337809313075
4.083492281478085
4.065028864983084
4.0465654484880815
4.034256504158063
3.9973296711680604
4.009638615498079
4.0465654484880815
4.065028864983084
4.101955697973087
4.108110170138069
4.120419114468088
4.120419114468088
4.120419114468088
4.12657358663307
4.1327280587980795
4.1327280587980795
4.1327280587980795
4.12657358663307
4.1327280587980795
4.151191475293081
4.145037003128072
4.138882530963089
4.151191475293081
4.157345947458091
4.188118308283084
4.1942727804480935
4.1942727804480935
4.200427252613103
4.200427252613103
4.1942727804480935
4.200427252613103
4.2065817247780855
4.212736196943095
4.218890669108104
4.212736196943095
4.2065817247780855
4.218890669108104
4.212736196943095
4.218890669108104
4.218890669108104
4.225045141273086
4.237354085603107
4.231199613438097
4.218890669108104
4.225045141273086
4.212736196943095
4.2065817247780855
4.212736196943095
4.200427252613103
4.188118308283084
4.181963836118102
4.163500419623101
4.163500419623101
4.163500419623101
4.157345947458091
4.163500419623101
4.169654891788083
4.169654891788083
4.181963836118102
4.188118308283084
4.200427252613103
4.2065817247780855
4.212736196943095
4.218890669108104
4.225045141273086
4.237354085603107
4.249663029933098
4.280435390758093
4.335825640243124
4.37890694539811
4.434297194883113
4.465069555708134
4.446606139213133
4.391215889728128
4.335825640243124
4.2865898629231
4.237354085603107
4.1942727804480935
4.181963836118102
4.188118308283084
4.200427252613103
4.231199613438097
4.243508557768089
4.243508557768089
4.255817502098108
4.255817502098108
4.249663029933098
4.261971974263091
4.255817502098108
4.261971974263091
4.249663029933098
4.249663029933098
4.243508557768089
4.237354085603107
4.243508557768089
4.237354085603107
4.237354085603107
4.225045141273086
4.231199613438097
4.231199613438097
4.231199613438097
4.237354085603107
4.225045141273086
4.218890669108104
4.231199613438097
4.231199613438097
4.231199613438097
4.231199613438097
4.231199613438097
4.231199613438097
4.231199613438097
4.231199613438097
4.231199613438097
4.225045141273086
4.225045141273086
4.225045141273086
4.231199613438097
4.237354085603107
4.237354085603107
4.231199613438097
4.200427252613103
4.237354085603107
4.212736196943095
4.225045141273086
4.243508557768089
4.243508557768089
4.243508557768089
4.249663029933098
4.249663029933098
4.237354085603107
4.249663029933098
4.249663029933098
4.249663029933098
4.255817502098108
4.255817502098108
4.243508557768089
4.249663029933098
4.243508557768089
4.243508557768089
4.237354085603107
4.243508557768089
4.243508557768089
4.243508557768089
4.231199613438097
4.225045141273086
4.218890669108104
4.225045141273086
4.225045141273086
4.218890669108104
4.212736196943095
4.212736196943095
4.218890669108104
4.2065817247780855
4.1942727804480935
4.2065817247780855
4.200427252613103
4.200427252613103
4.200427252613103
4.200427252613103
4.200427252613103
4.200427252613103
4.200427252613103
4.2065817247780855
4.200427252613103
4.200427252613103
4.200427252613103
4.200427252613103
4.2065817247780855
4.218890669108104
4.200427252613103
4.188118308283084
4.1942727804480935
4.1942727804480935
4.200427252613103
4.212736196943095
4.212736196943095
4.2065817247780855
4.2065817247780855
4.212736196943095
4.218890669108104
4.212736196943095
4.212736196943095
4.218890669108104
4.212736196943095
4.218890669108104
4.218890669108104
4.218890669108104
4.218890669108104
4.218890669108104
4.212736196943095
4.2065817247780855
4.212736196943095
4.218890669108104
4.225045141273086
4.212736196943095
4.218890669108104
4.218890669108104
4.212736196943095
4.231199613438097
4.237354085603107
4.237354085603107
4.231199613438097
4.231199613438097
4.237354085603107
4.237354085603107
4.237354085603107
4.237354085603107
4.237354085603107
4.237354085603107
4.243508557768089
4.249663029933098
4.249663029933098
4.231199613438097
4.231199613438097
4.231199613438097
4.237354085603107
4.237354085603107
4.243508557768089
4.231199613438097
4.231199613438097
4.218890669108104
4.225045141273086
4.218890669108104
4.218890669108104
4.218890669108104
4.2065817247780855
4.200427252613103
4.200427252613103
4.200427252613103
4.2065817247780855
4.200427252613103
4.1942727804480935
4.200427252613103
4.200427252613103
4.200427252613103
4.2065817247780855
4.2065817247780855
4.212736196943095
4.218890669108104
4.218890669108104
4.237354085603107
4.261971974263091
4.261971974263091
4.360443528903107
4.40352483405812
4.40352483405812
4.366598001068117
4.27428091859311
4.212736196943095
4.181963836118102
4.145037003128072
4.114264642303079
4.114264642303079
4.1327280587980795
4.151191475293081
4.1758093639530935
4.188118308283084
4.1942727804480935
4.200427252613103
4.212736196943095
4.212736196943095
4.218890669108104
4.2065817247780855
4.2065817247780855
4.200427252613103
4.212736196943095
4.212736196943095
4.218890669108104
4.218890669108104
4.212736196943095
4.2065817247780855
4.212736196943095
4.212736196943095
4.218890669108104
4.218890669108104
4.218890669108104
4.225045141273086
4.212736196943095
4.218890669108104
4.2065817247780855
4.218890669108104
4.218890669108104
4.212736196943095
4.212736196943095
4.212736196943095
4.212736196943095
4.218890669108104
4.2065817247780855
4.200427252613103
4.2065817247780855
4.225045141273086
4.212736196943095
4.2065817247780855
4.218890669108104
4.218890669108104
4.2065817247780855
4.2065817247780855
4.212736196943095
4.212736196943095
4.212736196943095
4.212736196943095
4.218890669108104
4.2065817247780855
4.218890669108104
4.212736196943095
4.212736196943095
4.218890669108104
4.2065817247780855
4.2065817247780855
4.200427252613103
4.163500419623101
4.1942727804480935
4.218890669108104
4.200427252613103
4.1942727804480935
4.200427252613103
4.200427252613103
4.181963836118102
4.151191475293081
4.157345947458091
4.1758093639530935
4.1758093639530935
4.181963836118102
4.1758093639530935
4.181963836118102
4.1758093639530935
4.1758093639530935
4.181963836118102
4.169654891788083
4.169654891788083
4.169654891788083
4.181963836118102
4.1758093639530935
4.181963836118102
4.1758093639530935
4.169654891788083
4.181963836118102
4.181963836118102
4.181963836118102
4.169654891788083
4.169654891788083
4.1758093639530935
4.1758093639530935
4.169654891788083
4.1758093639530935
4.181963836118102
4.169654891788083
4.1758093639530935
4.169654891788083
4.1758093639530935
4.1758093639530935
4.1758093639530935
4.188118308283084
4.181963836118102
4.181963836118102
4.181963836118102
4.1758093639530935
4.169654891788083
4.1758093639530935
4.1942727804480935
4.1942727804480935
4.188118308283084
4.188118308283084
4.1758093639530935
4.151191475293081
4.157345947458091
4.169654891788083
4.181963836118102
4.188118308283084
4.188118308283084
4.1942727804480935
4.188118308283084
4.1942727804480935
4.181963836118102
4.188118308283084
4.181963836118102
4.1942727804480935
4.1942727804480935
4.200427252613103
4.2065817247780855
4.1942727804480935
4.1942727804480935
4.1942727804480935
4.1942727804480935
4.188118308283084
4.188118308283084
4.1758093639530935
4.181963836118102
4.188118308283084
4.181963836118102
4.1942727804480935
4.200427252613103
4.1942727804480935
4.200427252613103
4.188118308283084
4.1942727804480935
4.188118308283084
4.1942727804480935
4.2065817247780855
4.200427252613103
4.1942727804480935
4.1942727804480935
4.1942727804480935
4.1942727804480935
4.188118308283084
4.1942727804480935
4.188118308283084
4.188118308283084
4.181963836118102
4.169654891788083
4.1758093639530935
4.1758093639530935
4.1758093639530935
4.169654891788083
4.1758093639530935
4.169654891788083
4.1758093639530935
4.169654891788083
4.1758093639530935
4.1758093639530935
4.1758093639530935
4.1942727804480935
4.231199613438097
4.2681264464281
4.3173622237481215
4.354289056738125
4.348134584573115
4.3112077515831135
4.261971974263091
4.200427252613103
4.157345947458091
4.108110170138069
4.0711833371480655
4.058874392818074
4.0711833371480655
4.095801225808079
4.114264642303079
4.1327280587980795
4.145037003128072
4.163500419623101
4.163500419623101
4.157345947458091
4.157345947458091
4.151191475293081
4.157345947458091
4.169654891788083
4.163500419623101
4.163500419623101
4.169654891788083
4.163500419623101
4.169654891788083
4.169654891788083
4.163500419623101
4.163500419623101
4.163500419623101
4.169654891788083
4.163500419623101
4.163500419623101
4.163500419623101
4.157345947458091
4.163500419623101
4.163500419623101
4.163500419623101
4.169654891788083
4.169654891788083
4.1758093639530935
4.181963836118102
4.169654891788083
4.1758093639530935
4.181963836118102
4.181963836118102
4.188118308283084
4.181963836118102
4.188118308283084
4.181963836118102
4.1758093639530935
4.1758093639530935
4.181963836118102
4.181963836118102
4.181963836118102
4.188118308283084
4.181963836118102
4.188118308283084
4.181963836118102
4.188118308283084
4.1758093639530935
4.145037003128072
4.212736196943095
4.212736196943095
4.2065817247780855
4.181963836118102
4.157345947458091
4.163500419623101
4.1758093639530935
4.169654891788083
4.169654891788083
4.1758093639530935
4.169654891788083
4.169654891788083
4.181963836118102
4.181963836118102
4.169654891788083
4.1758093639530935
4.169654891788083
4.169654891788083
4.163500419623101
4.163500419623101
4.169654891788083
4.169654891788083
4.169654891788083
4.1758093639530935
4.163500419623101
4.163500419623101
4.169654891788083
4.163500419623101
4.163500419623101
4.169654891788083
4.163500419623101
4.163500419623101
4.163500419623101
4.169654891788083
4.157345947458091
4.157345947458091
4.157345947458091
4.163500419623101
4.169654891788083
4.163500419623101
4.157345947458091
4.169654891788083
4.163500419623101
4.163500419623101
4.163500419623101
4.169654891788083
4.157345947458091
4.151191475293081
4.157345947458091
4.163500419623101
4.157345947458091
4.151191475293081
4.163500419623101
4.163500419623101
4.163500419623101
4.163500419623101
4.163500419623101
4.169654891788083
4.163500419623101
4.157345947458091
4.157345947458091
4.157345947458091
4.163500419623101
4.1758093639530935
4.1758093639530935
4.169654891788083
4.163500419623101
4.163500419623101
4.169654891788083
4.163500419623101
4.163500419623101
4.1758093639530935
4.169654891788083
4.1758093639530935
4.181963836118102
4.163500419623101
4.169654891788083
4.169654891788083
4.169654891788083
4.181963836118102
4.1758093639530935
4.188118308283084
4.188118308283084
4.181963836118102
4.1758093639530935
4.181963836118102
4.181963836118102
4.181963836118102
4.181963836118102
4.1942727804480935
4.181963836118102
4.181963836118102
4.188118308283084
4.188118308283084
4.188118308283084
4.181963836118102
4.1758093639530935
4.181963836118102
4.181963836118102
4.181963836118102
4.163500419623101
4.151191475293081
4.151191475293081
4.145037003128072
4.145037003128072
4.145037003128072
4.145037003128072
4.145037003128072
4.138882530963089
4.138882530963089
4.157345947458091
4.151191475293081
4.138882530963089
4.151191475293081
4.151191475293081
4.1758093639530935
4.212736196943095
4.243508557768089
4.292744335088111
4.3173622237481215
4.305053279418103
4.2065817247780855
4.188118308283084
4.145037003128072
4.089646753643067
4.058874392818074
4.0465654484880815
4.0465654484880815
4.065028864983084
4.083492281478085
4.101955697973087
4.120419114468088
4.120419114468088
4.138882530963089
4.145037003128072
4.138882530963089
4.145037003128072
4.095801225808079
4.108110170138069
4.169654891788083
4.163500419623101
4.157345947458091
4.157345947458091
4.163500419623101
4.163500419623101
4.1327280587980795
4.1327280587980795
4.138882530963089
4.157345947458091
4.157345947458091
4.1758093639530935
4.169654891788083
4.169654891788083
4.163500419623101
4.157345947458091
4.163500419623101
4.163500419623101
4.163500419623101
4.151191475293081
4.163500419623101
4.145037003128072
4.138882530963089
4.145037003128072
4.1327280587980795
4.12657358663307
4.12657358663307
4.1327280587980795
4.157345947458091
4.151191475293081
4.151191475293081
4.163500419623101
4.163500419623101
4.157345947458091
4.157345947458091
4.151191475293081
4.145037003128072
4.1327280587980795
4.12657358663307
4.12657358663307
4.120419114468088
4.114264642303079
4.120419114468088
4.120419114468088
4.120419114468088
4.120419114468088
4.120419114468088
4.120419114468088
4.108110170138069
4.095801225808079
4.077337809313075
4.077337809313075
4.101955697973087
4.114264642303079
4.120419114468088
4.101955697973087
4.108110170138069
4.101955697973087
4.089646753643067
4.089646753643067
4.095801225808079
4.083492281478085
4.083492281478085
4.083492281478085
4.0711833371480655
4.065028864983084
4.0711833371480655
4.065028864983084
4.065028864983084
4.065028864983084
4.083492281478085
4.095801225808079
4.095801225808079
4.101955697973087
4.101955697973087
4.095801225808079
4.095801225808079
4.083492281478085
4.095801225808079
4.095801225808079
4.095801225808079
4.108110170138069
4.108110170138069
4.101955697973087
4.120419114468088
4.101955697973087
4.101955697973087
4.114264642303079
4.120419114468088
4.12657358663307
4.1327280587980795
4.1327280587980795
4.12657358663307
4.120419114468088
4.120419114468088
4.114264642303079
4.114264642303079
4.120419114468088
4.1327280587980795
4.145037003128072
4.1327280587980795
4.138882530963089
4.145037003128072
4.1327280587980795
4.101955697973087
4.157345947458091
4.163500419623101
4.169654891788083
4.145037003128072
4.138882530963089
4.157345947458091
4.1758093639530935
4.169654891788083
4.169654891788083
4.169654891788083
4.181963836118102
4.188118308283084
4.2065817247780855
4.200427252613103
4.1942727804480935
4.1942727804480935
4.1942727804480935
4.188118308283084
4.1942727804480935
4.188118308283084
4.1942727804480935
4.1942727804480935
4.200427252613103
4.200427252613103
4.212736196943095
4.2065817247780855
4.2065817247780855
4.212736196943095
4.225045141273086
4.218890669108104
4.212736196943095
4.2065817247780855
4.225045141273086
4.231199613438097
4.225045141273086
4.225045141273086
4.218890669108104
4.231199613438097
4.237354085603107
4.218890669108104
4.218890669108104
4.218890669108104
4.225045141273086
4.225045141273086
4.225045141273086
4.225045141273086
4.218890669108104
4.2065817247780855
4.2065817247780855
4.212736196943095
4.2065817247780855
4.2065817247780855
4.2065817247780855
4.218890669108104
4.2065817247780855
4.212736196943095
4.212736196943095
4.212736196943095
4.2065817247780855
4.218890669108104
4.218890669108104
4.243508557768089
4.292744335088111
4.329671168078114
4.3727524732331275
4.397370361893111
4.3727524732331275
4.3173622237481215
4.261971974263091
4.225045141273086
4.169654891788083
4.138882530963089
4.114264642303079
4.120419114468088
4.138882530963089
4.169654891788083
4.188118308283084
4.200427252613103
4.2065817247780855
4.2065817247780855
4.2065817247780855
4.218890669108104
4.218890669108104
4.218890669108104
4.218890669108104
4.231199613438097
4.225045141273086
4.225045141273086
4.225045141273086
4.231199613438097
4.243508557768089
4.243508557768089
4.231199613438097
4.231199613438097
4.249663029933098
4.249663029933098
4.249663029933098
4.243508557768089
4.218890669108104
4.231199613438097
4.243508557768089
4.255817502098108
4.2681264464281
4.2681264464281
4.2681264464281
4.255817502098108
4.255817502098108
4.2681264464281
4.2681264464281
4.261971974263091
4.261971974263091
4.255817502098108
4.2681264464281
4.280435390758093
4.2681264464281
4.255817502098108
4.2681264464281
4.261971974263091
4.2681264464281
4.280435390758093
4.261971974263091
4.212736196943095
4.280435390758093
4.292744335088111
4.292744335088111
4.280435390758093
4.2865898629231
4.27428091859311
4.2681264464281
4.231199613438097
4.243508557768089
4.261971974263091
4.2681264464281
4.27428091859311
4.27428091859311
4.2865898629231
4.280435390758093
4.27428091859311
4.27428091859311
4.280435390758093
4.2865898629231
4.280435390758093
4.2865898629231
4.2865898629231
4.280435390758093
4.280435390758093
4.292744335088111
4.280435390758093
4.2865898629231
4.292744335088111
4.292744335088111
4.298898807253093
4.298898807253093
4.292744335088111
4.298898807253093
4.305053279418103
4.305053279418103
4.298898807253093
4.298898807253093
4.292744335088111
4.292744335088111
4.292744335088111
4.292744335088111
4.292744335088111
4.298898807253093
4.292744335088111
4.298898807253093
4.305053279418103
4.298898807253093
4.3112077515831135
4.305053279418103
4.305053279418103
4.3112077515831135
4.305053279418103
4.3112077515831135
4.298898807253093
4.292744335088111
4.305053279418103
4.292744335088111
4.292744335088111
4.292744335088111
4.292744335088111
4.305053279418103
4.2865898629231
4.280435390758093
4.298898807253093
4.2865898629231
4.2865898629231
4.2865898629231
4.280435390758093
4.27428091859311
4.261971974263091
4.2681264464281
4.255817502098108
4.249663029933098
4.243508557768089
4.237354085603107
4.237354085603107
4.237354085603107
4.237354085603107
4.243508557768089
4.243508557768089
4.243508557768089
4.249663029933098
4.243508557768089
4.249663029933098
4.243508557768089
4.225045141273086
4.2065817247780855
4.2681264464281
4.2681264464281
4.2681264464281
4.261971974263091
4.255817502098108
4.249663029933098
4.218890669108104
4.200427252613103
4.225045141273086
4.225045141273086
4.231199613438097
4.231199613438097
4.237354085603107
4.231199613438097
4.225045141273086
4.231199613438097
4.237354085603107
4.243508557768089
4.243508557768089
4.237354085603107
4.237354085603107
4.237354085603107
4.225045141273086
4.231199613438097
4.231199613438097
4.231199613438097
4.225045141273086
4.225045141273086
4.218890669108104
4.218890669108104
4.218890669108104
4.212736196943095
4.218890669108104
4.1942727804480935
4.169654891788083
4.237354085603107
4.249663029933098
4.237354085603107
4.212736196943095
4.231199613438097
4.249663029933098
4.255817502098108
4.2681264464281
4.2865898629231
4.3112077515831135
4.348134584573115
4.40352483405812
4.446606139213133
4.471224027873144
4.434297194883113
4.360443528903107
4.3173622237481215
4.2681264464281
4.1942727804480935
4.169654891788083
4.151191475293081
4.169654891788083
4.200427252613103
4.225045141273086
4.237354085603107
4.237354085603107
4.231199613438097
4.237354085603107
4.237354085603107
4.237354085603107
4.231199613438097
4.225045141273086
4.231199613438097
4.243508557768089
4.231199613438097
4.231199613438097
4.225045141273086
4.237354085603107
4.243508557768089
4.225045141273086
4.231199613438097
4.237354085603107
4.237354085603107
4.237354085603107
4.231199613438097
4.237354085603107
4.237354085603107
4.218890669108104
4.225045141273086
4.237354085603107
4.231199613438097
4.231199613438097
4.231199613438097
4.237354085603107
4.237354085603107
4.249663029933098
4.255817502098108
4.237354085603107
4.231199613438097
4.237354085603107
4.243508557768089
4.237354085603107
4.237354085603107
4.243508557768089
4.243508557768089
4.249663029933098
4.249663029933098
4.249663029933098
4.237354085603107
4.243508557768089
4.255817502098108
4.249663029933098
4.243508557768089
4.237354085603107
4.237354085603107
4.243508557768089
4.243508557768089
4.243508557768089
4.231199613438097
4.231199613438097
4.237354085603107
4.231199613438097
4.231199613438097
4.225045141273086
4.218890669108104
4.225045141273086
4.231199613438097
4.231199613438097
4.231199613438097
4.218890669108104
4.212736196943095
4.212736196943095
4.212736196943095
4.218890669108104
4.212736196943095
4.218890669108104
4.212736196943095
4.218890669108104
4.212736196943095
4.218890669108104
4.218890669108104
4.225045141273086
4.225045141273086
4.218890669108104
4.231199613438097
4.231199613438097
4.243508557768089
4.249663029933098
4.249663029933098
4.243508557768089
4.249663029933098
4.243508557768089
4.243508557768089
4.243508557768089
4.255817502098108
4.243508557768089
4.249663029933098
4.249663029933098
4.261971974263091
4.255817502098108
4.237354085603107
4.2065817247780855
4.261971974263091
4.2681264464281
4.261971974263091
4.255817502098108
4.249663029933098
4.249663029933098
4.231199613438097
4.218890669108104
4.231199613438097
4.237354085603107
4.237354085603107
4.237354085603107
4.237354085603107
4.243508557768089
4.225045141273086
4.225045141273086
4.218890669108104
4.231199613438097
4.237354085603107
4.225045141273086
4.225045141273086
4.225045141273086
4.225045141273086
4.231199613438097
4.237354085603107
4.237354085603107
4.231199613438097
4.237354085603107
4.225045141273086
4.231199613438097
4.225045141273086
4.231199613438097
4.237354085603107
4.231199613438097
4.237354085603107
4.255817502098108
4.255817502098108
4.243508557768089
4.237354085603107
4.243508557768089
4.243508557768089
4.243508557768089
4.249663029933098
4.249663029933098
4.243508557768089
4.255817502098108
4.261971974263091
4.261971974263091
4.255817502098108
4.243508557768089
4.243508557768089
4.2681264464281
4.27428091859311
4.2681264464281
4.2681264464281
4.2681264464281
4.261971974263091
4.255817502098108
4.255817502098108
4.237354085603107
4.237354085603107
4.231199613438097
4.237354085603107
4.243508557768089
4.243508557768089
4.237354085603107
4.237354085603107
4.231199613438097
4.225045141273086
4.225045141273086
4.225045141273086
4.225045141273086
4.225045141273086
4.237354085603107
4.261971974263091
4.292744335088111
4.341980112408105
4.391215889728128
4.421988250553122
4.40967930622313
4.341980112408105
4.2865898629231
4.237354085603107
4.188118308283084
4.138882530963089
4.114264642303079
4.114264642303079
4.138882530963089
4.163500419623101
4.1942727804480935
4.218890669108104
4.212736196943095
4.218890669108104
4.212736196943095
4.212736196943095
4.2065817247780855
4.200427252613103
4.200427252613103
4.212736196943095
4.231199613438097
4.231199613438097
4.2065817247780855
4.181963836118102
4.200427252613103
4.1942727804480935
4.1942727804480935
4.212736196943095
4.2065817247780855
4.212736196943095
4.200427252613103
4.200427252613103
4.200427252613103
4.2065817247780855
4.200427252613103
4.2065817247780855
4.2065817247780855
4.2065817247780855
4.200427252613103
4.2065817247780855
4.218890669108104
4.200427252613103
4.163500419623101
4.2065817247780855
4.2065817247780855
4.181963836118102
4.1942727804480935
4.212736196943095
4.218890669108104
4.212736196943095
4.2065817247780855
4.200427252613103
4.1942727804480935
4.200427252613103
4.200427252613103
4.1942727804480935
4.1942727804480935
4.2065817247780855
4.2065817247780855
4.2065817247780855
4.200427252613103
4.188118308283084
4.1942727804480935
4.2065817247780855
4.200427252613103
4.2065817247780855
4.200427252613103
4.1942727804480935
4.1942727804480935
4.188118308283084
4.200427252613103
4.1942727804480935
4.188118308283084
4.181963836118102
4.188118308283084
4.188118308283084
4.188118308283084
4.145037003128072
4.188118308283084
4.2065817247780855
4.2065817247780855
4.2065817247780855
4.188118308283084
4.188118308283084
4.169654891788083
4.145037003128072
4.163500419623101
4.1758093639530935
4.1758093639530935
4.1942727804480935
4.1942727804480935
4.200427252613103
4.188118308283084
4.188118308283084
4.188118308283084
4.1942727804480935
4.200427252613103
4.200427252613103
4.200427252613103
4.200427252613103
4.2065817247780855
4.2065817247780855
4.2065817247780855
4.218890669108104
4.225045141273086
4.225045141273086
4.218890669108104
4.218890669108104
4.2065817247780855
4.2065817247780855
4.218890669108104
4.225045141273086
4.225045141273086
4.225045141273086
4.218890669108104
4.218890669108104
4.218890669108104
4.225045141273086
4.225045141273086
4.212736196943095
4.212736196943095
4.218890669108104
4.218890669108104
4.218890669108104
4.225045141273086
4.231199613438097
4.231199613438097
4.225045141273086
4.218890669108104
4.218890669108104
4.225045141273086
4.243508557768089
4.237354085603107
4.237354085603107
4.237354085603107
4.231199613438097
4.231199613438097
4.231199613438097
4.249663029933098
4.243508557768089
4.237354085603107
4.249663029933098
4.255817502098108
4.261971974263091
4.243508557768089
4.249663029933098
4.255817502098108
4.243508557768089
4.2681264464281
4.280435390758093
4.2681264464281
4.2681264464281
4.255817502098108
4.243508557768089
4.249663029933098
4.249663029933098
4.255817502098108
4.249663029933098
4.237354085603107
4.243508557768089
4.243508557768089
4.249663029933098
4.237354085603107
4.218890669108104
4.188118308283084
4.243508557768089
4.255817502098108
4.255817502098108
4.249663029933098
4.243508557768089
4.231199613438097
4.218890669108104
4.243508557768089
4.280435390758093
4.329671168078114
4.37890694539811
4.428142722718132
4.440451667048122
4.428142722718132
4.3727524732331275
4.305053279418103
4.2681264464281
4.2065817247780855
4.163500419623101
4.157345947458091
4.163500419623101
4.181963836118102
4.200427252613103
4.218890669108104
4.231199613438097
4.237354085603107
4.249663029933098
4.249663029933098
4.261971974263091
4.261971974263091
4.27428091859311
4.27428091859311
4.2681264464281
4.280435390758093
4.280435390758093
4.2865898629231
4.280435390758093
4.2865898629231
4.292744335088111
4.292744335088111
4.292744335088111
4.280435390758093
4.2865898629231
4.2865898629231
4.280435390758093
4.27428091859311
4.280435390758093
4.27428091859311
4.2865898629231
4.280435390758093
4.292744335088111
4.298898807253093
4.2865898629231
4.280435390758093
4.2865898629231
4.292744335088111
4.292744335088111
4.2865898629231
4.292744335088111
4.292744335088111
4.2865898629231
4.280435390758093
4.2865898629231
4.298898807253093
4.305053279418103
4.292744335088111
4.292744335088111
4.2865898629231
4.292744335088111
4.280435390758093
4.2865898629231
4.27428091859311
4.27428091859311
4.27428091859311
4.2681264464281
4.261971974263091
4.261971974263091
4.255817502098108
4.261971974263091
4.261971974263091
4.261971974263091
4.261971974263091
4.255817502098108
4.243508557768089
4.243508557768089
4.243508557768089
4.243508557768089
4.243508557768089
4.231199613438097
4.231199613438097
4.225045141273086
4.231199613438097
4.231199613438097
4.225045141273086
4.225045141273086
4.231199613438097
4.237354085603107
4.237354085603107
4.243508557768089
4.243508557768089
4.231199613438097
4.243508557768089
4.243508557768089
4.243508557768089
4.231199613438097
4.231199613438097
4.237354085603107
4.243508557768089
4.231199613438097
4.237354085603107
4.237354085603107
4.243508557768089
4.237354085603107
4.243508557768089
4.249663029933098
4.237354085603107
4.243508557768089
4.237354085603107
4.243508557768089
4.243508557768089
4.237354085603107
4.200427252613103
4.261971974263091
4.249663029933098
4.2065817247780855
4.212736196943095
4.225045141273086
4.225045141273086
4.225045141273086
4.225045141273086
4.231199613438097
4.225045141273086
4.225045141273086
4.231199613438097
4.243508557768089
4.243508557768089
4.237354085603107
4.243508557768089
4.237354085603107
4.237354085603107
4.243508557768089
4.243508557768089
4.237354085603107
4.237354085603107
4.237354085603107
4.243508557768089
4.237354085603107
4.231199613438097
4.237354085603107
4.249663029933098
4.243508557768089
4.243508557768089
4.243508557768089
4.243508557768089
4.243508557768089
4.237354085603107
4.249663029933098
4.243508557768089
4.243508557768089
4.243508557768089
4.243508557768089
4.237354085603107
4.231199613438097
4.231199613438097
4.243508557768089
4.237354085603107
4.249663029933098
4.249663029933098
4.243508557768089
4.249663029933098
4.255817502098108
4.255817502098108
4.261971974263091
4.255817502098108
4.249663029933098
4.255817502098108
4.2681264464281
4.255817502098108
4.255817502098108
4.249663029933098
4.237354085603107
4.237354085603107
4.237354085603107
4.243508557768089
4.237354085603107
4.243508557768089
4.231199613438097
4.231199613438097
4.237354085603107
4.225045141273086
4.225045141273086
4.231199613438097
4.231199613438097
4.225045141273086
4.225045141273086
4.237354085603107
4.2681264464281
4.305053279418103
4.348134584573115
4.40967930622313
4.446606139213133
4.452760611378115
4.415833778388112
4.341980112408105
4.280435390758093
4.231199613438097
4.163500419623101
4.138882530963089
4.1327280587980795
4.157345947458091
4.1758093639530935
4.1942727804480935
4.2065817247780855
4.218890669108104
4.225045141273086
4.225045141273086
4.231199613438097
4.237354085603107
4.237354085603107
4.225045141273086
4.231199613438097
4.225045141273086
4.231199613438097
4.231199613438097
4.231199613438097
4.218890669108104
4.188118308283084
4.231199613438097
4.237354085603107
4.237354085603107
4.231199613438097
4.218890669108104
4.231199613438097
4.212736196943095
4.181963836118102
4.200427252613103
4.2065817247780855
4.218890669108104
4.218890669108104
4.218890669108104
4.218890669108104
4.218890669108104
4.200427252613103
4.1758093639530935
4.243508557768089
4.261971974263091
4.249663029933098
4.243508557768089
4.243508557768089
4.212736196943095
4.1942727804480935
4.212736196943095
4.218890669108104
4.218890669108104
4.218890669108104
4.231199613438097
4.218890669108104
4.212736196943095
4.2065817247780855
4.2065817247780855
4.218890669108104
4.218890669108104
4.225045141273086
4.231199613438097
4.231199613438097
4.225045141273086
4.231199613438097
4.225045141273086
4.225045141273086
4.218890669108104
4.225045141273086
4.225045141273086
4.225045141273086
4.225045141273086
4.225045141273086
4.218890669108104
4.225045141273086
4.218890669108104
4.212736196943095
4.218890669108104
4.212736196943095
4.212736196943095
4.212736196943095
4.212736196943095
4.225045141273086
4.225045141273086
4.231199613438097
4.231199613438097
4.225045141273086
4.225045141273086
4.231199613438097
4.231199613438097
4.237354085603107
4.243508557768089
4.243508557768089
4.237354085603107
4.237354085603107
4.237354085603107
4.237354085603107
4.225045141273086
4.225045141273086
4.231199613438097
4.231199613438097
4.237354085603107
4.225045141273086
4.218890669108104
4.225045141273086
4.237354085603107
4.237354085603107
4.243508557768089
4.237354085603107
4.237354085603107
4.243508557768089
4.243508557768089
4.237354085603107
4.249663029933098
4.243508557768089
4.243508557768089
4.249663029933098
4.243508557768089
4.249663029933098
4.249663029933098
4.249663029933098
4.249663029933098
4.249663029933098
4.243508557768089
4.249663029933098
4.249663029933098
4.237354085603107
4.237354085603107
4.243508557768089
4.237354085603107
4.237354085603107
4.243508557768089
4.237354085603107
4.243508557768089
4.231199613438097
4.243508557768089
4.243508557768089
4.243508557768089
4.243508557768089
4.243508557768089
4.249663029933098
4.249663029933098
4.255817502098108
4.249663029933098
4.261971974263091
4.255817502098108
4.261971974263091
4.255817502098108
4.255817502098108
4.261971974263091
4.255817502098108
4.255817502098108
4.261971974263091
4.243508557768089
4.243508557768089
4.243508557768089
4.249663029933098
4.231199613438097
4.231199613438097
4.231199613438097
4.237354085603107
4.237354085603107
4.225045141273086
4.1942727804480935
4.261971974263091
4.237354085603107
4.212736196943095
4.225045141273086
4.243508557768089
4.237354085603107
4.243508557768089
4.249663029933098
4.27428091859311
4.3112077515831135
4.366598001068117
4.415833778388112
4.452760611378115
4.452760611378115
4.40967930622313
4.329671168078114
4.27428091859311
4.218890669108104
4.169654891788083
4.151191475293081
4.138882530963089
4.169654891788083
4.181963836118102
4.200427252613103
4.218890669108104
4.218890669108104
4.225045141273086
4.225045141273086
4.225045141273086
4.237354085603107
4.237354085603107
4.237354085603107
4.243508557768089
4.231199613438097
4.231199613438097
4.237354085603107
4.225045141273086
4.231199613438097
4.225045141273086
4.231199613438097
4.218890669108104
4.225045141273086
4.218890669108104
4.218890669108104
4.225045141273086
4.225045141273086
4.225045141273086
4.218890669108104
4.225045141273086
4.231199613438097
4.231199613438097
4.225045141273086
4.225045141273086
4.225045141273086
4.225045141273086
4.225045141273086
4.231199613438097
4.243508557768089
4.231199613438097
4.218890669108104
4.231199613438097
4.237354085603107
4.231199613438097
4.237354085603107
4.225045141273086
4.231199613438097
4.237354085603107
4.243508557768089
4.237354085603107
4.249663029933098
4.249663029933098
4.243508557768089
4.237354085603107
4.237354085603107
4.243508557768089
4.249663029933098
4.243508557768089
4.249663029933098
4.243508557768089
4.249663029933098
4.243508557768089
4.237354085603107
4.243508557768089
4.237354085603107
4.255817502098108
4.255817502098108
4.255817502098108
4.243508557768089
4.237354085603107
4.249663029933098
4.249663029933098
4.243508557768089
4.243508557768089
4.243508557768089
4.237354085603107
4.231199613438097
4.225045141273086
4.231199613438097
4.212736196943095
4.225045141273086
4.218890669108104
4.218890669108104
4.231199613438097
4.231199613438097
4.231199613438097
4.231199613438097
4.237354085603107
4.237354085603107
4.231199613438097
4.237354085603107
4.231199613438097
4.237354085603107
4.261971974263091
4.255817502098108
4.243508557768089
4.249663029933098
4.249663029933098
4.243508557768089
4.243508557768089
4.237354085603107
4.225045141273086
4.181963836118102
4.249663029933098
4.249663029933098
4.243508557768089
4.231199613438097
4.218890669108104
4.181963836118102
4.188118308283084
4.200427252613103
4.2065817247780855
4.218890669108104
4.218890669108104
4.225045141273086
4.225045141273086
4.225045141273086
4.225045141273086
4.218890669108104
4.218890669108104
4.225045141273086
4.218890669108104
4.212736196943095
4.212736196943095
4.2065817247780855
4.212736196943095
4.218890669108104
4.212736196943095
4.212736196943095
4.225045141273086
4.225045141273086
4.212736196943095
4.218890669108104
4.225045141273086
4.231199613438097
4.225045141273086
4.225045141273086
4.225045141273086
4.218890669108104
4.212736196943095
4.225045141273086
4.231199613438097
4.225045141273086
4.225045141273086
4.225045141273086
4.225045141273086
4.231199613438097
4.218890669108104
4.218890669108104
4.231199613438097
4.237354085603107
4.231199613438097
4.231199613438097
4.237354085603107
4.225045141273086
4.181963836118102
4.225045141273086
4.255817502098108
4.249663029933098
4.249663029933098
4.237354085603107
4.249663029933098
4.243508557768089
4.212736196943095
4.218890669108104
4.231199613438097
4.231199613438097
4.231199613438097
4.225045141273086
4.231199613438097
4.225045141273086
4.212736196943095
4.225045141273086
4.218890669108104
4.218890669108104
4.225045141273086
4.218890669108104
4.218890669108104
4.212736196943095
4.212736196943095
4.212736196943095
4.2065817247780855
4.231199613438097
4.255817502098108
4.292744335088111
4.335825640243124
4.391215889728128
4.428142722718132
4.428142722718132
4.37890694539811
4.292744335088111
4.237354085603107
4.1942727804480935
4.145037003128072
4.12657358663307
4.120419114468088
4.138882530963089
4.163500419623101
4.1758093639530935
4.188118308283084
4.2065817247780855
4.200427252613103
4.1942727804480935
4.1942727804480935
4.1942727804480935
4.1942727804480935
4.188118308283084
4.200427252613103
4.1942727804480935
4.188118308283084
4.1758093639530935
4.181963836118102
4.1942727804480935
4.188118308283084
4.1942727804480935
4.188118308283084
4.1942727804480935
4.188118308283084
4.188118308283084
4.1942727804480935
4.200427252613103
4.1942727804480935
4.1942727804480935
4.1758093639530935
4.138882530963089
4.1942727804480935
4.1758093639530935
4.1942727804480935
4.1942727804480935
4.2065817247780855
4.200427252613103
4.2065817247780855
4.212736196943095
4.212736196943095
4.212736196943095
4.225045141273086
4.218890669108104
4.218890669108104
4.212736196943095
4.212736196943095
4.218890669108104
4.225045141273086
4.218890669108104
4.218890669108104
4.218890669108104
4.225045141273086
4.212736196943095
4.218890669108104
4.2065817247780855
4.200427252613103
4.2065817247780855
4.212736196943095
4.212736196943095
4.212736196943095
4.2065817247780855
4.212736196943095
4.2065817247780855
4.1942727804480935
4.200427252613103
4.1942727804480935
4.188118308283084
4.188118308283084
4.1942727804480935
4.188118308283084
4.181963836118102
4.1758093639530935
4.181963836118102
4.181963836118102
4.181963836118102
4.181963836118102
4.169654891788083
4.169654891788083
4.163500419623101
4.163500419623101
4.157345947458091
4.169654891788083
4.169654891788083
4.1758093639530935
4.163500419623101
4.163500419623101
4.163500419623101
4.157345947458091
4.163500419623101
4.157345947458091
4.169654891788083
4.163500419623101
4.157345947458091
4.157345947458091
4.163500419623101
4.169654891788083
4.1758093639530935
4.1758093639530935
4.169654891788083
4.169654891788083
4.1758093639530935
4.1758093639530935
4.1758093639530935
4.1758093639530935
4.188118308283084
4.1942727804480935
4.188118308283084
4.1758093639530935
4.181963836118102
4.181963836118102
4.1758093639530935
4.1758093639530935
4.181963836118102
4.1758093639530935
4.1758093639530935
4.181963836118102
4.181963836118102
4.188118308283084
4.1758093639530935
4.181963836118102
4.181963836118102
4.181963836118102
4.181963836118102
4.181963836118102
4.1758093639530935
4.181963836118102
4.181963836118102
4.188118308283084
4.1758093639530935
4.1758093639530935
4.181963836118102
4.1758093639530935
4.181963836118102
4.1758093639530935
4.1758093639530935
4.181963836118102
4.1942727804480935
4.200427252613103
4.188118308283084
4.1942727804480935
4.1942727804480935
4.188118308283084
4.188118308283084
4.181963836118102
4.188118308283084
4.188118308283084
4.200427252613103
4.2065817247780855
4.212736196943095
4.212736196943095
4.212736196943095
4.2065817247780855
4.181963836118102
4.218890669108104
4.231199613438097
4.231199613438097
4.225045141273086
4.2065817247780855
4.181963836118102
4.200427252613103
4.2065817247780855
4.200427252613103
4.212736196943095
4.218890669108104
4.218890669108104
4.200427252613103
4.2065817247780855
4.225045141273086
4.212736196943095
4.218890669108104
4.218890669108104
4.225045141273086
4.218890669108104
4.212736196943095
4.218890669108104
4.231199613438097
4.261971974263091
4.305053279418103
4.354289056738125
4.40352483405812
4.40967930622313
4.37890694539811
4.3112077515831135
4.249663029933098
4.200427252613103
4.138882530963089
4.101955697973087
4.083492281478085
4.089646753643067
4.120419114468088
4.145037003128072
4.163500419623101
4.163500419623101
4.1758093639530935
4.181963836118102
4.188118308283084
4.181963836118102
4.1758093639530935
4.181963836118102
4.181963836118102
4.188118308283084
4.188118308283084
4.181963836118102
4.1758093639530935
4.1758093639530935
4.1758093639530935
4.1758093639530935
4.188118308283084
4.200427252613103
4.200427252613103
4.1942727804480935
4.200427252613103
4.1942727804480935
4.188118308283084
4.181963836118102
4.188118308283084
4.200427252613103
4.200427252613103
4.188118308283084
4.1942727804480935
4.1942727804480935
4.1942727804480935
4.1942727804480935
4.1942727804480935
4.1942727804480935
4.2065817247780855
4.200427252613103
4.200427252613103
4.200427252613103
4.2065817247780855
4.2065817247780855
4.2065817247780855
4.200427252613103
4.212736196943095
4.200427252613103
4.2065817247780855
4.1942727804480935
4.1942727804480935
4.1942727804480935
4.2065817247780855
4.200427252613103
4.188118308283084
4.188118308283084
4.188118308283084
4.1758093639530935
4.181963836118102
4.188118308283084
4.1942727804480935
4.188118308283084
4.1758093639530935
4.181963836118102
4.1758093639530935
4.169654891788083
4.181963836118102
4.188118308283084
4.181963836118102
4.188118308283084
4.181963836118102
4.169654891788083
4.169654891788083
4.169654891788083
4.163500419623101
4.169654891788083
4.163500419623101
4.157345947458091
4.163500419623101
4.163500419623101
4.163500419623101
4.163500419623101
4.163500419623101
4.157345947458091
4.163500419623101
4.169654891788083
4.151191475293081
4.12657358663307
4.114264642303079
4.114264642303079
4.1758093639530935
4.1758093639530935
4.1758093639530935
4.181963836118102
4.181963836118102
4.1758093639530935
4.145037003128072
4.145037003128072
4.163500419623101
4.157345947458091
4.157345947458091
4.157345947458091
4.157345947458091
4.157345947458091
4.151191475293081
4.163500419623101
4.157345947458091
4.169654891788083
4.163500419623101
4.169654891788083
4.1758093639530935
4.169654891788083
4.169654891788083
4.169654891788083
4.169654891788083
4.1758093639530935
4.169654891788083
4.169654891788083
4.169654891788083
4.163500419623101
4.169654891788083
4.1758093639530935
4.1758093639530935
4.169654891788083
4.169654891788083
4.1758093639530935
4.181963836118102
4.1758093639530935
4.1758093639530935
4.181963836118102
4.1758093639530935
4.181963836118102
4.188118308283084
4.181963836118102
4.188118308283084
4.188118308283084
4.1942727804480935
4.188118308283084
4.188118308283084
4.2065817247780855
4.200427252613103
4.2065817247780855
4.2065817247780855
4.1942727804480935
4.200427252613103
4.200427252613103
4.200427252613103
4.2065817247780855
4.212736196943095
4.218890669108104
4.225045141273086
4.225045141273086
4.237354085603107
4.237354085603107
4.237354085603107
4.225045141273086
4.218890669108104
4.212736196943095
4.212736196943095
4.200427252613103
4.212736196943095
4.212736196943095
4.212736196943095
4.212736196943095
4.225045141273086
4.218890669108104
4.218890669108104
4.212736196943095
4.218890669108104
4.225045141273086
4.225045141273086
4.237354085603107
4.27428091859311
4.3112077515831135
4.366598001068117
4.40352483405812
4.428142722718132
4.415833778388112
4.354289056738125
4.280435390758093
4.243508557768089
4.188118308283084
4.138882530963089
4.1327280587980795
4.145037003128072
4.157345947458091
4.1758093639530935
4.1942727804480935
4.2065817247780855
4.2065817247780855
4.212736196943095
4.212736196943095
4.225045141273086
4.212736196943095
4.2065817247780855
4.218890669108104
4.218890669108104
4.225045141273086
4.218890669108104
4.212736196943095
4.212736196943095
4.225045141273086
4.218890669108104
4.212736196943095
4.218890669108104
4.218890669108104
4.218890669108104
4.218890669108104
4.2065817247780855
4.188118308283084
4.231199613438097
4.231199613438097
4.237354085603107
4.218890669108104
4.188118308283084
4.200427252613103
4.212736196943095
4.218890669108104
4.225045141273086
4.231199613438097
4.218890669108104
4.218890669108104
4.218890669108104
4.231199613438097
4.225045141273086
4.225045141273086
4.225045141273086
4.231199613438097
4.231199613438097
4.231199613438097
4.225045141273086
4.243508557768089
4.237354085603107
4.237354085603107
4.237354085603107
4.237354085603107
4.231199613438097
4.231199613438097
4.225045141273086
4.231199613438097
4.218890669108104
4.218890669108104
4.225045141273086
4.237354085603107
4.231199613438097
4.231199613438097
4.225045141273086
4.237354085603107
4.225045141273086
4.225045141273086
4.225045141273086
4.218890669108104
4.218890669108104
4.2065817247780855
4.218890669108104
4.231199613438097
4.225045141273086
4.225045141273086
4.212736196943095
4.218890669108104
4.212736196943095
4.218890669108104
4.218890669108104
4.212736196943095
4.212736196943095
4.212736196943095
4.218890669108104
4.218890669108104
4.225045141273086
4.225045141273086
4.237354085603107
4.231199613438097
4.218890669108104
4.231199613438097
4.218890669108104
4.218890669108104
4.218890669108104
4.218890669108104
4.231199613438097
4.237354085603107
4.237354085603107
4.237354085603107
4.237354085603107
4.237354085603107
4.237354085603107
4.231199613438097
4.231199613438097
4.237354085603107
4.243508557768089
4.249663029933098
4.249663029933098
4.249663029933098
4.237354085603107
4.237354085603107
4.237354085603107
4.231199613438097
4.237354085603107
4.243508557768089
4.237354085603107
4.231199613438097
4.237354085603107
4.225045141273086
4.225045141273086
4.237354085603107
4.231199613438097
4.237354085603107
4.231199613438097
4.231199613438097
4.218890669108104
4.225045141273086
4.225045141273086
4.231199613438097
4.231199613438097
4.231199613438097
4.218890669108104
4.231199613438097
4.231199613438097
4.225045141273086
4.231199613438097
4.225045141273086
4.231199613438097
4.231199613438097
4.231199613438097
4.225045141273086
4.218890669108104
4.218890669108104
4.218890669108104
4.225045141273086
4.218890669108104
4.2065817247780855
4.188118308283084
4.163500419623101
4.188118308283084
4.2065817247780855
4.212736196943095
4.225045141273086
4.218890669108104
4.225045141273086
4.231199613438097
4.218890669108104
4.218890669108104
4.231199613438097
4.237354085603107
4.237354085603107
4.249663029933098
4.243508557768089
4.243508557768089
4.237354085603107
4.231199613438097
4.225045141273086
4.225045141273086
4.218890669108104
4.212736196943095
4.2065817247780855
4.2065817247780855
4.1942727804480935
4.200427252613103
4.200427252613103
4.200427252613103
4.212736196943095
4.200427252613103
4.2065817247780855
4.212736196943095
4.200427252613103
4.2065817247780855
4.212736196943095
4.212736196943095
4.231199613438097
4.261971974263091
4.298898807253093
4.341980112408105
4.397370361893111
4.434297194883113
4.40352483405812
4.335825640243124
4.2681264464281
4.225045141273086
4.163500419623101
4.1327280587980795
4.120419114468088
4.12657358663307
4.163500419623101
4.181963836118102
4.1942727804480935
4.2065817247780855
4.212736196943095
4.212736196943095
4.200427252613103
4.2065817247780855
4.218890669108104
4.2065817247780855
4.200427252613103
4.2065817247780855
4.225045141273086
4.2065817247780855
4.218890669108104
4.218890669108104
4.218890669108104
4.212736196943095
4.200427252613103
4.212736196943095
4.212736196943095
4.1758093639530935
4.151191475293081
4.200427252613103
4.2065817247780855
4.212736196943095
4.218890669108104
4.231199613438097
4.231199613438097
4.1942727804480935
4.181963836118102
4.212736196943095
4.225045141273086
4.218890669108104
4.218890669108104
4.218890669108104
4.212736196943095
4.2065817247780855
4.218890669108104
4.218890669108104
4.225045141273086
4.218890669108104
4.225045141273086
4.218890669108104
4.225045141273086
4.218890669108104
4.225045141273086
4.225045141273086
4.212736196943095
4.2065817247780855
4.200427252613103
4.200427252613103
4.200427252613103
4.1942727804480935
4.1942727804480935
4.188118308283084
4.1942727804480935
4.200427252613103
4.200427252613103
4.200427252613103
4.1942727804480935
4.1942727804480935
4.188118308283084
4.1942727804480935
4.200427252613103
4.1942727804480935
4.1942727804480935
4.181963836118102
4.181963836118102
4.181963836118102
4.1758093639530935
4.169654891788083
4.145037003128072
4.181963836118102
4.188118308283084
4.1942727804480935
4.169654891788083
4.151191475293081
4.157345947458091
4.169654891788083
4.1758093639530935
4.188118308283084
4.188118308283084
4.1758093639530935
4.181963836118102
4.181963836118102
4.1758093639530935
4.1758093639530935
4.169654891788083
4.1758093639530935
4.169654891788083
4.181963836118102
4.1758093639530935
4.1758093639530935
4.188118308283084
4.188118308283084
4.181963836118102
4.181963836118102
4.181963836118102
4.188118308283084
4.181963836118102
4.188118308283084
4.181963836118102
4.181963836118102
4.188118308283084
4.1758093639530935
4.181963836118102
4.1758093639530935
4.163500419623101
4.169654891788083
4.169654891788083
4.188118308283084
4.1758093639530935
4.157345947458091
4.157345947458091
4.163500419623101
4.169654891788083
4.169654891788083
4.163500419623101
4.163500419623101
4.157345947458091
4.157345947458091
4.163500419623101
4.163500419623101
4.163500419623101
4.1758093639530935
4.1758093639530935
4.1758093639530935
4.181963836118102
4.181963836118102
4.1942727804480935
4.188118308283084
4.188118308283084
4.188118308283084
4.181963836118102
4.1758093639530935
4.1758093639530935
4.1758093639530935
4.188118308283084
4.169654891788083
4.157345947458091
4.163500419623101
4.163500419623101
4.181963836118102
4.188118308283084
4.181963836118102
4.181963836118102
4.1758093639530935
4.181963836118102
4.181963836118102
4.181963836118102
4.1758093639530935
4.181963836118102
4.1942727804480935
4.181963836118102
4.181963836118102
4.200427252613103
4.200427252613103
4.1942727804480935
4.200427252613103
4.1942727804480935
4.188118308283084
4.1942727804480935
4.188118308283084
4.188118308283084
4.188118308283084
4.1758093639530935
4.181963836118102
4.1758093639530935
4.169654891788083
4.169654891788083
4.169654891788083
4.169654891788083
4.181963836118102
4.181963836118102
4.1758093639530935
4.181963836118102
4.181963836118102
4.1942727804480935
4.212736196943095
4.261971974263091
4.305053279418103
4.366598001068117
4.385061417563119
4.366598001068117
4.3112077515831135
4.237354085603107
4.188118308283084
4.1327280587980795
4.101955697973087
4.083492281478085
4.089646753643067
4.101955697973087
4.114264642303079
4.089646753643067
4.151191475293081
4.151191475293081
4.151191475293081
4.157345947458091
4.163500419623101
4.151191475293081
4.145037003128072
4.1327280587980795
4.12657358663307
4.138882530963089
4.145037003128072
4.157345947458091
4.157345947458091
4.163500419623101
4.1758093639530935
4.1758093639530935
4.181963836118102
4.181963836118102
4.188118308283084
4.181963836118102
4.188118308283084
4.188118308283084
4.188118308283084
4.1758093639530935
4.1942727804480935
4.1942727804480935
4.212736196943095
4.218890669108104
4.212736196943095
4.200427252613103
4.200427252613103
4.1942727804480935
4.2065817247780855
4.212736196943095
4.212736196943095
4.212736196943095
4.212736196943095
4.212736196943095
4.212736196943095
4.2065817247780855
4.200427252613103
4.200427252613103
4.2065817247780855
4.212736196943095
4.2065817247780855
4.212736196943095
4.200427252613103
4.2065817247780855
4.212736196943095
4.2065817247780855
4.200427252613103
4.2065817247780855
4.200427252613103
4.2065817247780855
4.188118308283084
4.1942727804480935
4.1942727804480935
4.1942727804480935
4.1942727804480935
4.181963836118102
4.1942727804480935
4.1758093639530935
4.169654891788083
4.1942727804480935
4.1942727804480935
4.188118308283084
4.188118308283084
4.188118308283084
4.181963836118102
4.188118308283084
4.1758093639530935
4.188118308283084
4.1758093639530935
4.181963836118102
4.1758093639530935
4.181963836118102
4.188118308283084
4.181963836118102
4.1758093639530935
4.181963836118102
4.1758093639530935
4.169654891788083
4.181963836118102
4.1758093639530935
4.181963836118102
4.169654891788083
4.1758093639530935
4.181963836118102
4.188118308283084
4.200427252613103
4.200427252613103
4.200427252613103
4.200427252613103
4.200427252613103
4.188118308283084
4.1942727804480935
4.188118308283084
4.188118308283084
4.1942727804480935
4.200427252613103
4.1942727804480935
4.1942727804480935
4.181963836118102
4.188118308283084
4.200427252613103
4.200427252613103
4.1942727804480935
4.200427252613103
4.2065817247780855
4.2065817247780855
4.200427252613103
4.1942727804480935
4.200427252613103
4.1942727804480935
4.200427252613103
4.200427252613103
4.1942727804480935
4.188118308283084
4.181963836118102
4.188118308283084
4.188118308283084
4.145037003128072
4.2065817247780855
4.225045141273086
4.212736196943095
4.181963836118102
4.181963836118102
4.188118308283084
4.1942727804480935
4.2065817247780855
4.1942727804480935
4.2065817247780855
4.212736196943095
4.2065817247780855
4.2065817247780855
4.2065817247780855
4.200427252613103
4.212736196943095
4.225045141273086
4.218890669108104
4.200427252613103
4.1758093639530935
4.231199613438097
4.249663029933098
4.249663029933098
4.243508557768089
4.231199613438097
4.243508557768089
4.231199613438097
4.200427252613103
4.218890669108104
4.237354085603107
4.231199613438097
4.231199613438097
4.231199613438097
4.231199613438097
4.237354085603107
4.249663029933098
4.243508557768089
4.231199613438097
4.231199613438097
4.218890669108104
4.225045141273086
4.225045141273086
4.218890669108104
4.218890669108104
4.212736196943095
4.225045141273086
4.225045141273086
4.225045141273086
4.218890669108104
4.225045141273086
4.231199613438097
4.231199613438097
4.243508557768089
4.261971974263091
4.298898807253093
4.348134584573115
4.397370361893111
4.434297194883113
4.428142722718132
4.37890694539811
4.323516695913104
4.27428091859311
4.212736196943095
4.163500419623101
4.138882530963089
4.145037003128072
4.157345947458091
4.188118308283084
4.200427252613103
4.2065817247780855
4.218890669108104
4.2065817247780855
4.212736196943095
4.237354085603107
4.218890669108104
4.1942727804480935
4.2065817247780855
4.2065817247780855
4.2065817247780855
4.218890669108104
4.218890669108104
4.2065817247780855
4.200427252613103
4.218890669108104
4.225045141273086
4.237354085603107
4.237354085603107
4.231199613438097
4.225045141273086
4.218890669108104
4.218890669108104
4.225045141273086
4.218890669108104
4.225045141273086
4.225045141273086
4.231199613438097
4.225045141273086
4.218890669108104
4.225045141273086
4.231199613438097
4.237354085603107
4.231199613438097
4.225045141273086
4.237354085603107
4.237354085603107
4.243508557768089
4.249663029933098
4.249663029933098
4.255817502098108
4.249663029933098
4.2681264464281
4.255817502098108
4.249663029933098
4.243508557768089
4.249663029933098
4.249663029933098
4.243508557768089
4.249663029933098
4.249663029933098
4.255817502098108
4.237354085603107
4.200427252613103
4.261971974263091
4.255817502098108
4.255817502098108
4.255817502098108
4.255817502098108
4.243508557768089
4.237354085603107
4.200427252613103
4.2065817247780855
4.218890669108104
4.218890669108104
4.212736196943095
4.225045141273086
4.231199613438097
4.225045141273086
4.225045141273086
4.218890669108104
4.225045141273086
4.218890669108104
4.2065817247780855
4.2065817247780855
4.212736196943095
4.2065817247780855
4.200427252613103
4.2065817247780855
4.212736196943095
4.212736196943095
4.2065817247780855
4.212736196943095
4.2065817247780855
4.200427252613103
4.1942727804480935
4.200427252613103
4.2065817247780855
4.212736196943095
4.212736196943095
4.200427252613103
4.2065817247780855
4.2065817247780855
4.212736196943095
4.225045141273086
4.218890669108104
4.218890669108104
4.218890669108104
4.218890669108104
4.218890669108104
4.218890669108104
4.212736196943095
4.218890669108104
4.231199613438097
4.237354085603107
4.243508557768089
4.237354085603107
4.237354085603107
4.231199613438097
4.231199613438097
4.225045141273086
4.218890669108104
4.231199613438097
4.249663029933098
4.237354085603107
4.218890669108104
4.218890669108104
4.237354085603107
4.231199613438097
4.243508557768089
4.249663029933098
4.243508557768089
4.243508557768089
4.237354085603107
4.237354085603107
4.231199613438097
4.225045141273086
4.218890669108104
4.231199613438097
4.231199613438097
4.231199613438097
4.231199613438097
4.231199613438097
4.231199613438097
4.231199613438097
4.231199613438097
4.231199613438097
4.237354085603107
4.225045141273086
4.225045141273086
4.237354085603107
4.231199613438097
4.231199613438097
4.237354085603107
4.237354085603107
4.243508557768089
4.237354085603107
4.237354085603107
4.237354085603107
4.243508557768089
4.237354085603107
4.243508557768089
4.243508557768089
4.255817502098108
4.249663029933098
4.249663029933098
4.249663029933098
4.255817502098108
4.249663029933098
4.255817502098108
4.255817502098108
4.249663029933098
4.249663029933098
4.237354085603107
4.237354085603107
4.237354085603107
4.225045141273086
4.212736196943095
4.212736196943095
4.225045141273086
4.218890669108104
4.218890669108104
4.225045141273086
4.225045141273086
4.231199613438097
4.1942727804480935
4.243508557768089
4.249663029933098
4.231199613438097
4.218890669108104
4.261971974263091
4.329671168078114
4.37890694539811
4.421988250553122
4.440451667048122
4.40352483405812
4.329671168078114
4.2865898629231
4.243508557768089
4.188118308283084
4.163500419623101
4.151191475293081
4.163500419623101
4.1758093639530935
4.2065817247780855
4.2065817247780855
4.225045141273086
4.231199613438097
4.231199613438097
4.218890669108104
4.212736196943095
4.218890669108104
4.243508557768089
4.255817502098108
4.249663029933098
4.249663029933098
4.243508557768089
4.225045141273086
4.225045141273086
4.225045141273086
4.231199613438097
4.255817502098108
4.255817502098108
4.255817502098108
4.280435390758093
4.27428091859311
4.261971974263091
4.243508557768089
4.237354085603107
4.249663029933098
4.249663029933098
4.255817502098108
4.2681264464281
4.261971974263091
4.261971974263091
4.2681264464281
4.280435390758093
4.2681264464281
4.261971974263091
4.261971974263091
4.2681264464281
4.2681264464281
4.261971974263091
4.2681264464281
4.27428091859311
4.261971974263091
4.255817502098108
4.243508557768089
4.249663029933098
4.261971974263091
4.261971974263091
4.255817502098108
4.255817502098108
4.255817502098108
4.261971974263091
4.261971974263091
4.255817502098108
4.255817502098108
4.249663029933098
4.255817502098108
4.249663029933098
4.243508557768089
4.249663029933098
4.237354085603107
4.237354085603107
4.225045141273086
4.231199613438097
4.231199613438097
4.225045141273086
4.231199613438097
4.231199613438097
4.218890669108104
4.218890669108104
4.231199613438097
4.231199613438097
4.188118308283084
4.231199613438097
4.249663029933098
4.237354085603107
4.237354085603107
4.237354085603107
4.237354085603107
4.237354085603107
4.200427252613103
4.218890669108104
4.225045141273086
4.225045141273086
4.225045141273086
4.218890669108104
4.218890669108104
4.225045141273086
4.218890669108104
4.231199613438097
4.225045141273086
4.237354085603107
4.237354085603107
4.243508557768089
4.243508557768089
4.243508557768089
4.237354085603107
4.237354085603107
4.231199613438097
4.237354085603107
4.231199613438097
4.243508557768089
4.237354085603107
4.237354085603107
4.1942727804480935
4.249663029933098
4.255817502098108
4.261971974263091
4.249663029933098
4.249663029933098
4.249663029933098
4.225045141273086
4.231199613438097
4.237354085603107
4.231199613438097
4.249663029933098
4.243508557768089
4.243508557768089
4.231199613438097
4.231199613438097
4.237354085603107
4.249663029933098
4.261971974263091
4.249663029933098
4.255817502098108
4.243508557768089
4.237354085603107
4.237354085603107
4.237354085603107
4.231199613438097
4.231199613438097
4.243508557768089
4.237354085603107
4.225045141273086
4.218890669108104
4.231199613438097
4.255817502098108
4.249663029933098
4.243508557768089
4.249663029933098
4.231199613438097
4.231199613438097
4.231199613438097
4.225045141273086
4.237354085603107
4.237354085603107
4.237354085603107
4.237354085603107
4.237354085603107
4.243508557768089
4.231199613438097
4.231199613438097
4.231199613438097
4.231199613438097
4.231199613438097
4.237354085603107
4.237354085603107
4.237354085603107
4.237354085603107
4.231199613438097
4.231199613438097
4.243508557768089
4.237354085603107
4.218890669108104
4.2065817247780855
4.200427252613103
4.200427252613103
4.2065817247780855
4.225045141273086
4.212736196943095
4.218890669108104
4.218890669108104
4.218890669108104
4.218890669108104
4.2065817247780855
4.2065817247780855
4.212736196943095
4.218890669108104
4.255817502098108
4.2865898629231
4.3173622237481215
4.366598001068117
4.40352483405812
4.421988250553122
4.385061417563119
4.3173622237481215
4.261971974263091
4.218890669108104
4.151191475293081
4.12657358663307
4.12657358663307
4.151191475293081
4.1758093639530935
4.188118308283084
4.2065817247780855
4.212736196943095
4.225045141273086
4.225045141273086
4.225045141273086
4.237354085603107
4.243508557768089
4.237354085603107
4.237354085603107
4.231199613438097
4.237354085603107
4.225045141273086
4.231199613438097
4.237354085603107
4.237354085603107
4.237354085603107
4.243508557768089
4.261971974263091
4.243508557768089
4.237354085603107
4.231199613438097
4.237354085603107
4.231199613438097
4.231199613438097
4.237354085603107
4.243508557768089
4.237354085603107
4.231199613438097
4.231199613438097
4.237354085603107
4.231199613438097
4.225045141273086
4.200427252613103
4.243508557768089
4.237354085603107
4.200427252613103
4.218890669108104
4.237354085603107
4.231199613438097
4.231199613438097
4.231199613438097
4.231199613438097
4.218890669108104
4.225045141273086
4.231199613438097
4.231199613438097
4.237354085603107
4.243508557768089
4.231199613438097
4.231199613438097
4.237354085603107
4.237354085603107
4.237354085603107
4.237354085603107
4.237354085603107
4.237354085603107
4.231199613438097
4.231199613438097
4.218890669108104
4.212736196943095
4.225045141273086
4.225045141273086
4.225045141273086
4.218890669108104
4.231199613438097
4.225045141273086
4.218890669108104
4.218890669108104
4.218890669108104
4.225045141273086
4.231199613438097
4.218890669108104
4.225045141273086
4.225045141273086
4.212736196943095
4.212736196943095
4.2065817247780855
4.218890669108104
4.218890669108104
4.212736196943095
4.2065817247780855
4.2065817247780855
4.2065817247780855
4.212736196943095
4.225045141273086
4.218890669108104
4.218890669108104
4.225045141273086
4.218890669108104
4.231199613438097
4.225045141273086
4.237354085603107
4.231199613438097
4.231199613438097
4.218890669108104
4.231199613438097
4.249663029933098
4.243508557768089
4.237354085603107
4.237354085603107
4.237354085603107
4.243508557768089
4.243508557768089
4.231199613438097
4.237354085603107
4.225045141273086
4.218890669108104
4.231199613438097
4.237354085603107
4.243508557768089
4.231199613438097
4.231199613438097
4.243508557768089
4.243508557768089
4.243508557768089
4.249663029933098
4.255817502098108
4.237354085603107
4.243508557768089
4.243508557768089
4.243508557768089
4.237354085603107
4.243508557768089
4.249663029933098
4.243508557768089
4.249663029933098
4.243508557768089
4.243508557768089
4.243508557768089
4.255817502098108
4.255817502098108
4.243508557768089
4.237354085603107
4.243508557768089
4.255817502098108
4.249663029933098
4.243508557768089
4.255817502098108
4.255817502098108
4.255817502098108
4.261971974263091
4.261971974263091
4.261971974263091
4.2681264464281
4.2681264464281
4.261971974263091
4.27428091859311
4.27428091859311
4.27428091859311
4.280435390758093
4.280435390758093
4.292744335088111
4.2865898629231
4.2681264464281
4.243508557768089
4.2865898629231
4.292744335088111
4.280435390758093
4.280435390758093
4.27428091859311
4.249663029933098
4.225045141273086
4.243508557768089
4.237354085603107
4.237354085603107
4.231199613438097
4.237354085603107
4.243508557768089
4.237354085603107
4.237354085603107
4.243508557768089
4.237354085603107
4.243508557768089
4.237354085603107
4.243508557768089
4.261971974263091
4.280435390758093
4.323516695913104
4.3727524732331275
4.40967930622313
4.440451667048122
4.440451667048122
4.397370361893111
4.323516695913104
4.2865898629231
4.237354085603107
4.181963836118102
4.169654891788083
4.163500419623101
4.1758093639530935
4.1942727804480935
4.231199613438097
4.212736196943095
4.237354085603107
4.255817502098108
4.249663029933098
4.243508557768089
4.249663029933098
4.237354085603107
4.218890669108104
4.188118308283084
4.2065817247780855
4.212736196943095
4.218890669108104
4.225045141273086
4.231199613438097
4.237354085603107
4.231199613438097
4.225045141273086
4.218890669108104
4.218890669108104
4.212736196943095
4.225045141273086
4.231199613438097
4.243508557768089
4.255817502098108
4.243508557768089
4.231199613438097
4.231199613438097
4.237354085603107
4.237354085603107
4.243508557768089
4.249663029933098
4.249663029933098
4.249663029933098
4.255817502098108
4.249663029933098
4.243508557768089
4.249663029933098
4.243508557768089
4.249663029933098
4.255817502098108
4.255817502098108
4.249663029933098
4.237354085603107
4.243508557768089
4.255817502098108
4.261971974263091
4.249663029933098
4.231199613438097
4.237354085603107
4.243508557768089
4.237354085603107
4.243508557768089
4.243508557768089
4.237354085603107
4.237354085603107
4.225045141273086
4.237354085603107
4.237354085603107
4.237354085603107
4.231199613438097
4.231199613438097
4.231199613438097
4.218890669108104
4.1942727804480935
4.218890669108104
4.218890669108104
4.218890669108104
4.225045141273086
4.225045141273086
4.218890669108104
4.212736196943095
4.212736196943095
4.212736196943095
4.2065817247780855
4.1942727804480935
4.2065817247780855
4.218890669108104
4.225045141273086
4.212736196943095
4.2065817247780855
4.2065817247780855
4.225045141273086
4.225045141273086
4.231199613438097
4.181963836118102
4.231199613438097
4.212736196943095
4.181963836118102
4.200427252613103
4.212736196943095
4.218890669108104
4.212736196943095
4.212736196943095
4.212736196943095
4.218890669108104
4.218890669108104
4.218890669108104
4.200427252613103
4.212736196943095
4.212736196943095
4.212736196943095
4.212736196943095
4.200427252613103
4.200427252613103
4.212736196943095
4.218890669108104
4.212736196943095
4.1942727804480935
4.1942727804480935
4.1942727804480935
4.200427252613103
4.2065817247780855
4.212736196943095
4.212736196943095
4.2065817247780855
4.200427252613103
4.200427252613103
4.1942727804480935
4.200427252613103
4.212736196943095
4.2065817247780855
4.225045141273086
4.218890669108104
4.2065817247780855
4.1942727804480935
4.188118308283084
4.188118308283084
4.188118308283084
4.1942727804480935
4.2065817247780855
4.212736196943095
4.2065817247780855
4.212736196943095
4.2065817247780855
4.200427252613103
4.2065817247780855
4.1942727804480935
4.188118308283084
4.218890669108104
4.237354085603107
4.225045141273086
4.218890669108104
4.225045141273086
4.249663029933098
4.255817502098108
4.243508557768089
4.237354085603107
4.225045141273086
4.249663029933098
4.243508557768089
4.243508557768089
4.255817502098108
4.261971974263091
4.255817502098108
4.249663029933098
4.237354085603107
4.231199613438097
4.225045141273086
4.231199613438097
4.237354085603107
4.2065817247780855
4.212736196943095
4.231199613438097
4.237354085603107
4.237354085603107
4.2065817247780855
4.212736196943095
4.218890669108104
4.225045141273086
4.231199613438097
4.225045141273086
4.231199613438097
4.231199613438097
4.231199613438097
4.2681264464281
4.305053279418103
4.360443528903107
4.397370361893111
4.428142722718132
4.391215889728128
4.323516695913104
4.261971974263091
4.237354085603107
4.181963836118102
4.157345947458091
4.151191475293081
4.157345947458091
4.163500419623101
4.188118308283084
4.188118308283084
4.200427252613103
4.2065817247780855
4.212736196943095
4.218890669108104
4.218890669108104
4.218890669108104
4.218890669108104
4.212736196943095
4.218890669108104
4.225045141273086
4.225045141273086
4.231199613438097
4.225045141273086
4.225045141273086
4.237354085603107
4.225045141273086
4.181963836118102
4.243508557768089
4.249663029933098
4.249663029933098
4.243508557768089
4.243508557768089
4.212736196943095
4.200427252613103
4.218890669108104
4.231199613438097
4.237354085603107
4.237354085603107
4.237354085603107
4.237354085603107
4.237354085603107
4.231199613438097
4.237354085603107
4.237354085603107
4.237354085603107
4.243508557768089
4.255817502098108
4.2681264464281
4.2681264464281
4.261971974263091
4.255817502098108
4.255817502098108
4.249663029933098
4.249663029933098
4.249663029933098
4.243508557768089
4.255817502098108
4.249663029933098
4.237354085603107
4.243508557768089
4.255817502098108
4.249663029933098
4.255817502098108
4.249663029933098
4.243508557768089
4.243508557768089
4.237354085603107
4.249663029933098
4.249663029933098
4.237354085603107
4.231199613438097
4.231199613438097
4.231199613438097
4.237354085603107
4.237354085603107
4.231199613438097
4.231199613438097
4.237354085603107
4.237354085603107
4.231199613438097
4.231199613438097
4.218890669108104
4.218890669108104
4.225045141273086
4.225045141273086
4.225045141273086
4.231199613438097
4.218890669108104
4.218890669108104
4.225045141273086
4.225045141273086
4.225045141273086
4.218890669108104
4.231199613438097
4.225045141273086
4.237354085603107
4.231199613438097
4.231199613438097
4.231199613438097
4.231199613438097
4.225045141273086
4.231199613438097
4.218890669108104
4.218890669108104
4.225045141273086
4.225045141273086
4.225045141273086
4.218890669108104
4.225045141273086
4.237354085603107
4.225045141273086
4.231199613438097
4.237354085603107
4.225045141273086
4.225045141273086
4.231199613438097
4.237354085603107
4.237354085603107
4.225045141273086
4.225045141273086
4.225045141273086
4.225045141273086
4.218890669108104
4.212736196943095
4.218890669108104
4.225045141273086
4.225045141273086
4.218890669108104
4.218890669108104
4.225045141273086
4.218890669108104
4.231199613438097
4.237354085603107
4.243508557768089
4.2065817247780855
4.2065817247780855
4.255817502098108
4.237354085603107
4.243508557768089
4.237354085603107
4.225045141273086
4.237354085603107
4.2065817247780855
4.200427252613103
4.225045141273086
4.225045141273086
4.237354085603107
4.225045141273086
4.200427252613103
4.237354085603107
4.218890669108104
4.218890669108104
4.237354085603107
4.237354085603107
4.243508557768089
4.243508557768089
4.243508557768089
4.249663029933098
4.249663029933098
4.261971974263091
4.261971974263091
4.261971974263091
4.2681264464281
4.261971974263091
4.249663029933098
4.255817502098108
4.249663029933098
4.255817502098108
4.2681264464281
4.261971974263091
4.255817502098108
4.249663029933098
4.243508557768089
4.249663029933098
4.243508557768089
4.243508557768089
4.243508557768089
4.255817502098108
4.255817502098108
4.255817502098108
4.249663029933098
4.249663029933098
4.249663029933098
4.261971974263091
4.255817502098108
4.280435390758093
4.3112077515831135
4.360443528903107
4.40967930622313
4.440451667048122
4.446606139213133
4.415833778388112
4.341980112408105
4.2865898629231
4.249663029933098
4.188118308283084
4.157345947458091
4.151191475293081
4.163500419623101
4.181963836118102
4.212736196943095
4.225045141273086
4.225045141273086
4.231199613438097
4.237354085603107
4.249663029933098
4.249663029933098
4.261971974263091
4.261971974263091
4.255817502098108
4.243508557768089
4.243508557768089
4.249663029933098
4.243508557768089
4.237354085603107
4.243508557768089
4.237354085603107
4.237354085603107
4.225045141273086
4.218890669108104
4.225045141273086
4.225045141273086
4.243508557768089
4.231199613438097
4.225045141273086
4.231199613438097
4.237354085603107
4.237354085603107
4.225045141273086
4.225045141273086
4.225045141273086
4.225045141273086
4.231199613438097
4.231199613438097
4.231199613438097
4.225045141273086
4.225045141273086
4.218890669108104
4.225045141273086
4.231199613438097
4.231199613438097
4.225045141273086
4.237354085603107
4.225045141273086
4.231199613438097
4.237354085603107
4.231199613438097
4.231199613438097
4.231199613438097
4.231199613438097
4.237354085603107
4.237354085603107
4.231199613438097
4.231199613438097
4.225045141273086
4.225045141273086
4.225045141273086
4.231199613438097
4.231199613438097
4.225045141273086
4.237354085603107
4.231199613438097
4.231199613438097
4.225045141273086
4.218890669108104
4.225045141273086
4.225045141273086
4.237354085603107
4.231199613438097
4.231199613438097
4.200427252613103
4.231199613438097
4.231199613438097
4.218890669108104
4.212736196943095
4.212736196943095
4.188118308283084
4.188118308283084
4.2065817247780855
4.212736196943095
4.225045141273086
4.218890669108104
4.225045141273086
4.231199613438097
4.218890669108104
4.218890669108104
4.212736196943095
4.212736196943095
4.212736196943095
4.218890669108104
4.225045141273086
4.218890669108104
4.212736196943095
4.231199613438097
4.231199613438097
4.237354085603107
4.237354085603107
4.225045141273086
4.225045141273086
4.218890669108104
4.218890669108104
4.231199613438097
4.237354085603107
4.231199613438097
4.231199613438097
4.225045141273086
4.225045141273086
4.218890669108104
4.212736196943095
4.225045141273086
4.231199613438097
4.231199613438097
4.231199613438097
4.225045141273086
4.218890669108104
4.212736196943095
4.218890669108104
4.218890669108104
4.218890669108104
4.212736196943095
4.212736196943095
4.231199613438097
4.237354085603107
4.231199613438097
4.237354085603107
4.231199613438097
4.231199613438097
4.225045141273086
4.225045141273086
4.231199613438097
4.237354085603107
4.231199613438097
4.237354085603107
4.231199613438097
4.231199613438097
4.225045141273086
4.225045141273086
4.225045141273086
4.218890669108104
4.225045141273086
4.218890669108104
4.231199613438097
4.231199613438097
4.225045141273086
4.225045141273086
4.231199613438097
4.225045141273086
4.218890669108104
4.231199613438097
4.225045141273086
4.237354085603107
4.237354085603107
4.243508557768089
4.231199613438097
4.225045141273086
4.237354085603107
4.249663029933098
4.237354085603107
4.231199613438097
4.231199613438097
4.231199613438097
4.218890669108104
4.212736196943095
4.225045141273086
4.231199613438097
4.225045141273086
4.225045141273086
4.237354085603107
4.237354085603107
4.243508557768089
4.243508557768089
4.243508557768089
4.249663029933098
4.255817502098108
4.261971974263091
4.2865898629231
4.3112077515831135
4.366598001068117
4.415833778388112
4.458915083543125
4.465069555708134
4.421988250553122
4.354289056738125
4.298898807253093
4.249663029933098
4.2065817247780855
4.169654891788083
4.157345947458091
4.1758093639530935
4.200427252613103
4.218890669108104
4.212736196943095
4.181963836118102
4.237354085603107
4.218890669108104
4.231199613438097
4.243508557768089
4.243508557768089
4.243508557768089
4.243508557768089
4.249663029933098
4.243508557768089
4.243508557768089
4.243508557768089
4.237354085603107
4.237354085603107
4.243508557768089
4.249663029933098
4.243508557768089
4.243508557768089
4.243508557768089
4.255817502098108
4.255817502098108
4.255817502098108
4.249663029933098
4.249663029933098
4.255817502098108
4.249663029933098
4.249663029933098
4.243508557768089
4.243508557768089
4.261971974263091
4.261971974263091
4.261971974263091
4.261971974263091
4.243508557768089
4.2681264464281
4.261971974263091
4.261971974263091
4.2681264464281
4.261971974263091
4.255817502098108
4.249663029933098
4.243508557768089
4.255817502098108
4.249663029933098
4.249663029933098
4.249663029933098
4.255817502098108
4.2681264464281
4.255817502098108
4.243508557768089
4.243508557768089
4.249663029933098
4.249663029933098
4.249663029933098
4.243508557768089
4.231199613438097
4.2065817247780855
4.169654891788083
4.243508557768089
4.243508557768089
4.243508557768089
4.243508557768089
4.237354085603107
4.231199613438097
4.2065817247780855
4.1942727804480935
4.2065817247780855
4.200427252613103
4.2065817247780855
4.200427252613103
4.200427252613103
4.200427252613103
4.1942727804480935
4.188118308283084
4.188118308283084
4.1942727804480935
4.2065817247780855
4.231199613438097
4.243508557768089
4.237354085603107
4.231199613438097
4.225045141273086
4.225045141273086
4.225045141273086
4.218890669108104
4.218890669108104
4.218890669108104
4.218890669108104
4.225045141273086
4.225045141273086
4.231199613438097
4.231199613438097
4.231199613438097
4.225045141273086
4.225045141273086
4.218890669108104
4.225045141273086
4.231199613438097
4.225045141273086
4.218890669108104
4.212736196943095
4.2065817247780855
4.2065817247780855
4.225045141273086
4.218890669108104
4.218890669108104
4.218890669108104
4.218890669108104
4.218890669108104
4.225045141273086
4.212736196943095
4.218890669108104
4.231199613438097
4.231199613438097
4.237354085603107
4.237354085603107
4.231199613438097
4.231199613438097
4.212736196943095
4.212736196943095
4.218890669108104
4.225045141273086
4.1942727804480935
4.249663029933098
4.243508557768089
4.249663029933098
4.243508557768089
4.212736196943095
4.188118308283084
4.2065817247780855
4.2065817247780855
4.2065817247780855
4.2065817247780855
4.212736196943095
4.218890669108104
4.218890669108104
4.218890669108104
4.212736196943095
4.218890669108104
4.212736196943095
4.218890669108104
4.231199613438097
4.237354085603107
4.218890669108104
4.225045141273086
4.237354085603107
4.231199613438097
4.231199613438097
4.231199613438097
4.231199613438097
4.231199613438097
4.218890669108104
4.225045141273086
4.231199613438097
4.231199613438097
4.225045141273086
4.212736196943095
4.212736196943095
4.200427252613103
4.1942727804480935
4.188118308283084
4.200427252613103
4.1942727804480935
4.200427252613103
4.200427252613103
4.1942727804480935
4.188118308283084
4.188118308283084
4.188118308283084
4.181963836118102
4.188118308283084
4.1942727804480935
4.218890669108104
4.249663029933098
4.292744335088111
4.348134584573115
4.397370361893111
4.421988250553122
4.397370361893111
4.323516695913104
4.261971974263091
4.2065817247780855
4.138882530963089
4.108110170138069
4.095801225808079
4.101955697973087
4.1327280587980795
4.151191475293081
4.169654891788083
4.1758093639530935
4.188118308283084
4.1942727804480935
4.200427252613103
4.2065817247780855
4.200427252613103
4.212736196943095
4.212736196943095
4.200427252613103
4.200427252613103
4.2065817247780855
4.212736196943095
4.218890669108104
4.231199613438097
4.237354085603107
4.225045141273086
4.231199613438097
4.225045141273086
4.231199613438097
4.231199613438097
4.231199613438097
4.237354085603107
4.243508557768089
4.237354085603107
4.237354085603107
4.243508557768089
4.243508557768089
4.249663029933098
4.249663029933098
4.237354085603107
4.243508557768089
4.249663029933098
4.249663029933098
4.261971974263091
4.261971974263091
4.2681264464281
4.261971974263091
4.255817502098108
4.261971974263091
4.255817502098108
4.249663029933098
4.255817502098108
4.243508557768089
4.249663029933098
4.249663029933098
4.255817502098108
4.255817502098108
4.255817502098108
4.243508557768089
4.243508557768089
4.237354085603107
4.237354085603107
4.249663029933098
4.249663029933098
4.237354085603107
4.188118308283084
4.2065817247780855
4.218890669108104
4.237354085603107
4.237354085603107
4.237354085603107
4.231199613438097
4.237354085603107
4.231199613438097
4.225045141273086
4.231199613438097
4.231199613438097
4.225045141273086
4.218890669108104
4.218890669108104
4.212736196943095
4.212736196943095
4.212736196943095
4.218890669108104
4.218890669108104
4.218890669108104
4.218890669108104
4.231199613438097
4.218890669108104
4.218890669108104
4.218890669108104
4.218890669108104
4.231199613438097
4.237354085603107
4.237354085603107
4.231199613438097
4.231199613438097
4.237354085603107
4.237354085603107
4.237354085603107
4.225045141273086
4.237354085603107
4.237354085603107
4.243508557768089
4.237354085603107
4.243508557768089
4.243508557768089
4.243508557768089
4.243508557768089
4.243508557768089
4.243508557768089
4.255817502098108
4.249663029933098
4.249663029933098
4.243508557768089
4.249663029933098
4.255817502098108
4.261971974263091
4.255817502098108
4.255817502098108
4.261971974263091
4.261971974263091
4.261971974263091
4.249663029933098
4.249663029933098
4.249663029933098
4.249663029933098
4.249663029933098
4.261971974263091
4.261971974263091
4.280435390758093
4.27428091859311
4.27428091859311
4.2681264464281
4.255817502098108
4.255817502098108
4.261971974263091
4.255817502098108
4.2681264464281
4.27428091859311
4.2681264464281
4.2681264464281
4.261971974263091
4.255817502098108
4.261971974263091
4.2681264464281
4.27428091859311
4.2681264464281
4.261971974263091
4.27428091859311
4.27428091859311
4.2681264464281
4.261971974263091
4.255817502098108
4.261971974263091
4.249663029933098
4.249663029933098
4.249663029933098
4.261971974263091
4.255817502098108
4.243508557768089
4.243508557768089
4.231199613438097
4.225045141273086
4.225045141273086
4.225045141273086
4.225045141273086
4.225045141273086
4.218890669108104
4.212736196943095
4.2065817247780855
4.200427252613103
4.200427252613103
4.1942727804480935
4.2065817247780855
4.225045141273086
4.2681264464281
4.305053279418103
4.348134584573115
4.397370361893111
4.415833778388112
4.415833778388112
4.366598001068117
4.298898807253093
4.255817502098108
4.1942727804480935
4.138882530963089
4.083492281478085
4.145037003128072
4.1758093639530935
4.1942727804480935
4.169654891788083
4.120419114468088
4.181963836118102
4.212736196943095
4.2065817247780855
4.212736196943095
4.218890669108104
4.231199613438097
4.212736196943095
4.188118308283084
4.200427252613103
4.2065817247780855
4.212736196943095
4.212736196943095
4.218890669108104
4.212736196943095
4.212736196943095
4.225045141273086
4.231199613438097
4.243508557768089
4.237354085603107
4.237354085603107
4.237354085603107
4.231199613438097
4.237354085603107
4.231199613438097
4.231199613438097
4.237354085603107
4.237354085603107
4.237354085603107
4.237354085603107
4.249663029933098
4.243508557768089
4.249663029933098
4.243508557768089
4.249663029933098
4.255817502098108
4.255817502098108
4.255817502098108
4.255817502098108
4.261971974263091
4.261971974263091
4.261971974263091
4.261971974263091
4.261971974263091
4.2681264464281
4.2681264464281
4.2681264464281
4.261971974263091
4.2681264464281
4.2681264464281
4.2681264464281
4.2681264464281
4.261971974263091
4.255817502098108
4.249663029933098
4.255817502098108
4.261971974263091
4.255817502098108
4.255817502098108
4.249663029933098
4.255817502098108
4.261971974263091
4.249663029933098
4.237354085603107
4.255817502098108
4.255817502098108
4.255817502098108
4.249663029933098
4.249663029933098
4.243508557768089
4.249663029933098
4.249663029933098
4.249663029933098
4.261971974263091
4.255817502098108
4.249663029933098
4.243508557768089
4.249663029933098
4.249663029933098
4.249663029933098
4.243508557768089
4.249663029933098
4.243508557768089
4.249663029933098
4.249663029933098
4.243508557768089
4.237354085603107
4.225045141273086
4.225045141273086
4.231199613438097
4.231199613438097
4.237354085603107
4.249663029933098
4.243508557768089
4.231199613438097
4.237354085603107
4.237354085603107
4.237354085603107
4.237354085603107
4.243508557768089
4.243508557768089
4.249663029933098
4.249663029933098
4.243508557768089
4.249663029933098
4.243508557768089
4.243508557768089
4.237354085603107
4.237354085603107
4.237354085603107
4.231199613438097
4.237354085603107
4.237354085603107
4.237354085603107
4.237354085603107
4.231199613438097
4.218890669108104
4.1758093639530935
4.2065817247780855
4.237354085603107
4.243508557768089
4.243508557768089
4.243508557768089
4.231199613438097
4.231199613438097
4.231199613438097
4.231199613438097
4.237354085603107
4.249663029933098
4.255817502098108
4.243508557768089
4.237354085603107
4.243508557768089
4.237354085603107
4.237354085603107
4.237354085603107
4.243508557768089
4.255817502098108
4.261971974263091
4.255817502098108
4.27428091859311
4.261971974263091
4.2681264464281
4.261971974263091
4.261971974263091
4.261971974263091
4.2681264464281
4.280435390758093
4.280435390758093
4.2681264464281
4.27428091859311
4.2681264464281
4.2681264464281
4.27428091859311
4.280435390758093
4.27428091859311
4.261971974263091
4.255817502098108
4.255817502098108
4.249663029933098
4.249663029933098
4.249663029933098
4.237354085603107
4.243508557768089
4.249663029933098
4.237354085603107
4.225045141273086
4.231199613438097
4.225045141273086
4.212736196943095
4.218890669108104
4.231199613438097
4.255817502098108
4.292744335088111
4.348134584573115
4.397370361893111
4.434297194883113
4.428142722718132
4.366598001068117
4.2865898629231
4.231199613438097
4.188118308283084
4.145037003128072
4.1327280587980795
4.138882530963089
4.151191475293081
4.169654891788083
4.181963836118102
4.181963836118102
4.200427252613103
4.200427252613103
4.2065817247780855
4.2065817247780855
4.2065817247780855
4.2065817247780855
4.212736196943095
4.2065817247780855
4.2065817247780855
4.212736196943095
4.212736196943095
4.212736196943095
4.212736196943095
4.2065817247780855
4.2065817247780855
4.1942727804480935
4.2065817247780855
4.2065817247780855
4.2065817247780855
4.2065817247780855
4.2065817247780855
4.212736196943095
4.200427252613103
4.2065817247780855
4.212736196943095
4.212736196943095
4.218890669108104
4.212736196943095
4.218890669108104
4.212736196943095
4.2065817247780855
4.212736196943095
4.212736196943095
4.212736196943095
4.212736196943095
4.218890669108104
4.218890669108104
4.218890669108104
4.218890669108104
4.218890669108104
4.225045141273086
4.231199613438097
4.231199613438097
4.231199613438097
4.225045141273086
4.218890669108104
4.212736196943095
4.2065817247780855
4.212736196943095
4.218890669108104
4.188118308283084
4.237354085603107
4.231199613438097
4.225045141273086
4.1942727804480935
4.181963836118102
4.200427252613103
4.200427252613103
4.200427252613103
4.200427252613103
4.188118308283084
4.1942727804480935
4.188118308283084
4.181963836118102
4.188118308283084
4.1942727804480935
4.181963836118102
4.1942727804480935
4.188118308283084
4.1942727804480935
4.1942727804480935
4.188118308283084
4.200427252613103
4.1942727804480935
4.188118308283084
4.1942727804480935
4.181963836118102
4.188118308283084
4.200427252613103
4.200427252613103
4.200427252613103
4.200427252613103
4.200427252613103
4.200427252613103
4.200427252613103
4.2065817247780855
4.218890669108104
4.218890669108104
4.218890669108104
4.212736196943095
4.212736196943095
4.218890669108104
4.218890669108104
4.218890669108104
4.212736196943095
4.212736196943095
4.212736196943095
4.218890669108104
4.218890669108104
4.212736196943095
4.2065817247780855
4.2065817247780855
4.212736196943095
4.2065817247780855
4.2065817247780855
4.200427252613103
4.1942727804480935
4.188118308283084
4.1942727804480935
4.1942727804480935
4.188118308283084
4.1942727804480935
4.200427252613103
4.1942727804480935
4.200427252613103
4.200427252613103
4.200427252613103
4.188118308283084
4.1942727804480935
4.188118308283084
4.1942727804480935
4.1942727804480935
4.1942727804480935
4.1942727804480935
4.188118308283084
4.138882530963089
4.1942727804480935
4.218890669108104
4.2065817247780855
4.188118308283084
4.200427252613103
4.200427252613103
4.188118308283084
4.151191475293081
4.163500419623101
4.181963836118102
4.181963836118102
4.181963836118102
4.188118308283084
4.181963836118102
4.188118308283084
4.1758093639530935
4.1942727804480935
4.1942727804480935
4.200427252613103
4.212736196943095
4.200427252613103
4.212736196943095
4.218890669108104
4.212736196943095
4.225045141273086
4.231199613438097
4.237354085603107
4.243508557768089
4.237354085603107
4.243508557768089
4.231199613438097
4.243508557768089
4.243508557768089
4.243508557768089
4.243508557768089
4.237354085603107
4.243508557768089
4.237354085603107
4.231199613438097
4.243508557768089
4.249663029933098
4.243508557768089
4.243508557768089
4.249663029933098
4.243508557768089
4.231199613438097
4.1942727804480935
4.2681264464281
4.261971974263091
4.261971974263091
4.280435390758093
4.305053279418103
4.348134584573115
4.397370361893111
4.397370361893111
4.421988250553122
4.385061417563119
4.3173622237481215
4.261971974263091
4.212736196943095
4.151191475293081
4.120419114468088
4.120419114468088
4.1327280587980795
4.157345947458091
4.1758093639530935
4.181963836118102
4.1942727804480935
4.2065817247780855
4.212736196943095
4.2065817247780855
4.218890669108104
4.218890669108104
4.212736196943095
4.212736196943095
4.2065817247780855
4.218890669108104
4.212736196943095
4.225045141273086
4.231199613438097
4.231199613438097
4.225045141273086
4.237354085603107
4.231199613438097
4.237354085603107
4.237354085603107
4.237354085603107
4.249663029933098
4.261971974263091
4.261971974263091
4.249663029933098
4.243508557768089
4.243508557768089
4.237354085603107
4.249663029933098
4.255817502098108
4.2681264464281
4.2681264464281
4.255817502098108
4.255817502098108
4.243508557768089
4.243508557768089
4.231199613438097
4.237354085603107
4.255817502098108
4.27428091859311
4.2681264464281
4.261971974263091
4.255817502098108
4.255817502098108
4.261971974263091
4.2681264464281
4.261971974263091
4.261971974263091
4.261971974263091
4.249663029933098
4.237354085603107
4.237354085603107
4.2681264464281
4.261971974263091
4.255817502098108
4.261971974263091
4.255817502098108
4.255817502098108
4.243508557768089
4.237354085603107
4.249663029933098
4.249663029933098
4.243508557768089
4.231199613438097
4.225045141273086
4.225045141273086
4.225045141273086
4.225045141273086
4.231199613438097
4.225045141273086
4.225045141273086
4.231199613438097
4.231199613438097
4.237354085603107
4.243508557768089
4.231199613438097
4.225045141273086
4.231199613438097
4.225045141273086
4.225045141273086
4.225045141273086
4.231199613438097
4.218890669108104
4.225045141273086
4.231199613438097
4.231199613438097
4.225045141273086
4.225045141273086
4.237354085603107
4.237354085603107
4.225045141273086
4.231199613438097
4.231199613438097
4.231199613438097
4.237354085603107
4.231199613438097
4.243508557768089
4.237354085603107
4.231199613438097
4.225045141273086
4.218890669108104
4.212736196943095
4.181963836118102
4.231199613438097
4.249663029933098
4.243508557768089
4.2065817247780855
4.231199613438097
4.231199613438097
4.218890669108104
4.218890669108104
4.212736196943095
4.218890669108104
4.212736196943095
4.2065817247780855
4.218890669108104
4.225045141273086
4.225045141273086
4.237354085603107
4.231199613438097
4.225045141273086
4.212736196943095
4.218890669108104
4.237354085603107
4.225045141273086
4.218890669108104
4.225045141273086
4.225045141273086
4.218890669108104
4.200427252613103
4.1942727804480935
4.1942727804480935
4.200427252613103
4.200427252613103
4.200427252613103
4.2065817247780855
4.200427252613103
4.212736196943095
4.212736196943095
4.212736196943095
4.212736196943095
4.218890669108104
4.225045141273086
4.225045141273086
4.218890669108104
4.218890669108104
4.218890669108104
4.218890669108104
4.225045141273086
4.225045141273086
4.225045141273086
4.218890669108104
4.212736196943095
4.200427252613103
4.200427252613103
4.200427252613103
4.1942727804480935
4.188118308283084
4.1942727804480935
4.2065817247780855
4.1942727804480935
4.1942727804480935
4.1942727804480935
4.1942727804480935
4.188118308283084
4.1942727804480935
4.1942727804480935
4.1942727804480935
4.200427252613103
4.200427252613103
4.225045141273086
4.255817502098108
4.298898807253093
4.341980112408105
4.397370361893111
4.40967930622313
4.3727524732331275
4.3112077515831135
4.255817502098108
4.212736196943095
4.163500419623101
4.1327280587980795
4.1327280587980795
4.138882530963089
4.145037003128072
4.169654891788083
4.188118308283084
4.200427252613103
4.218890669108104
4.212736196943095
4.212736196943095
4.218890669108104
4.218890669108104
4.225045141273086
4.225045141273086
4.231199613438097
4.225045141273086
4.218890669108104
4.218890669108104
4.218890669108104
4.2065817247780855
4.212736196943095
4.225045141273086
4.225045141273086
4.225045141273086
4.218890669108104
4.231199613438097
4.225045141273086
4.225045141273086
4.225045141273086
4.225045141273086
4.231199613438097
4.225045141273086
4.218890669108104
4.218890669108104
4.218890669108104
4.218890669108104
4.231199613438097
4.231199613438097
4.225045141273086
4.231199613438097
4.237354085603107
4.243508557768089
4.237354085603107
4.2065817247780855
4.243508557768089
4.255817502098108
4.249663029933098
4.249663029933098
4.249663029933098
4.231199613438097
4.212736196943095
4.200427252613103
4.225045141273086
4.225045141273086
4.237354085603107
4.243508557768089
4.243508557768089
4.243508557768089
4.218890669108104
4.218890669108104
4.231199613438097
4.237354085603107
4.237354085603107
4.231199613438097
4.231199613438097
4.231199613438097
4.181963836118102
4.2065817247780855
4.237354085603107
4.243508557768089
4.243508557768089
4.237354085603107
4.243508557768089
4.243508557768089
4.1942727804480935
4.1942727804480935
4.212736196943095
4.200427252613103
4.200427252613103
4.212736196943095
4.218890669108104
4.2065817247780855
4.1942727804480935
4.2065817247780855
4.212736196943095
4.218890669108104
4.2065817247780855
4.2065817247780855
4.200427252613103
4.218890669108104
4.218890669108104
4.2065817247780855
4.212736196943095
4.212736196943095
4.2065817247780855
4.212736196943095
4.2065817247780855
4.212736196943095
4.2065817247780855
4.212736196943095
4.212736196943095
4.200427252613103
4.2065817247780855
4.2065817247780855
4.200427252613103
4.1942727804480935
4.2065817247780855
4.2065817247780855
4.188118308283084
4.1942727804480935
4.188118308283084
4.200427252613103
4.200427252613103
4.1942727804480935
4.200427252613103
4.1942727804480935
4.1942727804480935
4.200427252613103
4.1942727804480935
4.2065817247780855
4.1942727804480935
4.1942727804480935
4.200427252613103
4.2065817247780855
4.2065817247780855
4.2065817247780855
4.2065817247780855
4.2065817247780855
4.212736196943095
4.2065817247780855
4.212736196943095
4.218890669108104
4.212736196943095
4.212736196943095
4.212736196943095
4.2065817247780855
4.200427252613103
4.1942727804480935
4.200427252613103
4.1942727804480935
4.2065817247780855
4.200427252613103
4.212736196943095
4.212736196943095
4.212736196943095
4.2065817247780855
4.212736196943095
4.218890669108104
4.212736196943095
4.218890669108104
4.225045141273086
4.225045141273086
4.218890669108104
4.225045141273086
4.225045141273086
4.218890669108104
4.218890669108104
4.218890669108104
4.218890669108104
4.212736196943095
4.2065817247780855
4.200427252613103
4.200427252613103
4.200427252613103
4.181963836118102
4.151191475293081
4.1942727804480935
4.1942727804480935
4.169654891788083
4.157345947458091
4.181963836118102
4.181963836118102
4.181963836118102
4.188118308283084
4.181963836118102
4.1942727804480935
4.1942727804480935
4.237354085603107
4.27428091859311
4.329671168078114
4.37890694539811
4.391215889728128
4.348134584573115
4.27428091859311
4.225045141273086
4.181963836118102
4.12657358663307
4.095801225808079
4.0711833371480655
4.089646753643067
4.108110170138069
4.1327280587980795
4.145037003128072
4.157345947458091
4.169654891788083
4.163500419623101
4.163500419623101
4.169654891788083
4.163500419623101
4.163500419623101
4.157345947458091
4.157345947458091
4.169654891788083
4.1758093639530935
4.181963836118102
4.181963836118102
4.181963836118102
4.181963836118102
4.188118308283084
4.188118308283084
4.188118308283084
4.200427252613103
4.188118308283084
4.1942727804480935
4.200427252613103
4.1942727804480935
4.200427252613103
4.218890669108104
4.218890669108104
4.218890669108104
4.218890669108104
4.225045141273086
4.225045141273086
4.218890669108104
4.212736196943095
4.231199613438097
4.231199613438097
4.218890669108104
4.231199613438097
4.243508557768089
4.231199613438097
4.225045141273086
4.237354085603107
4.231199613438097
4.243508557768089
4.231199613438097
4.231199613438097
4.237354085603107
4.237354085603107
4.231199613438097
4.225045141273086
4.231199613438097
4.225045141273086
4.237354085603107
4.231199613438097
4.225045141273086
4.225045141273086
4.212736196943095
4.218890669108104
4.212736196943095
4.212736196943095
4.2065817247780855
4.2065817247780855
4.2065817247780855
4.1942727804480935
4.188118308283084
4.200427252613103
4.1942727804480935
4.1942727804480935
4.188118308283084
4.1942727804480935
4.188118308283084
4.1758093639530935
4.1758093639530935
4.188118308283084
4.181963836118102
4.188118308283084
4.188118308283084
4.188118308283084
4.1942727804480935
4.188118308283084
4.188118308283084
4.1942727804480935
4.188118308283084
4.188118308283084
4.188118308283084
4.188118308283084
4.181963836118102
4.181963836118102
4.1942727804480935
4.200427252613103
4.1942727804480935
4.1942727804480935
4.1942727804480935
4.1942727804480935
4.181963836118102
4.181963836118102
4.151191475293081
4.1942727804480935
4.200427252613103
4.1942727804480935
4.1942727804480935
4.1942727804480935
4.181963836118102
4.138882530963089
4.151191475293081
4.157345947458091
4.163500419623101
4.169654891788083
4.1758093639530935
4.181963836118102
4.181963836118102
4.188118308283084
4.188118308283084
4.1942727804480935
4.188118308283084
4.188118308283084
4.200427252613103
4.200427252613103
4.188118308283084
4.188118308283084
4.188118308283084
4.200427252613103
4.200427252613103
4.188118308283084
4.188118308283084
4.188118308283084
4.188118308283084
4.181963836118102
4.188118308283084
4.1942727804480935
4.1942727804480935
4.188118308283084
4.1942727804480935
4.200427252613103
4.1942727804480935
4.188118308283084
4.1942727804480935
4.1942727804480935
4.200427252613103
4.200427252613103
4.200427252613103
4.200427252613103
4.200427252613103
4.200427252613103
4.2065817247780855
4.2065817247780855
4.218890669108104
4.218890669108104
4.218890669108104
4.200427252613103
4.2065817247780855
4.200427252613103
4.212736196943095
4.2065817247780855
4.2065817247780855
4.2065817247780855
4.1942727804480935
4.1942727804480935
4.181963836118102
4.181963836118102
4.181963836118102
4.181963836118102
4.188118308283084
4.1942727804480935
4.181963836118102
4.181963836118102
4.181963836118102
4.1758093639530935
4.181963836118102
4.188118308283084
4.1942727804480935
4.2065817247780855
4.225045141273086
4.255817502098108
4.305053279418103
4.3727524732331275
4.40967930622313
4.421988250553122
4.366598001068117
4.280435390758093
4.225045141273086
4.1758093639530935
4.108110170138069
4.089646753643067
4.083492281478085
4.083492281478085
4.120419114468088
4.145037003128072
4.145037003128072
4.1327280587980795
4.145037003128072
4.188118308283084
4.188118308283084
4.181963836118102
4.181963836118102
4.188118308283084
4.188118308283084
4.163500419623101
4.157345947458091
4.169654891788083
4.1758093639530935
4.181963836118102
4.1758093639530935
4.1758093639530935
4.169654891788083
4.169654891788083
4.1758093639530935
4.188118308283084
4.181963836118102
4.188118308283084
4.1942727804480935
4.1942727804480935
4.200427252613103
4.200427252613103
4.2065817247780855
4.2065817247780855
4.200427252613103
4.188118308283084
4.151191475293081
4.212736196943095
4.2065817247780855
4.181963836118102
4.200427252613103
4.200427252613103
4.2065817247780855
4.212736196943095
4.212736196943095
4.212736196943095
4.200427252613103
4.2065817247780855
4.212736196943095
4.231199613438097
4.225045141273086
4.218890669108104
4.212736196943095
4.212736196943095
4.218890669108104
4.218890669108104
4.218890669108104
4.212736196943095
4.200427252613103
4.200427252613103
4.1942727804480935
4.2065817247780855
4.200427252613103
4.2065817247780855
4.200427252613103
4.2065817247780855
4.2065817247780855
4.200427252613103
4.2065817247780855
4.2065817247780855
4.1942727804480935
4.2065817247780855
4.212736196943095
4.2065817247780855
4.200427252613103
4.2065817247780855
4.200427252613103
4.200427252613103
4.200427252613103
4.200427252613103
4.1942727804480935
4.1942727804480935
4.188118308283084
4.1942727804480935
4.188118308283084
4.1758093639530935
4.151191475293081
4.163500419623101
4.181963836118102
4.200427252613103
4.218890669108104
4.212736196943095
4.2065817247780855
4.200427252613103
4.1942727804480935
4.200427252613103
4.200427252613103
4.188118308283084
4.188118308283084
4.188118308283084
4.200427252613103
4.1942727804480935
4.188118308283084
4.2065817247780855
4.218890669108104
4.212736196943095
4.212736196943095
4.2065817247780855
4.2065817247780855
4.200427252613103
4.200427252613103
4.200427252613103
4.2065817247780855
4.218890669108104
4.2065817247780855
4.2065817247780855
4.218890669108104
4.218890669108104
4.2065817247780855
4.200427252613103
4.188118308283084
4.181963836118102
4.200427252613103
4.200427252613103
4.212736196943095
4.218890669108104
4.218890669108104
4.1942727804480935
4.200427252613103
4.200427252613103
4.188118308283084
4.1942727804480935
4.200427252613103
4.2065817247780855
4.2065817247780855
4.200427252613103
4.200427252613103
4.1942727804480935
4.1942727804480935
4.200427252613103
4.1942727804480935
4.181963836118102
4.181963836118102
4.181963836118102
4.181963836118102
4.181963836118102
4.188118308283084
4.200427252613103
4.1942727804480935
4.200427252613103
4.2065817247780855
4.2065817247780855
4.2065817247780855
4.2065817247780855
4.200427252613103
4.1942727804480935
4.181963836118102
4.181963836118102
4.169654891788083
4.218890669108104
4.225045141273086
4.225045141273086
4.218890669108104
4.225045141273086
4.200427252613103
4.1758093639530935
4.188118308283084
4.188118308283084
4.1942727804480935
4.1942727804480935
4.200427252613103
4.188118308283084
4.169654891788083
4.1758093639530935
4.200427252613103
4.200427252613103
4.1942727804480935
4.181963836118102
4.188118308283084
4.1942727804480935
4.1942727804480935
4.218890669108104
4.225045141273086
4.225045141273086
4.237354085603107
4.280435390758093
4.323516695913104
4.385061417563119
4.40967930622313
4.415833778388112
4.360443528903107
4.298898807253093
4.249663029933098
4.1942727804480935
4.12657358663307
4.089646753643067
4.077337809313075
4.114264642303079
4.151191475293081
4.157345947458091
4.169654891788083
4.188118308283084
4.212736196943095
4.200427252613103
4.188118308283084
4.1942727804480935
4.1942727804480935
4.1942727804480935
4.2065817247780855
4.2065817247780855
4.200427252613103
4.200427252613103
4.200427252613103
4.2065817247780855
4.2065817247780855
4.200427252613103
4.200427252613103
4.200427252613103
4.200427252613103
4.188118308283084
4.200427252613103
4.188118308283084
4.188118308283084
4.181963836118102
4.1942727804480935
4.2065817247780855
4.2065817247780855
4.2065817247780855
4.2065817247780855
4.218890669108104
4.2065817247780855
4.212736196943095
4.218890669108104
4.218890669108104
4.212736196943095
4.2065817247780855
4.218890669108104
4.218890669108104
4.218890669108104
4.231199613438097
4.231199613438097
4.225045141273086
4.225045141273086
4.218890669108104
4.218890669108104
4.212736196943095
4.218890669108104
4.225045141273086
4.225045141273086
