-0.04615854123751762
-0.2554105948475438
-0.16309351237253633
-0.11385773505251384
-0.1200122072175236
-0.13232115154751534
-0.058467485567509365
-0.13232115154751534
-0.14463009587750708
-0.15693904020752658
-0.15693904020752658
-0.15078456804251686
-0.1384756237125251
-0.13232115154751534
-0.1384756237125251
-0.1261666793825056
-0.02769512474251612
-0.26156506701252585
-0.10770326288750408
-0.1261666793825056
-0.08308537422752059
-0.02769512474251612
0.06462195773251911
-0.009231708247514623
-0.033849596907498114
-0.14463009587750708
-0.1015487907225221
-0.10770326288750408
-0.1200122072175236
-0.1261666793825056
-0.1692479845375183
-0.15693904020752658
-0.14463009587750708
-0.26771953917753555
-0.2184837618575408
-0.17540245670252808
-0.15693904020752658
-0.31695531649755804
-0.24925612268253405
-0.18155692886753785
-0.1692479845375183
-0.17540245670252808
0.2984919000025288
-0.3415732051575415
-0.28618295567253704
-0.1692479845375183
-0.1261666793825056
-0.0707764298975011
0.04000406907250786
-0.18155692886753785
-0.0707764298975011
0.058467485567509365
0.003077236082504875
-0.1692479845375183
-0.14463009587750708
-0.1015487907225221
-0.01538618041249662
-0.2431016505175243
-0.1200122072175236
-0.1384756237125251
-0.1384756237125251
-0.13232115154751534
-0.10770326288750408
-0.058467485567509365
0.02154065257750637
-0.15693904020752658
-0.02154065257750637
-0.07693090206251085
-0.15078456804251686
-0.10770326288750408
-0.0707764298975011
-0.08923984639250258
-0.05231301340249961
-0.18155692886753785
-0.10770326288750408
-0.1384756237125251
-0.15078456804251686
-0.13232115154751534
-0.11385773505251384
-0.1015487907225221
-0.08923984639250258
-0.15693904020752658
-0.18155692886753785
-0.1384756237125251
-0.1200122072175236
-0.1384756237125251
-0.11385773505251384
-0.08308537422752059
-0.05231301340249961
-0.18771140103251985
-0.1015487907225221
-0.08308537422752059
-0.04000406907250786
-0.11385773505251384
-0.15078456804251686
-0.08308537422752059
0.04000406907250786
-0.15693904020752658
-0.2000203453625393
0.3292642608275498
1.0185651433076426
0.14463009587750708
0.13232115154751534
-0.058467485567509365
-1.2093537804226673
-1.1231911701126696
-0.4154268711375475
-0.26156506701252585
-0.17540245670252808
-0.16309351237253633
-0.11385773505251384
-0.06462195773251911
-0.08308537422752059
-0.21232928969253104
-0.17540245670252808
-0.1692479845375183
-0.1261666793825056
-0.10770326288750408
-0.08923984639250258
-0.058467485567509365
-0.04000406907250786
-0.09539431855751236
-0.0707764298975011
-0.07693090206251085
-0.08923984639250258
-0.09539431855751236
-0.15693904020752658
-0.23694717835254234
-0.21232928969253104
-0.2800284835075273
-0.2184837618575408
-0.1938658731975296
-0.15693904020752658
-0.14463009587750708
-0.14463009587750708
-0.1261666793825056
-0.13232115154751534
-0.15693904020752658
-0.10770326288750408
-0.1261666793825056
-0.10770326288750408
-0.09539431855751236
-0.18155692886753785
-0.15693904020752658
-0.18771140103251985
-0.18771140103251985
-0.13232115154751534
-0.13232115154751534
-0.13232115154751534
-0.1384756237125251
-0.15693904020752658
-0.10770326288750408
-0.1261666793825056
-0.18155692886753785
-0.17540245670252808
-0.15693904020752658
-0.1200122072175236
-0.14463009587750708
-0.23079270618753256
-0.17540245670252808
-0.2061748175275213
-0.28618295567253704
-0.2800284835075273
-0.1384756237125251
0.23694717835254234
-0.396963454642546
-0.30464637216753854
-0.15693904020752658
-0.23694717835254234
-0.23694717835254234
-0.13232115154751534
-0.08923984639250258
-0.1938658731975296
-0.23079270618753256
-0.1692479845375183
-0.1015487907225221
-0.18771140103251985
-0.26771953917753555
-0.16309351237253633
-0.1384756237125251
-0.13232115154751534
-0.1692479845375183
-0.1938658731975296
-0.1015487907225221
-0.1692479845375183
-0.11385773505251384
-0.05231301340249961
-0.1015487907225221
-0.15693904020752658
-0.15078456804251686
-0.14463009587750708
-0.1200122072175236
-0.2184837618575408
-0.2246382340225228
-0.21232928969253104
-0.2246382340225228
-0.2554105948475438
-0.26156506701252585
-0.24925612268253405
-0.2738740113425453
-0.26771953917753555
-0.10770326288750408
0.09539431855751236
-0.14463009587750708
-0.1938658731975296
-0.2061748175275213
-0.14463009587750708
-0.1015487907225221
-0.1384756237125251
-0.11385773505251384
-0.1200122072175236
-0.1015487907225221
-0.1384756237125251
-0.14463009587750708
-0.1261666793825056
-0.1015487907225221
-0.2246382340225228
-0.08308537422752059
-0.1261666793825056
-0.18155692886753785
-0.18771140103251985
0.3354187329925596
1.0616464484626553
-0.1692479845375183
-1.178581419597674
-0.5569797309325776
-0.2738740113425453
-0.2000203453625393
-0.1938658731975296
-0.15693904020752658
-0.14463009587750708
0.9754838381526297
0.4892805371175811
0.2984919000025288
0.2984919000025288
-0.28618295567253704
-0.2184837618575408
-0.15078456804251686
-0.09539431855751236
-0.538516314437576
-1.5416952773327222
-0.6123699804175821
-0.30464637216753854
-0.1938658731975296
-0.1200122072175236
-0.06462195773251911
-0.10770326288750408
-0.2431016505175243
-0.13232115154751534
-0.06462195773251911
-0.08308537422752059
-0.0707764298975011
-0.058467485567509365
-0.11385773505251384
-0.13232115154751534
-0.04000406907250786
-0.2554105948475438
-0.1938658731975296
-0.14463009587750708
-0.18771140103251985
-0.17540245670252808
-0.1261666793825056
-0.1200122072175236
-0.10770326288750408
-0.26771953917753555
-0.2246382340225228
-0.1938658731975296
-0.18155692886753785
-0.15693904020752658
-0.13232115154751534
-0.09539431855751236
-0.02154065257750637
-0.18771140103251985
-0.17540245670252808
-0.16309351237253633
-0.15078456804251686
-0.1692479845375183
-0.21232928969253104
-0.1692479845375183
-0.003077236082504875
-0.1692479845375183
-0.13232115154751534
-0.07693090206251085
-0.0707764298975011
-0.11385773505251384
-0.09539431855751236
-0.1015487907225221
-0.1015487907225221
-0.21232928969253104
-0.2061748175275213
-0.17540245670252808
-0.15078456804251686
-0.1200122072175236
-0.18155692886753785
-0.2184837618575408
0.02154065257750637
0.2984919000025288
-0.3354187329925596
-0.26156506701252585
-0.15693904020752658
-0.1261666793825056
-0.1200122072175236
-0.06462195773251911
-0.06462195773251911
-0.26771953917753555
-0.15078456804251686
-0.18771140103251985
-0.14463009587750708
-0.1200122072175236
-0.1015487907225221
-0.10770326288750408
0.02769512474251612
-0.16309351237253633
-0.15078456804251686
-0.1384756237125251
-0.1200122072175236
-0.13232115154751534
-0.14463009587750708
-0.1384756237125251
-0.058467485567509365
-0.28618295567253704
-0.2431016505175243
-0.46466264845757
-0.28618295567253704
-0.18771140103251985
-0.17540245670252808
-0.15693904020752658
-0.0707764298975011
-0.18155692886753785
-0.13232115154751534
-0.11385773505251384
-0.14463009587750708
-0.1384756237125251
-0.1015487907225221
-0.10770326288750408
-0.058467485567509365
-0.05231301340249961
-0.0707764298975011
-0.1015487907225221
-0.1261666793825056
-0.1261666793825056
-0.1200122072175236
-0.08923984639250258
0.4523537041275505
1.104727753617668
0.2246382340225228
0.2246382340225228
0.0707764298975011
0.02769512474251612
-0.02154065257750637
-0.05231301340249961
-1.0308740876376343
-1.5724676381577152
-0.6246789247476013
-0.37850003814754446
-0.32310978866254003
-0.28618295567253704
-0.26156506701252585
-0.23694717835254234
-0.2061748175275213
-0.3354187329925596
-0.23079270618753256
-0.1938658731975296
-0.21232928969253104
-0.2061748175275213
-0.14463009587750708
0.1384756237125251
0.08308537422752059
-0.21232928969253104
-0.08923984639250258
-0.08308537422752059
-0.05231301340249961
-0.0707764298975011
-0.0707764298975011
-0.033849596907498114
-0.07693090206251085
-0.1692479845375183
-0.1015487907225221
-0.09539431855751236
-0.0707764298975011
-0.08923984639250258
-0.058467485567509365
-0.1384756237125251
-0.08308537422752059
-0.2061748175275213
-0.1261666793825056
-0.1015487907225221
-0.07693090206251085
-0.09539431855751236
-0.11385773505251384
-0.08923984639250258
-0.09539431855751236
-0.1692479845375183
-0.15693904020752658
-0.15078456804251686
-0.1200122072175236
0.058467485567509365
-0.2184837618575408
-0.17540245670252808
-0.14463009587750708
-0.26771953917753555
-0.15693904020752658
-0.17540245670252808
-0.1261666793825056
-0.1200122072175236
-0.14463009587750708
-0.16309351237253633
0.02154065257750637
0.3415732051575415
-0.2738740113425453
-0.2184837618575408
-0.1200122072175236
-0.1384756237125251
-0.09539431855751236
-0.033849596907498114
-0.02154065257750637
-0.13232115154751534
-0.058467485567509365
-0.058467485567509365
-0.06462195773251911
-0.1015487907225221
-0.2246382340225228
-0.14463009587750708
-0.14463009587750708
-0.2000203453625393
-0.16309351237253633
-0.1200122072175236
-0.16309351237253633
-0.13232115154751534
-0.1384756237125251
-0.1015487907225221
-0.1261666793825056
-0.18155692886753785
-0.13232115154751534
-0.1261666793825056
-0.15078456804251686
-0.14463009587750708
-0.1015487907225221
-0.09539431855751236
-0.11385773505251384
-0.09539431855751236
-0.02769512474251612
-0.1261666793825056
-0.11385773505251384
-0.0707764298975011
-0.07693090206251085
-0.06462195773251911
-0.1261666793825056
-0.1384756237125251
-0.14463009587750708
-0.15693904020752658
-0.18155692886753785
-0.18155692886753785
-0.2000203453625393
-0.1200122072175236
-0.1200122072175236
0.17540245670252808
0.40927239897256545
0.009231708247514623
-0.08923984639250258
-0.15693904020752658
-0.13232115154751534
-0.10770326288750408
-0.1200122072175236
-0.15693904020752658
0.35388214948756097
1.0678009206276373
0.23079270618753256
0.16309351237253633
0.05231301340249961
-0.21232928969253104
-1.5847765824877347
-1.2770529742376913
-0.4400447597975588
-0.23079270618753256
-0.21232928969253104
-0.18771140103251985
-0.1692479845375183
-0.08923984639250258
-0.17540245670252808
-0.2431016505175243
-0.18771140103251985
-0.1692479845375183
-0.1938658731975296
-0.16309351237253633
-0.1692479845375183
-0.23079270618753256
-0.4154268711375475
-0.2554105948475438
-0.2184837618575408
-0.1938658731975296
-0.15693904020752658
-0.2061748175275213
-0.2184837618575408
-0.17540245670252808
-0.2061748175275213
-0.21232928969253104
-0.2000203453625393
-0.1692479845375183
-0.14463009587750708
-0.10770326288750408
0.23694717835254234
0.2000203453625393
-0.0707764298975011
-0.0707764298975011
-0.08308537422752059
-0.058467485567509365
-0.08308537422752059
-0.07693090206251085
-0.08308537422752059
-0.1261666793825056
-0.1384756237125251
-0.11385773505251384
-0.15693904020752658
-0.1938658731975296
-0.1938658731975296
-0.26771953917753555
-0.42158134330255725
-0.31695531649755804
-0.3354187329925596
-0.2738740113425453
-0.2431016505175243
-0.2554105948475438
-0.2738740113425453
-0.2738740113425453
-0.2554105948475438
-0.23079270618753256
-0.26771953917753555
-0.23694717835254234
-0.08923984639250258
0.29233742783754685
-0.1015487907225221
-0.009231708247514623
-0.2061748175275213
0.47697159278756174
-0.3723455659825625
-0.5077439536125827
-0.2000203453625393
-0.2000203453625393
-0.18155692886753785
-0.2184837618575408
-0.1938658731975296
-0.14463009587750708
-0.2061748175275213
-0.16309351237253633
-0.15078456804251686
-0.30464637216753854
-0.4523537041275505
-0.2184837618575408
-0.16309351237253633
0.4523537041275505
1.2278171969176688
-0.08308537422752059
0.07693090206251085
0.01538618041249662
-0.07693090206251085
-0.16309351237253633
-0.15078456804251686
-0.5569797309325776
-1.5478497494977315
-0.6554512855725947
-0.30464637216753854
-0.23694717835254234
-0.2061748175275213
-0.1692479845375183
-0.1692479845375183
-0.05231301340249961
-0.23079270618753256
-0.2000203453625393
-0.15693904020752658
-0.14463009587750708
-0.14463009587750708
-0.17540245670252808
-0.13232115154751534
-0.09539431855751236
-0.2246382340225228
-0.09539431855751236
-0.15078456804251686
-0.16309351237253633
-0.14463009587750708
-0.14463009587750708
-0.16309351237253633
-0.13232115154751534
-0.2246382340225228
-0.18771140103251985
-0.2246382340225228
-0.21232928969253104
0.30464637216753854
0.9570204216576284
0.1384756237125251
-0.5015894814475731
-1.3878334732077002
-0.8093130896976164
-0.360036621652543
-0.2554105948475438
-0.2184837618575408
-0.2184837618575408
-0.2246382340225228
-0.18155692886753785
-0.23694717835254234
-0.1938658731975296
-0.16309351237253633
-0.15693904020752658
-0.13232115154751534
-0.09539431855751236
-0.10770326288750408
0.23694717835254234
-0.003077236082504875
-0.15078456804251686
-0.16309351237253633
-0.2000203453625393
-0.26156506701252585
-0.23694717835254234
-0.2431016505175243
-0.15078456804251686
-0.29233742783754685
-0.23694717835254234
-0.2000203453625393
-0.1938658731975296
-0.18771140103251985
-0.14463009587750708
-0.2738740113425453
-0.26771953917753555
-0.29233742783754685
-0.2000203453625393
-0.1938658731975296
-0.1692479845375183
-0.17540245670252808
-0.18771140103251985
-0.10770326288750408
-0.02769512474251612
-0.30464637216753854
-0.2061748175275213
-0.15078456804251686
-0.1384756237125251
-0.15693904020752658
-0.07693090206251085
-0.2738740113425453
-0.15078456804251686
-0.34772767732255133
-0.2431016505175243
-0.2246382340225228
-0.23694717835254234
-0.26771953917753555
-0.2431016505175243
-0.2246382340225228
-0.2061748175275213
-0.3415732051575415
-0.2554105948475438
-0.2431016505175243
-0.26771953917753555
-0.1384756237125251
0.15078456804251686
-0.42158134330255725
-0.28618295567253704
-0.3723455659825625
-0.2800284835075273
-0.2431016505175243
-0.2061748175275213
-0.16309351237253633
-0.18155692886753785
-0.15078456804251686
-0.1015487907225221
-0.24925612268253405
-0.18771140103251985
-0.15693904020752658
-0.04000406907250786
-0.13232115154751534
-0.2000203453625393
-0.1261666793825056
-0.13232115154751534
-0.26156506701252585
-0.16309351237253633
-0.1384756237125251
-0.1384756237125251
-0.15078456804251686
-0.1938658731975296
-0.18771140103251985
-0.360036621652543
-0.23079270618753256
-0.1938658731975296
-0.21232928969253104
-0.2246382340225228
-0.24925612268253405
-0.23694717835254234
-0.23079270618753256
-0.2000203453625393
-0.2431016505175243
-0.2000203453625393
-0.18155692886753785
-0.16309351237253633
-0.14463009587750708
-0.13232115154751534
-0.10770326288750408
-0.04000406907250786
-0.18155692886753785
-0.07693090206251085
-0.23079270618753256
-0.14463009587750708
-0.1015487907225221
-0.1261666793825056
-0.1200122072175236
-0.13232115154751534
-0.24925612268253405
-0.17540245670252808
-0.18771140103251985
-0.18155692886753785
-0.16309351237253633
-0.15078456804251686
0.2800284835075273
0.9754838381526297
0.3354187329925596
0.1200122072175236
-0.033849596907498114
-0.09539431855751236
-0.1261666793825056
-0.15693904020752658
-0.23694717835254234
-1.3447521680526875
-1.0924188092876486
-0.44619923196256844
-0.2984919000025288
-0.2184837618575408
-0.1938658731975296
-0.1261666793825056
-0.09539431855751236
-0.058467485567509365
-0.2738740113425453
-0.15078456804251686
-0.15693904020752658
-0.16309351237253633
-0.1200122072175236
-0.09539431855751236
-0.033849596907498114
-0.09539431855751236
-0.2184837618575408
-0.14463009587750708
-0.1692479845375183
-0.1384756237125251
-0.1692479845375183
-0.15693904020752658
-0.07693090206251085
-0.1938658731975296
-0.24925612268253405
-0.1938658731975296
-0.21232928969253104
-0.2061748175275213
-0.23079270618753256
-0.2000203453625393
-0.16309351237253633
-0.2061748175275213
-0.2431016505175243
-0.18155692886753785
-0.16309351237253633
-0.14463009587750708
-0.1692479845375183
-0.1692479845375183
-0.1692479845375183
-0.1938658731975296
-0.2554105948475438
-0.16309351237253633
-0.10770326288750408
-0.08923984639250258
-0.1384756237125251
-0.1200122072175236
-0.033849596907498114
-0.08308537422752059
-0.11385773505251384
-0.06462195773251911
-0.04000406907250786
-0.04000406907250786
-0.16309351237253633
-0.28618295567253704
-0.07693090206251085
0.2800284835075273
-0.4154268711375475
-0.3415732051575415
-0.23079270618753256
-0.16309351237253633
-0.1261666793825056
-0.1200122072175236
-0.033849596907498114
-0.1261666793825056
-0.2246382340225228
-0.16309351237253633
-0.14463009587750708
-0.1015487907225221
-0.2184837618575408
-0.18771140103251985
-0.1200122072175236
-0.1938658731975296
-0.18155692886753785
-0.2000203453625393
-0.18771140103251985
-0.15693904020752658
-0.1938658731975296
-0.16309351237253633
-0.13232115154751534
-0.28618295567253704
-0.29233742783754685
-0.2184837618575408
-0.15078456804251686
-0.2984919000025288
-0.2431016505175243
-0.23079270618753256
-0.2431016505175243
-0.2738740113425453
-0.2184837618575408
-0.2000203453625393
-0.1692479845375183
-0.16309351237253633
-0.1692479845375183
-0.15078456804251686
-0.17540245670252808
-0.1384756237125251
-0.1200122072175236
-0.15078456804251686
-0.18771140103251985
-0.15078456804251686
-0.15078456804251686
-0.13232115154751534
-0.1015487907225221
-0.10770326288750408
-0.05231301340249961
-0.0707764298975011
-0.033849596907498114
-0.08308537422752059
-0.09539431855751236
-0.05231301340249961
-0.09539431855751236
-0.13232115154751534
0.575443147427579
1.3816790010426905
-0.1384756237125251
0.033849596907498114
-0.058467485567509365
-0.1200122072175236
-0.4831260649525715
-1.5847765824877347
-0.7354594237176103
-0.34772767732255133
-0.24925612268253405
-0.2061748175275213
-0.21232928969253104
-0.18155692886753785
-0.1015487907225221
-0.23079270618753256
-0.3354187329925596
-0.18771140103251985
-0.1692479845375183
-0.1384756237125251
-0.14463009587750708
-0.14463009587750708
-0.01538618041249662
-0.16309351237253633
-0.15078456804251686
-0.08308537422752059
-0.1015487907225221
-0.11385773505251384
-0.11385773505251384
-0.08923984639250258
-0.08308537422752059
-0.396963454642546
-0.21232928969253104
-0.1692479845375183
-0.15078456804251686
-0.15693904020752658
-0.18155692886753785
-0.16309351237253633
0.4831260649525715
0.895475700007614
0.3292642608275498
0.01538618041249662
-0.34772767732255133
-0.23079270618753256
-0.16309351237253633
0.04000406907250786
-0.6246789247476013
-1.4924595000126994
-0.5446707866025856
-0.31695531649755804
-0.21232928969253104
-0.1384756237125251
-0.1384756237125251
-0.1200122072175236
-0.04615854123751762
-0.1384756237125251
-0.09539431855751236
-0.07693090206251085
-0.058467485567509365
-0.009231708247514623
0.05231301340249961
-0.1261666793825056
0.02769512474251612
-0.1692479845375183
-0.10770326288750408
-0.1015487907225221
-0.09539431855751236
-0.10770326288750408
-0.09539431855751236
-0.1015487907225221
0.009231708247514623
-0.2000203453625393
-0.13232115154751534
-0.10770326288750408
-0.1015487907225221
-0.08308537422752059
-0.21232928969253104
-0.1692479845375183
-0.04000406907250786
-0.21232928969253104
-0.1200122072175236
-0.05231301340249961
-0.02769512474251612
-0.058467485567509365
-0.07693090206251085
-0.07693090206251085
-0.08308537422752059
-0.1938658731975296
-0.15078456804251686
-0.1015487907225221
-0.02154065257750637
-0.09539431855751236
-0.08923984639250258
-0.04615854123751762
0.033849596907498114
-0.09539431855751236
-0.1015487907225221
-0.08923984639250258
-0.1200122072175236
-0.1200122072175236
-0.17540245670252808
-0.2554105948475438
0.0707764298975011
0.2061748175275213
-0.5015894814475731
-0.42158134330255725
-0.23694717835254234
-0.18771140103251985
-0.1384756237125251
-0.09539431855751236
-0.04000406907250786
-0.14463009587750708
-0.10770326288750408
-0.1015487907225221
-0.09539431855751236
-0.11385773505251384
-0.1015487907225221
-0.11385773505251384
-0.08308537422752059
-0.21232928969253104
-0.05231301340249961
-0.2184837618575408
0.46466264845757
1.473996083517698
-0.16309351237253633
0.08923984639250258
-0.9570204216576284
-1.2401261412476885
-0.47697159278756174
-0.3415732051575415
-0.2738740113425453
-0.2554105948475438
-0.23694717835254234
-0.23694717835254234
-0.2061748175275213
-0.360036621652543
-0.31695531649755804
-0.2184837618575408
-0.18771140103251985
-0.15693904020752658
-0.16309351237253633
-0.1261666793825056
-0.1015487907225221
-0.21232928969253104
-0.11385773505251384
-0.13232115154751534
-0.13232115154751534
-0.13232115154751534
-0.10770326288750408
-0.02769512474251612
0.30464637216753854
0.07693090206251085
-0.033849596907498114
-0.0707764298975011
-0.05231301340249961
-0.04000406907250786
-0.05231301340249961
-0.05231301340249961
-0.04615854123751762
-0.2061748175275213
-0.13232115154751534
-0.1384756237125251
-0.16309351237253633
-0.1384756237125251
-0.1938658731975296
-0.49543500928256323
-0.32310978866254003
-0.35388214948756097
-0.26156506701252585
-0.24925612268253405
-0.29233742783754685
-0.28618295567253704
-0.2800284835075273
-0.2554105948475438
-0.24925612268253405
-0.3723455659825625
-0.24925612268253405
-0.24925612268253405
-0.24925612268253405
-0.21232928969253104
-0.10770326288750408
-0.1938658731975296
-0.18155692886753785
-0.23079270618753256
-0.17540245670252808
-0.2246382340225228
-0.06462195773251911
0.26771953917753555
-0.390808982477564
-0.29233742783754685
-0.2431016505175243
-0.26156506701252585
-0.18771140103251985
-0.15078456804251686
-0.18155692886753785
-0.14463009587750708
-0.18771140103251985
-0.14463009587750708
-0.15078456804251686
-0.23694717835254234
-0.15078456804251686
-0.1692479845375183
-0.18155692886753785
-0.1692479845375183
-0.18155692886753785
-0.15693904020752658
-0.14463009587750708
-0.23079270618753256
-0.15693904020752658
-0.16309351237253633
-0.17540245670252808
-0.26156506701252585
-0.23079270618753256
-0.15078456804251686
-0.16309351237253633
-0.2738740113425453
-0.1938658731975296
-0.15693904020752658
-0.1015487907225221
-0.13232115154751534
-0.16309351237253633
-0.09539431855751236
-0.18155692886753785
-0.2061748175275213
-0.1384756237125251
-0.18771140103251985
-0.3108008443325483
-0.2061748175275213
-0.2061748175275213
-0.16309351237253633
-0.2000203453625393
-0.23079270618753256
-0.18155692886753785
-0.1938658731975296
-0.2000203453625393
-0.1938658731975296
-0.2000203453625393
-0.16309351237253633
-0.2061748175275213
-0.23079270618753256
-0.16309351237253633
-0.2431016505175243
-0.24925612268253405
-0.18155692886753785
0.32310978866254003
0.8154675618626261
-1.2955163907326928
-0.6246789247476013
-0.30464637216753854
-0.2800284835075273
-0.26156506701252585
-0.2184837618575408
-0.18771140103251985
-0.16309351237253633
-0.2184837618575408
-0.10770326288750408
-0.23079270618753256
-0.15693904020752658
-0.2184837618575408
-0.18771140103251985
-0.23694717835254234
-0.21232928969253104
-0.2800284835075273
-0.2800284835075273
-0.30464637216753854
-0.29233742783754685
-0.29233742783754685
-0.26771953917753555
-0.2184837618575408
-0.1015487907225221
-0.2061748175275213
-0.28618295567253704
-0.15078456804251686
-0.15078456804251686
-0.1384756237125251
-0.17540245670252808
-0.1692479845375183
-0.18771140103251985
-0.2061748175275213
-0.16309351237253633
-0.18155692886753785
-0.2000203453625393
-0.17540245670252808
-0.15693904020752658
-0.13232115154751534
-0.15078456804251686
-0.35388214948756097
-0.2184837618575408
-0.26156506701252585
-0.2800284835075273
-0.28618295567253704
-0.3108008443325483
-0.3354187329925596
-0.3415732051575415
-0.37850003814754446
-0.3415732051575415
-0.32310978866254003
-0.3108008443325483
-0.28618295567253704
-0.2554105948475438
-0.26156506701252585
0.4400447597975588
-0.44619923196256844
-0.7169960072226089
-0.31695531649755804
-0.23079270618753256
-0.21232928969253104
-0.24925612268253405
-0.10770326288750408
0.3415732051575415
-0.45850817629256013
-0.31695531649755804
-0.23079270618753256
-0.2000203453625393
-0.13232115154751534
-0.09539431855751236
-0.21232928969253104
-0.058467485567509365
-0.24925612268253405
-0.1938658731975296
-0.15693904020752658
-0.14463009587750708
-0.13232115154751534
-0.1200122072175236
-0.1384756237125251
-0.033849596907498114
-0.23079270618753256
-0.23079270618753256
-0.1938658731975296
-0.2431016505175243
-0.2738740113425453
-0.2738740113425453
-0.26156506701252585
-0.2184837618575408
-0.32310978866254003
-0.2554105948475438
-0.23694717835254234
-0.2431016505175243
-0.23694717835254234
-0.2061748175275213
-0.2000203453625393
-0.1261666793825056
-0.2738740113425453
-0.14463009587750708
-0.1261666793825056
-0.23079270618753256
-0.2184837618575408
-0.15693904020752658
-0.1692479845375183
-0.13232115154751534
-0.28618295567253704
-0.2184837618575408
-0.2431016505175243
-0.2431016505175243
-0.23079270618753256
-0.21232928969253104
-0.18155692886753785
0.6369878690775933
1.0431830319676536
-0.009231708247514623
0.13232115154751534
-0.02769512474251612
-0.10770326288750408
-0.033849596907498114
-0.10770326288750408
-0.7908496732026148
-0.9324025329976448
0.6492968134075848
-0.009231708247514623
0.07693090206251085
-0.033849596907498114
-0.08923984639250258
-0.11385773505251384
-0.7662317845426038
-1.4186058340326935
-0.538516314437576
-0.3292642608275498
-0.23079270618753256
-0.2000203453625393
-0.2000203453625393
-0.1384756237125251
-0.05231301340249961
-0.2554105948475438
-0.1692479845375183
-0.11385773505251384
-0.09539431855751236
-0.07693090206251085
-0.09539431855751236
-0.07693090206251085
-0.003077236082504875
-0.18771140103251985
-0.21232928969253104
-0.11385773505251384
-0.1015487907225221
-0.1384756237125251
-0.15078456804251686
-0.18771140103251985
-0.15693904020752658
-0.2800284835075273
-0.2554105948475438
-0.26771953917753555
-0.2554105948475438
-0.26771953917753555
-0.23079270618753256
-0.2246382340225228
-0.11385773505251384
-0.3354187329925596
-0.2554105948475438
-0.2554105948475438
-0.23079270618753256
-0.2184837618575408
-0.2184837618575408
-0.2431016505175243
-0.13232115154751534
-0.28618295567253704
-0.16309351237253633
-0.17540245670252808
-0.16309351237253633
-0.1384756237125251
-0.09539431855751236
0.003077236082504875
-0.1015487907225221
-0.23079270618753256
-0.17540245670252808
-0.1938658731975296
-0.23079270618753256
-0.24925612268253405
-0.24925612268253405
-0.2246382340225228
-0.2061748175275213
-0.2000203453625393
0.31695531649755804
-0.360036621652543
-0.31695531649755804
-0.1938658731975296
-0.2000203453625393
-0.15693904020752658
-0.15078456804251686
-0.24925612268253405
-0.1261666793825056
-0.1384756237125251
-0.15078456804251686
-0.1384756237125251
-0.15078456804251686
-0.1200122072175236
-0.09539431855751236
-0.2431016505175243
-0.1384756237125251
-0.1200122072175236
-0.17540245670252808
-0.29233742783754685
-0.2246382340225228
-0.17540245670252808
-0.18155692886753785
-0.35388214948756097
-0.23079270618753256
-0.2431016505175243
-0.24925612268253405
-0.24925612268253405
-0.23079270618753256
-0.18771140103251985
-0.15693904020752658
-0.26771953917753555
-0.17540245670252808
-0.1261666793825056
-0.09539431855751236
-0.2246382340225228
-0.2061748175275213
-0.16309351237253633
-0.1261666793825056
-0.2431016505175243
-0.1692479845375183
-0.15078456804251686
-0.18155692886753785
-0.18771140103251985
-0.18771140103251985
-0.14463009587750708
-0.17540245670252808
-0.1692479845375183
-0.1015487907225221
-0.24925612268253405
-0.2246382340225228
-0.14463009587750708
-0.16309351237253633
-0.1261666793825056
-0.1384756237125251
-0.23079270618753256
-0.18771140103251985
0.28618295567253704
0.9939472546476313
0.10770326288750408
0.06462195773251911
-0.21232928969253104
-1.39398794537271
-1.0431830319676536
-0.396963454642546
-0.37850003814754446
-0.32310978866254003
-0.2800284835075273
-0.2431016505175243
-0.2061748175275213
-0.23079270618753256
-0.23694717835254234
-0.14463009587750708
-0.16309351237253633
-0.13232115154751534
-0.11385773505251384
-0.10770326288750408
-0.05231301340249961
-0.058467485567509365
-0.3108008443325483
-0.28618295567253704
-0.1938658731975296
-0.1692479845375183
-0.15693904020752658
-0.16309351237253633
-0.0707764298975011
-0.1384756237125251
-0.23079270618753256
-0.15693904020752658
-0.15693904020752658
-0.16309351237253633
-0.15693904020752658
-0.16309351237253633
-0.08923984639250258
-0.0707764298975011
-0.15078456804251686
-0.1200122072175236
-0.18771140103251985
-0.16309351237253633
-0.1384756237125251
-0.14463009587750708
-0.14463009587750708
-0.2000203453625393
-0.2061748175275213
-0.18771140103251985
-0.17540245670252808
-0.16309351237253633
-0.1384756237125251
-0.10770326288750408
-0.16309351237253633
-0.23694717835254234
-0.2246382340225228
-0.10770326288750408
-0.07693090206251085
-0.1015487907225221
-0.09539431855751236
-0.09539431855751236
-0.058467485567509365
-0.1200122072175236
-0.1384756237125251
-0.17540245670252808
-0.02154065257750637
0.36619109381755277
-0.2984919000025288
-0.3723455659825625
-0.2984919000025288
-0.26771953917753555
-0.23079270618753256
-0.30464637216753854
-0.24925612268253405
-0.2554105948475438
-0.2738740113425453
-0.2554105948475438
-0.16309351237253633
-0.21232928969253104
-0.2246382340225228
-0.18771140103251985
-0.1692479845375183
-0.15078456804251686
-0.23694717835254234
-0.29233742783754685
-0.2061748175275213
-0.2061748175275213
-0.1692479845375183
-0.1261666793825056
-0.1384756237125251
-0.1384756237125251
-0.1261666793825056
-0.08923984639250258
-0.10770326288750408
-0.15693904020752658
-0.11385773505251384
-0.17540245670252808
-0.1200122072175236
-0.18155692886753785
-0.28618295567253704
-0.24925612268253405
-0.24925612268253405
-0.3108008443325483
-0.16309351237253633
-0.15078456804251686
-0.1261666793825056
-0.16309351237253633
-0.1692479845375183
-0.16309351237253633
0.5015894814475731
-0.34772767732255133
-0.46466264845757
-0.1692479845375183
-0.18155692886753785
-0.18771140103251985
-0.1938658731975296
-0.23079270618753256
-0.1692479845375183
-0.2061748175275213
-0.18155692886753785
-0.15693904020752658
-0.16309351237253633
-0.17540245670252808
0.3292642608275498
1.0185651433076426
-0.31695531649755804
-1.289361918567683
-0.46466264845757
-0.1261666793825056
-0.2184837618575408
-0.2061748175275213
-0.18155692886753785
-0.24925612268253405
-0.15693904020752658
-0.2738740113425453
-0.2431016505175243
-0.1692479845375183
-0.1384756237125251
-0.10770326288750408
-0.10770326288750408
-0.09539431855751236
-0.009231708247514623
-0.16309351237253633
-0.31695531649755804
-0.2738740113425453
-0.15693904020752658
-0.1692479845375183
-0.16309351237253633
-0.13232115154751534
-0.06462195773251911
-0.21232928969253104
-0.1692479845375183
-0.15078456804251686
-0.1261666793825056
-0.13232115154751534
-0.15693904020752658
-0.08308537422752059
0.06462195773251911
-0.28618295567253704
-0.28618295567253704
-0.17540245670252808
-0.15078456804251686
-0.2000203453625393
-0.23079270618753256
-0.2184837618575408
-0.14463009587750708
-0.29233742783754685
-0.2800284835075273
-0.2431016505175243
-0.2800284835075273
-0.28618295567253704
-0.23694717835254234
-0.10770326288750408
0.5815976195925888
-0.1200122072175236
-0.18771140103251985
-0.08923984639250258
-0.1015487907225221
-0.13232115154751534
-0.10770326288750408
-0.11385773505251384
-0.06462195773251911
-0.1692479845375183
-0.07693090206251085
-0.08923984639250258
-0.14463009587750708
-0.23694717835254234
-0.10770326288750408
0.31695531649755804
0.2431016505175243
0.3108008443325483
0.15693904020752658
0.04000406907250786
-0.07693090206251085
-0.1015487907225221
-0.1261666793825056
-0.17540245670252808
-0.895475700007614
-1.3570611123826792
-0.4892805371175811
-0.23079270618753256
-0.17540245670252808
-0.36619109381755277
-0.901630172172624
-0.4154268711375475
-0.15693904020752658
-0.2800284835075273
-0.2184837618575408
-0.18155692886753785
-0.1938658731975296
-0.2000203453625393
-0.18771140103251985
-0.16309351237253633
-0.1261666793825056
-0.26156506701252585
-0.1692479845375183
-0.1261666793825056
-0.10770326288750408
-0.14463009587750708
-0.18771140103251985
-0.14463009587750708
-0.06462195773251911
-0.21232928969253104
-0.1384756237125251
-0.14463009587750708
-0.15693904020752658
-0.15693904020752658
-0.16309351237253633
-0.14463009587750708
-0.11385773505251384
-0.28618295567253704
-0.17540245670252808
-0.02769512474251612
0.24925612268253405
-0.08923984639250258
-0.2184837618575408
-0.17540245670252808
-0.13232115154751534
-0.26771953917753555
-0.17540245670252808
-0.15078456804251686
-0.15693904020752658
-0.1261666793825056
-0.1692479845375183
-0.17540245670252808
0.34772767732255133
1.0308740876376343
-0.07693090206251085
-0.36619109381755277
-0.17540245670252808
-0.14463009587750708
-0.13232115154751534
-0.15693904020752658
-1.1539635309376628
-1.2278171969176688
-0.44619923196256844
-0.2431016505175243
-0.21232928969253104
-0.1938658731975296
-0.2184837618575408
-0.2000203453625393
-0.15078456804251686
-0.2061748175275213
-0.1938658731975296
-0.15693904020752658
-0.2061748175275213
-0.2246382340225228
-0.17540245670252808
-0.1384756237125251
-0.15693904020752658
-0.2246382340225228
-0.18155692886753785
-0.18771140103251985
-0.17540245670252808
-0.2000203453625393
-0.2184837618575408
-0.18155692886753785
-0.16309351237253633
-0.36619109381755277
-0.2554105948475438
-0.1938658731975296
-0.18155692886753785
-0.18771140103251985
-0.14463009587750708
-0.1261666793825056
-0.1261666793825056
-0.2246382340225228
-0.14463009587750708
-0.18771140103251985
-0.2061748175275213
-0.23694717835254234
-0.1938658731975296
-0.17540245670252808
-0.26156506701252585
-0.3108008443325483
-0.2431016505175243
-0.21232928969253104
-0.2000203453625393
-0.1938658731975296
-0.21232928969253104
-0.17540245670252808
-0.17540245670252808
-0.24925612268253405
-0.2246382340225228
-0.2431016505175243
-0.1938658731975296
-0.1938658731975296
-0.2184837618575408
-0.360036621652543
-0.18771140103251985
0.2246382340225228
-0.40927239897256545
-0.34772767732255133
-0.2431016505175243
-0.1938658731975296
-0.15693904020752658
-0.10770326288750408
-0.16309351237253633
-0.23079270618753256
-0.16309351237253633
-0.15078456804251686
-0.1384756237125251
-0.01538618041249662
0.14463009587750708
-0.1261666793825056
-0.2800284835075273
-0.3108008443325483
-0.29233742783754685
-0.29233742783754685
-0.28618295567253704
-0.29233742783754685
-0.23079270618753256
-0.2184837618575408
-0.29233742783754685
-0.2738740113425453
-0.2554105948475438
-0.1938658731975296
-0.2061748175275213
-0.2800284835075273
-0.2000203453625393
-0.1200122072175236
-0.14463009587750708
-0.16309351237253633
-0.13232115154751534
-0.1200122072175236
-0.13232115154751534
-0.14463009587750708
-0.2061748175275213
-0.15693904020752658
-0.2000203453625393
-0.24925612268253405
-0.18155692886753785
-0.2246382340225228
-0.427735815467567
-0.2984919000025288
-0.23079270618753256
-0.1692479845375183
-0.2000203453625393
-0.21232928969253104
-0.2000203453625393
-0.1938658731975296
-0.18771140103251985
-0.1938658731975296
-0.15078456804251686
-0.11385773505251384
-0.21232928969253104
-0.18155692886753785
0.390808982477564
1.2832074464026733
-0.26156506701252585
0.003077236082504875
-0.02769512474251612
-0.31695531649755804
-1.4801505556827075
-0.7293049515526008
-0.3108008443325483
-0.18771140103251985
-0.17540245670252808
-0.16309351237253633
-0.1200122072175236
-0.09539431855751236
-0.13232115154751534
0.06462195773251911
0.2431016505175243
-0.04000406907250786
-0.1015487907225221
-0.11385773505251384
-0.11385773505251384
-0.07693090206251085
-0.2184837618575408
-0.1200122072175236
-0.06462195773251911
-0.1384756237125251
-0.1384756237125251
-0.10770326288750408
-0.13232115154751534
-0.17540245670252808
-0.21232928969253104
-0.18155692886753785
-0.15078456804251686
-0.1384756237125251
-0.10770326288750408
-0.09539431855751236
-0.1015487907225221
-0.14463009587750708
-0.17540245670252808
-0.13232115154751534
-0.1200122072175236
-0.1261666793825056
-0.11385773505251384
-0.10770326288750408
-0.08308537422752059
-0.04000406907250786
-0.2738740113425453
-0.13232115154751534
-0.05231301340249961
-0.05231301340249961
-0.06462195773251911
-0.10770326288750408
-0.11385773505251384
-0.09539431855751236
-0.21232928969253104
-0.15078456804251686
-0.16309351237253633
-0.16309351237253633
-0.15078456804251686
-0.11385773505251384
-0.058467485567509365
-0.04000406907250786
-0.23079270618753256
-0.23079270618753256
0.01538618041249662
0.35388214948756097
-0.36619109381755277
-0.3354187329925596
-0.2431016505175243
-0.15078456804251686
-0.26156506701252585
-0.18771140103251985
-0.1384756237125251
-0.1384756237125251
-0.11385773505251384
0.1261666793825056
0.390808982477564
0.009231708247514623
-0.18155692886753785
-0.1261666793825056
-0.1384756237125251
-0.16309351237253633
-0.16309351237253633
-0.2000203453625393
-0.2061748175275213
-0.07693090206251085
-0.26156506701252585
-0.18771140103251985
-0.16309351237253633
-0.1384756237125251
-0.3415732051575415
-0.7231504793875909
-0.28618295567253704
-0.10770326288750408
-0.2061748175275213
-0.1261666793825056
-0.10770326288750408
-0.11385773505251384
-0.09539431855751236
-0.10770326288750408
-0.07693090206251085
-0.04000406907250786
-0.14463009587750708
-0.1384756237125251
-0.11385773505251384
-0.01538618041249662
-0.0707764298975011
-0.17540245670252808
-0.15078456804251686
-0.058467485567509365
-0.2246382340225228
-0.15693904020752658
-0.17540245670252808
-0.15078456804251686
-0.15693904020752658
-0.2184837618575408
-0.18771140103251985
-0.14463009587750708
-0.26771953917753555
-0.1692479845375183
-0.1261666793825056
-0.2000203453625393
0.2738740113425453
1.0985732814526583
0.04000406907250786
-0.6616057577376044
-1.3324432237226955
-0.5015894814475731
-0.29233742783754685
-0.24925612268253405
-0.2000203453625393
-0.15693904020752658
-0.1384756237125251
-0.08923984639250258
-0.2061748175275213
-0.01538618041249662
-0.15693904020752658
-0.18155692886753785
-0.15693904020752658
-0.1692479845375183
-0.15693904020752658
0.7169960072226089
0.37850003814754446
0.9077846443376336
0.02769512474251612
-0.15693904020752658
-0.18155692886753785
-0.11385773505251384
-0.11385773505251384
-0.9754838381526297
-1.2462806134126705
-0.5569797309325776
-0.31695531649755804
-0.2246382340225228
-0.18771140103251985
-0.13232115154751534
-0.11385773505251384
-0.1384756237125251
-0.2000203453625393
-0.2000203453625393
-0.2184837618575408
-0.18771140103251985
-0.2061748175275213
-0.18771140103251985
-0.1261666793825056
0.04615854123751762
-0.23079270618753256
-0.2000203453625393
-0.15078456804251686
-0.16309351237253633
-0.16309351237253633
-0.16309351237253633
-0.1015487907225221
-0.05231301340249961
-0.28618295567253704
-0.14463009587750708
-0.14463009587750708
-0.1384756237125251
-0.1200122072175236
-0.1200122072175236
-0.06462195773251911
-0.2554105948475438
-0.2738740113425453
-0.15078456804251686
-0.17540245670252808
-0.18155692886753785
-0.1938658731975296
-0.2246382340225228
-0.15693904020752658
-0.14463009587750708
-0.3415732051575415
-0.2431016505175243
-0.17540245670252808
-0.14463009587750708
-0.1384756237125251
-0.09539431855751236
-0.10770326288750408
-0.1261666793825056
-0.2800284835075273
-0.2246382340225228
-0.21232928969253104
-0.2061748175275213
-0.1692479845375183
-0.15693904020752658
-0.26156506701252585
0.2431016505175243
0.07693090206251085
-0.390808982477564
-0.26771953917753555
-0.17540245670252808
-0.04615854123751762
-0.2984919000025288
-0.23079270618753256
-0.1938658731975296
-0.2984919000025288
-0.24925612268253405
-0.26156506701252585
-0.23079270618753256
-0.2000203453625393
-0.15078456804251686
-0.10770326288750408
-0.1384756237125251
-0.24925612268253405
-0.1384756237125251
-0.15693904020752658
-0.058467485567509365
-0.3108008443325483
-0.24925612268253405
-0.2000203453625393
-0.2184837618575408
-0.2984919000025288
-0.23079270618753256
-0.2061748175275213
-0.17540245670252808
-0.17540245670252808
-0.15693904020752658
-0.08923984639250258
-0.1384756237125251
-0.2246382340225228
-0.15693904020752658
-0.06462195773251911
-0.1261666793825056
-0.18771140103251985
-0.16309351237253633
0.2431016505175243
0.9200935886676254
0.1692479845375183
0.13232115154751534
-0.009231708247514623
-0.10770326288750408
-0.1384756237125251
-0.1384756237125251
-0.28618295567253704
-1.4247603061977032
-0.9508659494926462
-0.26771953917753555
-0.30464637216753854
-0.26771953917753555
-0.2184837618575408
-0.16309351237253633
-0.1200122072175236
-0.1938658731975296
-0.2431016505175243
-0.1938658731975296
-0.15693904020752658
-0.14463009587750708
-0.1384756237125251
-0.10770326288750408
-0.058467485567509365
-0.08308537422752059
-0.1200122072175236
-0.1261666793825056
-0.13232115154751534
-0.13232115154751534
-0.14463009587750708
-0.1261666793825056
-0.1015487907225221
-0.17540245670252808
-0.2800284835075273
-0.2246382340225228
-0.26771953917753555
-0.2554105948475438
-0.3292642608275498
-0.3108008443325483
-0.28618295567253704
-0.29233742783754685
-0.3108008443325483
-0.30464637216753854
-0.26771953917753555
-0.2738740113425453
-0.2431016505175243
-0.2431016505175243
-0.1938658731975296
-0.2184837618575408
-0.18155692886753785
-0.1384756237125251
-0.1200122072175236
-0.1261666793825056
-0.09539431855751236
-0.14463009587750708
0.30464637216753854
0.3354187329925596
-0.10770326288750408
-0.14463009587750708
-0.15078456804251686
-0.16309351237253633
-0.1384756237125251
-0.18155692886753785
-0.04615854123751762
0.35388214948756097
-0.3108008443325483
-0.30464637216753854
-0.1938658731975296
-0.16309351237253633
-0.1384756237125251
-0.4831260649525715
-0.7231504793875909
-0.30464637216753854
-0.23079270618753256
-0.24925612268253405
-0.23079270618753256
-0.23694717835254234
-0.21232928969253104
-0.2061748175275213
-0.18771140103251985
-0.16309351237253633
-0.16309351237253633
-0.16309351237253633
-0.10770326288750408
-0.08923984639250258
-0.08923984639250258
-0.16309351237253633
-0.16309351237253633
-0.15078456804251686
-0.10770326288750408
-0.11385773505251384
-0.1200122072175236
-0.13232115154751534
-0.1261666793825056
-0.14463009587750708
0.4831260649525715
-0.396963454642546
-0.5323618422725662
-0.18771140103251985
-0.1384756237125251
-0.17540245670252808
-0.2000203453625393
-0.2000203453625393
-0.10770326288750408
-0.2246382340225228
-0.26156506701252585
-0.17540245670252808
-0.1692479845375183
-0.16309351237253633
-0.15693904020752658
-0.1200122072175236
-0.08923984639250258
-0.2554105948475438
-0.15078456804251686
-0.1384756237125251
-0.003077236082504875
-0.2800284835075273
-0.2061748175275213
-0.15078456804251686
-0.08308537422752059
-0.2000203453625393
0.37850003814754446
1.0554919762976458
0.09539431855751236
0.1692479845375183
-0.009231708247514623
-0.09539431855751236
-0.6062155082525723
-1.5416952773327222
-0.6862236463975879
-0.3846545103125543
-0.360036621652543
-0.31695531649755804
-0.24925612268253405
-0.2554105948475438
-0.1261666793825056
-0.28618295567253704
-0.23079270618753256
-0.2061748175275213
-0.1692479845375183
-0.1692479845375183
-0.1692479845375183
-0.17540245670252808
-0.0707764298975011
-0.2431016505175243
-0.1384756237125251
-0.28618295567253704
-0.23079270618753256
-0.2061748175275213
-0.1938658731975296
-0.17540245670252808
-0.1261666793825056
-0.24925612268253405
-0.1938658731975296
-0.21232928969253104
-0.21232928969253104
-0.2246382340225228
-0.18771140103251985
-0.23694717835254234
-0.1938658731975296
0.02769512474251612
0.0707764298975011
-0.2246382340225228
-0.23079270618753256
-0.23694717835254234
-0.24925612268253405
-0.2184837618575408
-0.08308537422752059
-0.2984919000025288
-0.2246382340225228
-0.1938658731975296
-0.16309351237253633
-0.1692479845375183
-0.16309351237253633
-0.16309351237253633
-0.28618295567253704
-0.6000610360875902
-0.26771953917753555
-0.2061748175275213
-0.18771140103251985
-0.18155692886753785
-0.2000203453625393
-0.1261666793825056
-0.06462195773251911
-0.30464637216753854
-0.05231301340249961
0.3108008443325483
-0.35388214948756097
-0.2800284835075273
-0.16309351237253633
-0.01538618041249662
-0.23079270618753256
-0.34772767732255133
-0.2184837618575408
-0.23694717835254234
-0.28618295567253704
-0.29233742783754685
-0.2800284835075273
-0.23694717835254234
-0.17540245670252808
-0.360036621652543
-0.2738740113425453
-0.29233742783754685
-0.26156506701252585
-0.23694717835254234
-0.1261666793825056
-0.23694717835254234
-0.18155692886753785
-0.21232928969253104
-0.18771140103251985
-0.11385773505251384
-0.11385773505251384
-0.1015487907225221
-0.10770326288750408
-0.04615854123751762
1.0247196154726523
0.4892805371175811
0.2061748175275213
0.11385773505251384
0.04000406907250786
-0.02769512474251612
-0.1200122072175236
-0.1200122072175236
-1.0924188092876486
-1.2462806134126705
-0.427735815467567
-0.24925612268253405
-0.16309351237253633
-0.1384756237125251
-0.1200122072175236
-0.0707764298975011
-0.04000406907250786
-0.28618295567253704
-0.15693904020752658
-0.11385773505251384
-0.07693090206251085
-0.18771140103251985
-0.2061748175275213
-0.15693904020752658
-0.1015487907225221
-0.26771953917753555
-0.18155692886753785
-0.1692479845375183
0.4154268711375475
1.4801505556827075
-0.16309351237253633
0.04615854123751762
-1.0185651433076426
-1.0801098649576568
-0.32310978866254003
-0.17540245670252808
-0.1200122072175236
-0.1200122072175236
-0.1015487907225221
0.009231708247514623
-0.003077236082504875
-0.2000203453625393
-0.14463009587750708
-0.1384756237125251
-0.17540245670252808
-0.14463009587750708
-0.18155692886753785
-0.1938658731975296
-0.1384756237125251
-0.2184837618575408
-0.2431016505175243
-0.2800284835075273
-0.1938658731975296
-0.1384756237125251
-0.13232115154751534
-0.10770326288750408
-0.1015487907225221
-0.14463009587750708
-0.1015487907225221
-0.13232115154751534
-0.15693904020752658
-0.13232115154751534
-0.1015487907225221
-0.05231301340249961
0.003077236082504875
0.003077236082504875
-0.08923984639250258
-0.07693090206251085
-0.08308537422752059
-0.10770326288750408
-0.1261666793825056
-0.11385773505251384
-0.17540245670252808
-0.24925612268253405
-0.23079270618753256
-0.23079270618753256
-0.2984919000025288
-0.21232928969253104
-0.1692479845375183
-0.13232115154751534
-0.24925612268253405
-0.29233742783754685
-0.1384756237125251
-0.1261666793825056
-0.1384756237125251
-0.14463009587750708
-0.1200122072175236
-0.10770326288750408
-0.15078456804251686
-0.28618295567253704
-0.18771140103251985
-0.23694717835254234
-0.08923984639250258
0.32310978866254003
-0.2984919000025288
-0.17540245670252808
-0.2738740113425453
-0.2000203453625393
-0.15693904020752658
-0.15693904020752658
-0.15693904020752658
-0.17540245670252808
-0.18771140103251985
-0.15693904020752658
-0.2184837618575408
-0.2984919000025288
-0.23079270618753256
-0.21232928969253104
-0.2061748175275213
-0.23079270618753256
-0.14463009587750708
-0.1384756237125251
-0.2000203453625393
-0.2554105948475438
-0.1692479845375183
-0.1692479845375183
-0.15078456804251686
-0.13232115154751534
-0.13232115154751534
-0.04615854123751762
-0.13232115154751534
-0.18771140103251985
-0.1200122072175236
-0.08308537422752059
-0.06462195773251911
-0.05231301340249961
-0.10770326288750408
0.003077236082504875
-0.05231301340249961
-0.16309351237253633
-0.08923984639250258
-0.08923984639250258
-0.10770326288750408
-0.1200122072175236
-0.1384756237125251
-0.1261666793825056
-0.1938658731975296
-0.18771140103251985
-0.18771140103251985
-0.23079270618753256
-0.23694717835254234
-0.34772767732255133
-0.2738740113425453
-0.2061748175275213
-0.2738740113425453
-0.26156506701252585
-0.2061748175275213
-0.21232928969253104
-0.18155692886753785
-0.15078456804251686
0.396963454642546
0.8400854505226096
-1.2339716690826785
-0.47697159278756174
-0.18771140103251985
0.08923984639250258
-0.11385773505251384
-0.15078456804251686
-0.14463009587750708
-0.1384756237125251
-0.1938658731975296
-0.14463009587750708
-0.15078456804251686
-0.13232115154751534
-0.17540245670252808
-0.17540245670252808
-0.15693904020752658
-0.1692479845375183
-0.1938658731975296
-0.08923984639250258
-0.14463009587750708
-0.26156506701252585
-0.1261666793825056
-0.1015487907225221
-0.13232115154751534
-0.1384756237125251
-0.1692479845375183
-0.11385773505251384
-0.15078456804251686
-0.1692479845375183
-0.16309351237253633
-0.18155692886753785
-0.18155692886753785
0.5262073701075842
-0.3846545103125543
-0.4708171206225797
-0.2000203453625393
-0.1384756237125251
-0.15078456804251686
-0.1384756237125251
-0.1200122072175236
-0.04615854123751762
-0.13232115154751534
-0.058467485567509365
-0.04615854123751762
-0.003077236082504875
-0.003077236082504875
-0.009231708247514623
0.01538618041249662
0.1261666793825056
-0.02769512474251612
-0.09539431855751236
-0.10770326288750408
-0.08308537422752059
-0.1015487907225221
-0.09539431855751236
-0.1200122072175236
-0.09539431855751236
-0.2184837618575408
-0.2061748175275213
-0.2246382340225228
-0.21232928969253104
-0.23079270618753256
-0.24925612268253405
-0.11385773505251384
0.10770326288750408
-0.7108415350575992
-0.4708171206225797
-0.3292642608275498
-0.31695531649755804
-0.30464637216753854
-0.26156506701252585
-0.26156506701252585
-0.1692479845375183
-0.2184837618575408
-0.16309351237253633
-0.11385773505251384
-0.10770326288750408
-0.08308537422752059
-0.058467485567509365
0.2061748175275213
-0.05231301340249961
-0.23694717835254234
-0.17540245670252808
-0.15078456804251686
-0.1692479845375183
-0.16309351237253633
-0.15078456804251686
-0.1200122072175236
0.05231301340249961
-0.1200122072175236
-0.06462195773251911
-0.02154065257750637
0.01538618041249662
-0.05231301340249961
0.02154065257750637
-0.11385773505251384
-0.058467485567509365
-0.21232928969253104
-0.15693904020752658
-0.18155692886753785
-0.1938658731975296
-0.17540245670252808
-0.18155692886753785
-0.18155692886753785
-0.13232115154751534
-0.2800284835075273
-0.21232928969253104
-0.2061748175275213
-0.1692479845375183
-0.13232115154751534
-0.32310978866254003
-0.2246382340225228
-0.1938658731975296
-0.31695531649755804
-0.23694717835254234
-0.21232928969253104
-0.2184837618575408
-0.21232928969253104
-0.18155692886753785
-0.18771140103251985
-0.15078456804251686
0.32310978866254003
1.4493781948577145
-0.07693090206251085
0.058467485567509365
-0.05231301340249961
-0.06462195773251911
-0.08308537422752059
-0.889321227842632
-1.3570611123826792
-0.5200528979425745
-0.2800284835075273
-0.2061748175275213
-0.18155692886753785
-0.1692479845375183
-0.1384756237125251
-0.15078456804251686
-0.2184837618575408
-0.09539431855751236
-0.02154065257750637
-0.2738740113425453
-0.1692479845375183
-0.18771140103251985
-0.14463009587750708
-0.09539431855751236
-0.30464637216753854
-0.21232928969253104
-0.21232928969253104
-0.21232928969253104
-0.1938658731975296
-0.18771140103251985
-0.2000203453625393
-0.17540245670252808
-0.2431016505175243
-0.18771140103251985
-0.21232928969253104
-0.16309351237253633
-0.13232115154751534
-0.1384756237125251
-0.0707764298975011
-0.058467485567509365
-0.15078456804251686
-0.11385773505251384
-0.1015487907225221
-0.08308537422752059
-0.10770326288750408
-0.11385773505251384
-0.05231301340249961
1.0124106711426328
0.5077439536125827
0.7785407288726233
-0.2000203453625393
-0.24925612268253405
-0.2061748175275213
-0.1938658731975296
-0.21232928969253104
-1.2339716690826785
-1.2955163907326928
-0.4831260649525715
-0.28618295567253704
-0.26771953917753555
-0.2246382340225228
-0.1261666793825056
-0.1261666793825056
0.06462195773251911
-0.1384756237125251
-0.2061748175275213
-0.2000203453625393
-0.2000203453625393
-0.21232928969253104
-0.1938658731975296
-0.15078456804251686
-0.05231301340249961
-0.2431016505175243
-0.14463009587750708
-0.08308537422752059
-0.08923984639250258
-0.04615854123751762
-0.06462195773251911
-0.15693904020752658
-0.1261666793825056
-0.18155692886753785
-0.09539431855751236
-0.10770326288750408
-0.14463009587750708
-0.14463009587750708
-0.13232115154751534
-0.10770326288750408
-0.1015487907225221
-0.23079270618753256
-0.17540245670252808
-0.1692479845375183
-0.1384756237125251
-0.13232115154751534
-0.2246382340225228
-0.26771953917753555
-0.17540245670252808
-0.2246382340225228
-0.1692479845375183
-0.15693904020752658
-0.11385773505251384
-0.06462195773251911
-0.058467485567509365
-0.058467485567509365
-0.07693090206251085
-0.15078456804251686
-0.15693904020752658
-0.15078456804251686
-0.1384756237125251
-0.14463009587750708
-0.2184837618575408
-0.2431016505175243
0.3846545103125543
-0.14463009587750708
-0.36619109381755277
-0.21232928969253104
-0.15078456804251686
-0.10770326288750408
-0.1200122072175236
-0.09539431855751236
-0.1261666793825056
-0.2554105948475438
-0.18155692886753785
0.390808982477564
1.4124513618677115
-0.18771140103251985
0.003077236082504875
-0.1692479845375183
-1.3385976958876775
-0.9262480608326351
-0.3723455659825625
-0.2738740113425453
-0.2000203453625393
-0.18771140103251985
-0.16309351237253633
-0.15693904020752658
-0.23079270618753256
-0.26156506701252585
-0.18771140103251985
-0.2061748175275213
-0.2554105948475438
-0.18771140103251985
-0.15078456804251686
-0.1384756237125251
-0.18155692886753785
-0.16309351237253633
-0.15078456804251686
-0.1692479845375183
-0.2000203453625393
-0.2061748175275213
-0.2246382340225228
-0.21232928969253104
-0.2800284835075273
-0.26156506701252585
-0.2738740113425453
-0.3108008443325483
-0.2431016505175243
-0.2184837618575408
-0.18771140103251985
-0.09539431855751236
-0.18155692886753785
-0.24925612268253405
-0.17540245670252808
-0.1384756237125251
-0.13232115154751534
-0.14463009587750708
-0.1200122072175236
-0.033849596907498114
-0.08923984639250258
0.04615854123751762
-0.11385773505251384
-0.10770326288750408
-0.10770326288750408
-0.08923984639250258
-0.05231301340249961
-0.033849596907498114
-0.13232115154751534
-0.15078456804251686
-0.08923984639250258
-0.08923984639250258
-0.1015487907225221
-0.1200122072175236
-0.1384756237125251
-0.06462195773251911
0.23079270618753256
0.009231708247514623
-0.1938658731975296
-0.04000406907250786
0.35388214948756097
-0.3354187329925596
-0.28618295567253704
-0.2184837618575408
-0.17540245670252808
-0.09539431855751236
-0.09539431855751236
-0.1692479845375183
-0.2000203453625393
-0.15693904020752658
-0.2000203453625393
-0.6985325907276074
-0.47697159278756174
-0.2000203453625393
-0.16309351237253633
-0.1200122072175236
-0.1384756237125251
-0.1384756237125251
-0.13232115154751534
1.25243508557768
-0.575443147427579
-0.9139391165026156
-0.2184837618575408
-0.16309351237253633
-0.08923984639250258
-0.02769512474251612
0.033849596907498114
-0.05231301340249961
-0.13232115154751534
-0.06462195773251911
-0.058467485567509365
-0.01538618041249662
-0.02769512474251612
-0.058467485567509365
-0.058467485567509365
-0.009231708247514623
-0.06462195773251911
-0.04000406907250786
0.003077236082504875
-0.02154065257750637
-0.0707764298975011
-0.033849596907498114
-0.08308537422752059
0.02154065257750637
-0.1384756237125251
-0.1200122072175236
-0.05231301340249961
-0.033849596907498114
-0.033849596907498114
-0.003077236082504875
-0.04615854123751762
0.08308537422752059
-0.1015487907225221
-0.07693090206251085
-0.003077236082504875
-0.05231301340249961
-0.11385773505251384
0.47697159278756174
1.5355408051677124
-0.575443147427579
-1.3016708628976748
-0.46466264845757
-0.21232928969253104
-0.2061748175275213
-0.18155692886753785
-0.15078456804251686
-0.14463009587750708
-0.10770326288750408
-0.2431016505175243
-0.14463009587750708
-0.1261666793825056
-0.15693904020752658
-0.10770326288750408
-0.08308537422752059
-0.07693090206251085
-0.02154065257750637
-0.17540245670252808
-0.13232115154751534
-0.15693904020752658
-0.13232115154751534
-0.1200122072175236
-0.09539431855751236
-0.04615854123751762
0.01538618041249662
-0.04000406907250786
0.04615854123751762
0.009231708247514623
-0.07693090206251085
0.003077236082504875
-0.003077236082504875
-0.009231708247514623
0.04000406907250786
-0.14463009587750708
-0.1261666793825056
-0.09539431855751236
-0.08308537422752059
-0.07693090206251085
-0.08923984639250258
-0.04615854123751762
0.01538618041249662
-0.05231301340249961
0.009231708247514623
-0.06462195773251911
-0.04615854123751762
-0.04615854123751762
-0.08308537422752059
-0.10770326288750408
-0.009231708247514623
-0.2246382340225228
-0.1692479845375183
-0.1200122072175236
-0.08308537422752059
-0.1015487907225221
-0.11385773505251384
-0.033849596907498114
0.04000406907250786
-0.23079270618753256
-0.1692479845375183
-0.15693904020752658
-0.15693904020752658
-0.2184837618575408
-0.07693090206251085
0.29233742783754685
-0.32310978866254003
-0.4154268711375475
-0.24925612268253405
-0.2431016505175243
-0.23079270618753256
-0.2431016505175243
-0.1692479845375183
-0.02769512474251612
-0.033849596907498114
-0.2184837618575408
-0.1200122072175236
-0.10770326288750408
-0.10770326288750408
-0.13232115154751534
-0.10770326288750408
-0.04000406907250786
-0.003077236082504875
-0.23694717835254234
-0.1015487907225221
-0.07693090206251085
-0.0707764298975011
-0.04000406907250786
0.003077236082504875
0.0707764298975011
-0.058467485567509365
-0.1384756237125251
-0.07693090206251085
-0.07693090206251085
-0.13232115154751534
-0.10770326288750408
-0.1200122072175236
-0.06462195773251911
-0.0707764298975011
-0.2738740113425453
-0.18771140103251985
-0.21232928969253104
-0.16309351237253633
-0.18155692886753785
-0.1261666793825056
-0.18155692886753785
-0.16309351237253633
-0.37850003814754446
-0.28618295567253704
-0.23694717835254234
-0.24925612268253405
-0.2738740113425453
-0.24925612268253405
-0.1938658731975296
-0.21232928969253104
-0.26156506701252585
-0.18155692886753785
-0.15078456804251686
-0.23694717835254234
-0.6062155082525723
-0.390808982477564
-0.18771140103251985
1.5601586938277234
0.7539228402126119
-0.8400854505226096
-0.1384756237125251
-0.07693090206251085
-0.1261666793825056
-0.1384756237125251
-0.15078456804251686
-1.1970448360926755
-1.1601180031026725
-0.396963454642546
-0.2246382340225228
-0.18155692886753785
-0.21232928969253104
-0.18155692886753785
-0.1200122072175236
-0.1200122072175236
-0.23079270618753256
-0.14463009587750708
-0.17540245670252808
-0.2000203453625393
-0.16309351237253633
-0.17540245670252808
-0.1384756237125251
-0.15693904020752658
-0.18155692886753785
-0.1015487907225221
-0.15693904020752658
-0.15078456804251686
-0.1200122072175236
-0.13232115154751534
-0.1015487907225221
-0.09539431855751236
-0.21232928969253104
-0.15693904020752658
-0.15078456804251686
-0.1261666793825056
-0.10770326288750408
-0.1200122072175236
-0.0707764298975011
-0.07693090206251085
-0.17540245670252808
-0.1015487907225221
-0.11385773505251384
-0.08923984639250258
-0.1015487907225221
-0.1261666793825056
-0.08308537422752059
-0.10770326288750408
-0.23079270618753256
-0.15693904020752658
-0.15693904020752658
-0.1384756237125251
-0.1261666793825056
-0.1261666793825056
-0.0707764298975011
-0.13232115154751534
-0.21232928969253104
-0.2000203453625393
-0.17540245670252808
-0.17540245670252808
-0.15078456804251686
-0.08308537422752059
-0.08308537422752059
-0.06462195773251911
0.40927239897256545
-0.23079270618753256
-0.21232928969253104
-0.15078456804251686
-0.15078456804251686
-0.08308537422752059
-0.02154065257750637
-0.0707764298975011
-0.18771140103251985
-0.17540245670252808
-0.18771140103251985
-0.2061748175275213
-0.17540245670252808
-0.14463009587750708
-0.1015487907225221
-0.15078456804251686
-0.1200122072175236
-0.05231301340249961
-0.08308537422752059
-0.08923984639250258
-0.07693090206251085
-0.14463009587750708
-0.2431016505175243
-0.23694717835254234
-0.1938658731975296
-0.14463009587750708
-0.16309351237253633
-0.15078456804251686
-0.13232115154751534
-0.1200122072175236
-0.08923984639250258
-0.18771140103251985
-0.2184837618575408
-0.1692479845375183
-0.15693904020752658
-0.18155692886753785
-0.14463009587750708
-0.2431016505175243
-0.2431016505175243
-0.26771953917753555
-0.24925612268253405
-0.2554105948475438
-0.26156506701252585
-0.26156506701252585
-0.2431016505175243
-0.2061748175275213
-0.16309351237253633
-0.24925612268253405
-0.2738740113425453
-0.21232928969253104
-0.2000203453625393
-0.15078456804251686
-0.18771140103251985
-0.23079270618753256
-0.18771140103251985
-0.2184837618575408
-0.17540245670252808
0.31695531649755804
1.0431830319676536
0.2184837618575408
0.18155692886753785
0.033849596907498114
-0.360036621652543
-1.4616871391877062
-0.6862236463975879
-0.2800284835075273
-0.18771140103251985
-0.360036621652543
-0.2554105948475438
-0.2000203453625393
-0.1692479845375183
-0.23694717835254234
-0.2554105948475438
-0.24925612268253405
-0.2738740113425453
-0.2800284835075273
-0.28618295567253704
-0.28618295567253704
0.2984919000025288
-0.5015894814475731
-0.5692886752625692
-0.009231708247514623
0.30464637216753854
-0.08923984639250258
-0.18155692886753785
-0.15078456804251686
-0.1015487907225221
-0.18771140103251985
-0.1261666793825056
-0.1200122072175236
-0.1692479845375183
-0.1692479845375183
-0.1692479845375183
-0.1692479845375183
-0.1384756237125251
-0.23079270618753256
-0.18771140103251985
-0.10770326288750408
-0.2184837618575408
-0.2431016505175243
-0.17540245670252808
-0.15693904020752658
-0.06462195773251911
-0.17540245670252808
-0.1938658731975296
-0.15078456804251686
-0.11385773505251384
-0.1200122072175236
-0.08923984639250258
-0.09539431855751236
0.009231708247514623
-0.2738740113425453
-0.3415732051575415
-0.18155692886753785
-0.15078456804251686
-0.13232115154751534
-0.15693904020752658
-0.1384756237125251
-0.04615854123751762
-0.21232928969253104
-0.21232928969253104
-0.01538618041249662
0.3723455659825625
-0.2984919000025288
-0.2800284835075273
-0.15693904020752658
-0.05231301340249961
-0.24925612268253405
-0.18155692886753785
-0.17540245670252808
-0.13232115154751534
-0.1261666793825056
-0.14463009587750708
-0.1384756237125251
-0.02154065257750637
-0.23079270618753256
-0.17540245670252808
-0.13232115154751534
-0.17540245670252808
-0.16309351237253633
-0.18771140103251985
-0.2984919000025288
-0.2984919000025288
-0.3292642608275498
-0.21232928969253104
-0.1938658731975296
-0.18771140103251985
-0.15693904020752658
-0.1384756237125251
-0.18155692886753785
-0.10770326288750408
-0.2984919000025288
-0.2738740113425453
-0.26771953917753555
-0.2184837618575408
-0.18771140103251985
0.04000406907250786
0.34772767732255133
0.058467485567509365
-0.1384756237125251
-0.11385773505251384
-0.08923984639250258
-0.06462195773251911
-0.13232115154751534
-0.11385773505251384
-0.09539431855751236
-0.1200122072175236
-0.23079270618753256
-0.1938658731975296
-0.21232928969253104
-0.2061748175275213
-0.4154268711375475
-0.7785407288726233
-0.36619109381755277
-0.1692479845375183
-0.2738740113425453
-0.14463009587750708
-0.14463009587750708
-0.1261666793825056
0.35388214948756097
1.0062561989776508
0.15078456804251686
-0.6677602299025863
-1.2770529742376913
-0.4831260649525715
-0.3108008443325483
-0.21232928969253104
-0.1384756237125251
-0.2000203453625393
-0.2000203453625393
-0.08308537422752059
-0.23694717835254234
-0.1938658731975296
-0.2184837618575408
-0.18771140103251985
-0.2000203453625393
-0.23079270618753256
-0.2000203453625393
-0.1938658731975296
-0.29233742783754685
-0.2246382340225228
-0.15693904020752658
-0.21232928969253104
-0.26771953917753555
-0.2061748175275213
-0.16309351237253633
-0.1200122072175236
-0.26156506701252585
-0.18155692886753785
-0.16309351237253633
-0.16309351237253633
-0.17540245670252808
-0.1938658731975296
-0.07693090206251085
-0.02769512474251612
-0.23694717835254234
-0.06462195773251911
-0.13232115154751534
-0.16309351237253633
-0.15078456804251686
-0.1261666793825056
-0.0707764298975011
-0.0707764298975011
-0.17540245670252808
-0.06462195773251911
-0.14463009587750708
-0.17540245670252808
-0.13232115154751534
-0.18771140103251985
-0.18155692886753785
-0.17540245670252808
-0.2554105948475438
-0.2554105948475438
-0.30464637216753854
-0.30464637216753854
-0.31695531649755804
-0.30464637216753854
-0.28618295567253704
-0.2800284835075273
-0.3846545103125543
-0.29233742783754685
-0.2554105948475438
-0.30464637216753854
-0.13232115154751534
0.29233742783754685
-0.30464637216753854
-0.2800284835075273
-0.34772767732255133
-0.21232928969253104
-0.18155692886753785
-0.2184837618575408
-0.18771140103251985
-0.1692479845375183
-0.09539431855751236
1.3385976958876775
0.09539431855751236
0.033849596907498114
-0.04615854123751762
-0.1200122072175236
-0.1261666793825056
-0.15693904020752658
-0.1384756237125251
-1.3201342793926762
-1.1724269474326645
-0.47697159278756174
-0.3108008443325483
-0.26771953917753555
-0.23694717835254234
-0.2061748175275213
-0.2000203453625393
-0.2554105948475438
-0.2800284835075273
-0.23079270618753256
-0.26156506701252585
-0.23694717835254234
-0.24925612268253405
-0.28618295567253704
-0.3292642608275498
-0.2800284835075273
-0.26771953917753555
-0.18155692886753785
-0.18155692886753785
-0.18771140103251985
-0.1384756237125251
-0.13232115154751534
-0.09539431855751236
-0.1200122072175236
-0.21232928969253104
-0.11385773505251384
-0.07693090206251085
-0.11385773505251384
0.003077236082504875
-0.10770326288750408
-0.14463009587750708
-0.2184837618575408
-0.21232928969253104
-0.1384756237125251
-0.15078456804251686
-0.18771140103251985
-0.18771140103251985
-0.2246382340225228
0.13232115154751534
0.8339309783576276
0.29233742783754685
0.18155692886753785
-0.009231708247514623
0.02154065257750637
-0.2000203453625393
-0.1692479845375183
-0.2984919000025288
-1.4986139721777092
-1.0124106711426328
-0.433890287632549
-0.28618295567253704
-0.2246382340225228
-0.21232928969253104
-0.16309351237253633
-0.1015487907225221
-0.1384756237125251
-0.21232928969253104
-0.14463009587750708
-0.05231301340249961
-0.18771140103251985
-0.1938658731975296
-0.18155692886753785
-0.15693904020752658
-0.2246382340225228
-0.26156506701252585
-0.23694717835254234
-0.23694717835254234
-0.2000203453625393
-0.18155692886753785
-0.18155692886753785
-0.08923984639250258
-0.18155692886753785
-0.17540245670252808
-0.10770326288750408
-0.18771140103251985
-0.17540245670252808
-0.17540245670252808
-0.17540245670252808
-0.1261666793825056
-0.17540245670252808
-0.23694717835254234
-0.2246382340225228
-0.2184837618575408
-0.2000203453625393
-0.2184837618575408
-0.21232928969253104
-0.17540245670252808
-0.2246382340225228
-0.1384756237125251
-0.3415732051575415
-0.29233742783754685
-0.24925612268253405
-0.2554105948475438
-0.26771953917753555
-0.26156506701252585
-0.29233742783754685
-0.2554105948475438
-0.23694717835254234
-0.2246382340225228
-0.24925612268253405
-0.2246382340225228
-0.2800284835075273
-0.15693904020752658
0.30464637216753854
-0.4523537041275505
-0.42158134330255725
-0.2984919000025288
-0.28618295567253704
-0.26771953917753555
-0.23694717835254234
-0.23079270618753256
-0.26771953917753555
-0.2246382340225228
-0.2184837618575408
-0.17540245670252808
-0.16309351237253633
-0.15078456804251686
-0.1015487907225221
1.2339716690826785
-0.6616057577376044
-1.000101726812641
-0.26156506701252585
-0.2061748175275213
-0.16309351237253633
-0.2061748175275213
-0.23694717835254234
-0.18771140103251985
-0.2984919000025288
-0.28618295567253704
-0.32310978866254003
-0.3292642608275498
-0.32310978866254003
-0.32310978866254003
-0.2061748175275213
0.37850003814754446
-0.5015894814475731
-0.7416138958825924
-0.34772767732255133
-0.29233742783754685
-0.30464637216753854
-0.26156506701252585
-0.2431016505175243
-0.1384756237125251
-0.29233742783754685
-0.24925612268253405
-0.2184837618575408
-0.14463009587750708
-0.15693904020752658
-0.16309351237253633
-0.26156506701252585
-0.1261666793825056
-0.2246382340225228
-0.21232928969253104
-0.2061748175275213
-0.23079270618753256
-0.2061748175275213
-0.2184837618575408
-0.2000203453625393
-0.1384756237125251
-0.2984919000025288
0.34772767732255133
1.4801505556827075
-0.04615854123751762
0.16309351237253633
-0.18771140103251985
-0.1384756237125251
-0.6800691742326058
-1.5170773886727107
-0.6185244525825918
-0.3354187329925596
-0.23079270618753256
-0.2431016505175243
-0.24925612268253405
-0.23694717835254234
-0.17540245670252808
-0.26771953917753555
-0.21232928969253104
-0.17540245670252808
-0.17540245670252808
-0.360036621652543
-0.24925612268253405
-0.21232928969253104
-0.1261666793825056
-0.2431016505175243
-0.18771140103251985
-0.17540245670252808
-0.15693904020752658
-0.14463009587750708
-0.15693904020752658
-0.18155692886753785
-0.11385773505251384
-0.24925612268253405
-0.15693904020752658
-0.10770326288750408
-0.17540245670252808
-0.2061748175275213
-0.2061748175275213
-0.18771140103251985
-0.1200122072175236
-0.32310978866254003
-0.2061748175275213
-0.17540245670252808
-0.15078456804251686
-0.1261666793825056
-0.1261666793825056
-0.1261666793825056
-0.05231301340249961
-0.13232115154751534
-0.02154065257750637
-0.2984919000025288
-0.17540245670252808
-0.14463009587750708
-0.13232115154751534
-0.10770326288750408
-0.07693090206251085
-0.2184837618575408
-0.13232115154751534
-0.1261666793825056
-0.1384756237125251
-0.16309351237253633
-0.16309351237253633
-0.1384756237125251
-0.17540245670252808
0.003077236082504875
1.3324432237226955
1.4616871391877062
0.11385773505251384
-0.07693090206251085
-0.18155692886753785
-1.363215584547689
-1.1601180031026725
-0.5877520917575707
-0.2984919000025288
-0.2184837618575408
-0.1938658731975296
-0.21232928969253104
-0.2184837618575408
-0.2061748175275213
-0.44619923196256844
-0.5939065639225805
-0.2984919000025288
-0.2184837618575408
-0.2061748175275213
-0.18155692886753785
-0.15078456804251686
-0.1384756237125251
-0.15693904020752658
-0.24925612268253405
-0.21232928969253104
-0.18771140103251985
-0.2000203453625393
-0.23079270618753256
-0.2061748175275213
-0.10770326288750408
-0.15078456804251686
-0.360036621652543
-0.2554105948475438
-0.23694717835254234
-0.2061748175275213
-0.2061748175275213
-0.2061748175275213
-0.1938658731975296
-0.18155692886753785
-0.24925612268253405
-0.15078456804251686
-0.16309351237253633
0.40311792680755576
1.4432237226927047
0.4523537041275505
0.003077236082504875
-0.003077236082504875
-0.5015894814475731
-1.6524757763027311
-0.8400854505226096
-0.44619923196256844
-0.28618295567253704
-0.1938658731975296
-0.1200122072175236
-0.11385773505251384
-0.24925612268253405
-0.2061748175275213
-0.17540245670252808
0.40311792680755576
1.4986139721777092
-0.16309351237253633
-0.05231301340249961
-1.178581419597674
-1.1539635309376628
-0.46466264845757
-0.32310978866254003
-0.29233742783754685
-0.2738740113425453
-0.2184837618575408
-0.18771140103251985
-0.1692479845375183
-0.2800284835075273
-0.13232115154751534
-0.16309351237253633
-0.1384756237125251
-0.1261666793825056
-0.15078456804251686
-0.08923984639250258
-0.10770326288750408
-0.15078456804251686
-0.1015487907225221
-0.09539431855751236
-0.08308537422752059
-0.1200122072175236
-0.15078456804251686
0.009231708247514623
0.9693293659876481
0.4892805371175811
0.8400854505226096
-0.11385773505251384
-0.16309351237253633
-0.14463009587750708
-0.08308537422752059
-0.18155692886753785
-1.39398794537271
-1.0616464484626553
-0.40927239897256545
-0.26771953917753555
-0.23079270618753256
-0.1938658731975296
-0.17540245670252808
-0.1261666793825056
-0.11385773505251384
-0.2000203453625393
-0.17540245670252808
-0.2184837618575408
-0.1692479845375183
-0.1261666793825056
-0.11385773505251384
-0.04615854123751762
-0.058467485567509365
-0.17540245670252808
-0.08923984639250258
-0.07693090206251085
-0.04615854123751762
-0.08308537422752059
-0.07693090206251085
-0.01538618041249662
-0.08308537422752059
-0.01538618041249662
-0.1692479845375183
-0.1200122072175236
-0.09539431855751236
-0.1015487907225221
-0.11385773505251384
-0.02769512474251612
-0.13232115154751534
-0.2000203453625393
-0.15693904020752658
-0.16309351237253633
-0.1692479845375183
-0.18155692886753785
-0.15078456804251686
-0.07693090206251085
0.2738740113425453
0.058467485567509365
-0.08308537422752059
-0.08308537422752059
-0.10770326288750408
-0.13232115154751534
-0.16309351237253633
-0.1692479845375183
-0.18771140103251985
-0.17540245670252808
-0.08923984639250258
-0.09539431855751236
-0.058467485567509365
-0.02154065257750637
-0.07693090206251085
-0.4523537041275505
0.23079270618753256
-0.14463009587750708
-0.26156506701252585
-0.15693904020752658
-0.14463009587750708
-0.17540245670252808
-0.2000203453625393
-0.17540245670252808
-0.2431016505175243
-0.21232928969253104
-0.1692479845375183
-0.15078456804251686
-0.08923984639250258
-0.058467485567509365
0.433890287632549
0.24925612268253405
-0.07693090206251085
-0.2061748175275213
-0.058467485567509365
-0.1384756237125251
-0.14463009587750708
-0.10770326288750408
-0.1261666793825056
-0.1384756237125251
-0.1200122072175236
-0.08308537422752059
-0.05231301340249961
-0.058467485567509365
-0.1384756237125251
-0.6739147020675963
-0.04615854123751762
0.6308333969125834
-1.2585895577426898
-0.5015894814475731
-0.24925612268253405
-0.1938658731975296
-0.17540245670252808
-0.15078456804251686
-0.16309351237253633
-0.15693904020752658
-0.2061748175275213
-0.0707764298975011
-0.08308537422752059
-0.06462195773251911
-0.04000406907250786
-0.11385773505251384
-0.10770326288750408
-0.1384756237125251
-0.1384756237125251
-0.08308537422752059
-0.07693090206251085
-0.07693090206251085
-0.1200122072175236
-0.10770326288750408
-0.11385773505251384
-0.08923984639250258
-0.18771140103251985
-0.1200122072175236
-0.11385773505251384
-0.1261666793825056
-0.15078456804251686
-0.1015487907225221
-0.09539431855751236
-0.06462195773251911
-0.16309351237253633
-0.16309351237253633
-0.15693904020752658
-0.18771140103251985
-0.2061748175275213
-0.2061748175275213
-0.26771953917753555
-0.1938658731975296
-0.2800284835075273
-0.29233742783754685
-0.28618295567253704
-0.3108008443325483
-0.31695531649755804
-0.29233742783754685
-0.3108008443325483
-0.18155692886753785
-0.32310978866254003
-0.2800284835075273
-0.2800284835075273
-0.2431016505175243
-0.2431016505175243
-0.2184837618575408
-0.18155692886753785
-0.13232115154751534
-0.16309351237253633
-0.1015487907225221
-0.28618295567253704
-0.2184837618575408
-0.1938658731975296
-0.2431016505175243
-0.06462195773251911
0.40927239897256545
-0.46466264845757
-0.3108008443325483
-0.21232928969253104
-0.21232928969253104
-0.1938658731975296
-0.17540245670252808
-0.1384756237125251
-0.058467485567509365
-0.4892805371175811
-0.360036621652543
-0.23694717835254234
-0.2061748175275213
-0.1938658731975296
-0.1692479845375183
-0.17540245670252808
-0.06462195773251911
-0.2800284835075273
-0.2000203453625393
-0.1692479845375183
-0.1384756237125251
-0.1384756237125251
-0.08308537422752059
-0.009231708247514623
0.3415732051575415
-0.06462195773251911
-0.058467485567509365
-0.04000406907250786
-0.07693090206251085
-0.07693090206251085
-0.09539431855751236
-0.10770326288750408
-0.0707764298975011
-0.2061748175275213
-0.17540245670252808
-0.14463009587750708
-0.15693904020752658
-0.14463009587750708
-0.13232115154751534
-0.18155692886753785
-0.18155692886753785
-0.29233742783754685
-0.2246382340225228
-0.24925612268253405
-0.2554105948475438
-0.24925612268253405
-0.26156506701252585
-0.23079270618753256
-0.1261666793825056
-0.2984919000025288
-0.21232928969253104
-0.2000203453625393
-0.17540245670252808
-0.17540245670252808
-0.17540245670252808
-0.2246382340225228
-0.16309351237253633
0.28618295567253704
1.4062968897027015
-0.0707764298975011
0.09539431855751236
0.04000406907250786
0.02769512474251612
-0.04615854123751762
-0.9754838381526297
-1.2770529742376913
-0.4523537041275505
-0.28618295567253704
-0.21232928969253104
-0.427735815467567
-0.5077439536125827
-0.31695531649755804
-0.2061748175275213
-0.30464637216753854
-0.23079270618753256
-0.18155692886753785
-0.1261666793825056
-0.15078456804251686
-0.15693904020752658
-0.11385773505251384
-0.10770326288750408
-0.2061748175275213
-0.1384756237125251
-0.1200122072175236
0.04000406907250786
-0.14463009587750708
-0.14463009587750708
-0.18155692886753785
-0.1938658731975296
-0.23079270618753256
-0.1692479845375183
-0.1692479845375183
-0.18155692886753785
-0.15693904020752658
-0.1938658731975296
-0.16309351237253633
-0.14463009587750708
-0.1938658731975296
-0.13232115154751534
-0.1200122072175236
-0.2000203453625393
-0.21232928969253104
-0.2246382340225228
-0.1938658731975296
-0.18771140103251985
-0.2984919000025288
-0.2000203453625393
-0.1938658731975296
-0.2061748175275213
-0.1692479845375183
-0.2000203453625393
-0.15078456804251686
-0.13232115154751534
-0.2061748175275213
-0.24925612268253405
-0.2738740113425453
-0.17540245670252808
-0.17540245670252808
-0.13232115154751534
-0.1015487907225221
-0.15078456804251686
-0.1692479845375183
0.30464637216753854
-0.3354187329925596
-0.31695531649755804
-0.1938658731975296
-0.16309351237253633
-0.10770326288750408
-0.07693090206251085
-0.1938658731975296
-0.18155692886753785
-0.16309351237253633
-0.17540245670252808
-0.21232928969253104
-0.21232928969253104
-0.18771140103251985
-0.21232928969253104
-0.2800284835075273
-0.2246382340225228
-0.2184837618575408
-0.2061748175275213
-0.2184837618575408
-0.2184837618575408
-0.08308537422752059
0.427735815467567
-0.05231301340249961
-0.21232928969253104
-0.18155692886753785
-0.1261666793825056
-0.17540245670252808
-0.1692479845375183
-0.11385773505251384
-0.15693904020752658
-0.2000203453625393
-0.21232928969253104
-0.2000203453625393
-0.1938658731975296
-0.21232928969253104
-0.3415732051575415
-0.7293049515526008
0.6000610360875902
0.058467485567509365
0.23694717835254234
0.009231708247514623
-0.10770326288750408
-0.1384756237125251
-0.1015487907225221
-0.18771140103251985
-1.3816790010426905
-0.9693293659876481
-0.390808982477564
-0.2431016505175243
-0.2000203453625393
-0.16309351237253633
-0.15078456804251686
-0.16309351237253633
-0.16309351237253633
-0.23694717835254234
-0.18771140103251985
0.06462195773251911
0.8708578113476306
0.23694717835254234
0.18771140103251985
-0.15078456804251686
-1.4186058340326935
-0.8770122835126126
-0.32310978866254003
-0.2000203453625393
-0.16309351237253633
-0.40927239897256545
-0.23694717835254234
-0.058467485567509365
-0.1261666793825056
-0.18155692886753785
-0.11385773505251384
-0.15078456804251686
-0.14463009587750708
-0.16309351237253633
-0.15693904020752658
-0.1015487907225221
-0.2000203453625393
-0.2431016505175243
-0.18155692886753785
-0.1200122072175236
0.02154065257750637
-0.16309351237253633
-0.21232928969253104
-0.14463009587750708
-0.21232928969253104
-0.2184837618575408
-0.18155692886753785
-0.18155692886753785
-0.2000203453625393
-0.21232928969253104
-0.2061748175275213
-0.1261666793825056
-0.26156506701252585
-0.18771140103251985
-0.1200122072175236
-0.14463009587750708
-0.1384756237125251
-0.09539431855751236
-0.11385773505251384
-0.06462195773251911
-0.14463009587750708
-0.1261666793825056
-0.11385773505251384
-0.1384756237125251
-0.1692479845375183
-0.2061748175275213
-0.2246382340225228
-0.2061748175275213
-0.2000203453625393
-0.1015487907225221
-0.14463009587750708
-0.1692479845375183
-0.13232115154751534
-0.13232115154751534
-0.10770326288750408
-0.1015487907225221
-0.2061748175275213
-0.13232115154751534
-0.18771140103251985
-0.15078456804251686
0.4154268711375475
-0.35388214948756097
-0.34772767732255133
-0.24925612268253405
-0.2000203453625393
-0.11385773505251384
-0.1384756237125251
-0.1261666793825056
-0.1384756237125251
-0.16309351237253633
-0.16309351237253633
-0.1938658731975296
-0.28618295567253704
-0.2061748175275213
-0.23079270618753256
-0.2246382340225228
-0.23694717835254234
-0.28618295567253704
-0.23079270618753256
-0.18771140103251985
-0.4154268711375475
-0.3108008443325483
-0.23694717835254234
-0.2246382340225228
-0.21232928969253104
-0.1938658731975296
-0.18771140103251985
-0.13232115154751534
-0.26771953917753555
-0.1692479845375183
-0.15078456804251686
-0.14463009587750708
-0.1384756237125251
-0.08923984639250258
0.003077236082504875
0.003077236082504875
-0.2000203453625393
-0.1261666793825056
-0.09539431855751236
-0.13232115154751534
-0.1200122072175236
-0.11385773505251384
-0.15693904020752658
-0.0707764298975011
-0.2061748175275213
-0.2000203453625393
-0.1938658731975296
-0.21232928969253104
-0.21232928969253104
-0.23694717835254234
-0.32310978866254003
-0.23694717835254234
-0.40311792680755576
-0.2984919000025288
-0.29233742783754685
-0.29233742783754685
-0.2738740113425453
0.3415732051575415
1.437069250527695
-0.6923781185625978
-1.3816790010426905
-0.4892805371175811
-0.2246382340225228
-0.13232115154751534
-0.06462195773251911
-0.0707764298975011
-0.1384756237125251
-0.08923984639250258
-0.21232928969253104
-0.16309351237253633
-0.15693904020752658
-0.15693904020752658
-0.1692479845375183
-0.17540245670252808
-0.18155692886753785
-0.13232115154751534
-0.2554105948475438
-0.2184837618575408
-0.14463009587750708
-0.08308537422752059
-0.2431016505175243
-0.23694717835254234
-0.16309351237253633
-0.07693090206251085
-0.26771953917753555
-0.18155692886753785
-0.1692479845375183
-0.15693904020752658
-0.18155692886753785
-0.2000203453625393
-0.18155692886753785
-0.1015487907225221
-0.2554105948475438
-0.17540245670252808
-0.01538618041249662
0.2000203453625393
-0.07693090206251085
-0.18155692886753785
-0.15693904020752658
-0.10770326288750408
-0.17540245670252808
-0.14463009587750708
-0.15078456804251686
-0.1384756237125251
-0.11385773505251384
-0.1015487907225221
-0.09539431855751236
0.003077236082504875
-0.15693904020752658
-0.1938658731975296
-0.396963454642546
-0.18771140103251985
-0.14463009587750708
-0.1692479845375183
-0.1384756237125251
-0.08923984639250258
-0.28618295567253704
-0.18771140103251985
-0.15693904020752658
-0.16309351237253633
-0.2246382340225228
-0.009231708247514623
0.360036621652543
-0.28618295567253704
-0.34772767732255133
-0.23694717835254234
-0.2184837618575408
-0.21232928969253104
-0.23694717835254234
-0.2431016505175243
-0.1938658731975296
-0.08308537422752059
-0.26156506701252585
-0.14463009587750708
-0.10770326288750408
-0.10770326288750408
-0.09539431855751236
-0.1384756237125251
-0.08308537422752059
-0.058467485567509365
-0.16309351237253633
-0.15693904020752658
-0.2061748175275213
-0.23694717835254234
-0.26156506701252585
-0.23694717835254234
-0.1938658731975296
-0.11385773505251384
-0.3292642608275498
-0.21232928969253104
-0.17540245670252808
-0.18155692886753785
-0.2061748175275213
-0.18155692886753785
-0.2184837618575408
-0.31695531649755804
-0.35388214948756097
-0.23694717835254234
-0.2184837618575408
-0.2800284835075273
-0.24925612268253405
-0.23694717835254234
-0.18771140103251985
-0.21232928969253104
-0.3108008443325483
-0.26156506701252585
-0.2431016505175243
-0.26771953917753555
-0.26156506701252585
-0.26156506701252585
-0.2800284835075273
-0.31695531649755804
-0.396963454642546
-0.2984919000025288
-0.29233742783754685
-0.2800284835075273
-0.26156506701252585
-0.28618295567253704
-0.23079270618753256
0.31695531649755804
0.8462399226876194
0.07693090206251085
0.09539431855751236
-0.08308537422752059
-0.1200122072175236
-0.14463009587750708
-0.2246382340225228
-1.3324432237226955
-1.221662724752659
-0.4708171206225797
-0.3108008443325483
-0.2431016505175243
-0.2738740113425453
-0.17540245670252808
-0.1384756237125251
-0.1261666793825056
-0.1938658731975296
-0.17540245670252808
-0.14463009587750708
-0.10770326288750408
-0.26156506701252585
-0.26156506701252585
-0.2061748175275213
-0.2000203453625393
-0.3292642608275498
-0.2800284835075273
-0.2800284835075273
-0.2984919000025288
-0.3292642608275498
-0.3354187329925596
-0.2738740113425453
-0.3292642608275498
-0.3846545103125543
-0.2800284835075273
-0.18771140103251985
-0.34772767732255133
-0.31695531649755804
-0.2431016505175243
-0.2061748175275213
-0.2061748175275213
-0.2184837618575408
-0.14463009587750708
-0.13232115154751534
-0.1384756237125251
-0.10770326288750408
-0.11385773505251384
-0.09539431855751236
-0.13232115154751534
-0.17540245670252808
-0.04000406907250786
-0.13232115154751534
-0.1692479845375183
-0.1692479845375183
-0.16309351237253633
0.04000406907250786
0.8154675618626261
0.5262073701075842
0.6369878690775933
-0.21232928969253104
-0.17540245670252808
-0.1200122072175236
-0.11385773505251384
-0.2800284835075273
-1.4801505556827075
-0.8154675618626261
-0.5015894814475731
-0.3292642608275498
-0.24925612268253405
-0.2184837618575408
-0.24925612268253405
-0.18155692886753785
-0.2554105948475438
-0.2246382340225228
-0.16309351237253633
-0.18155692886753785
-0.2184837618575408
-0.2184837618575408
-0.16309351237253633
-0.11385773505251384
-0.04615854123751762
-0.23079270618753256
-0.15693904020752658
-0.1261666793825056
-0.15078456804251686
-0.1261666793825056
-0.1261666793825056
-0.033849596907498114
-0.15078456804251686
-0.2000203453625393
-0.10770326288750408
-0.10770326288750408
-0.1384756237125251
-0.1692479845375183
-0.17540245670252808
-0.0707764298975011
-0.14463009587750708
-0.23694717835254234
-0.18155692886753785
-0.2061748175275213
-0.21232928969253104
-0.1692479845375183
-0.1938658731975296
-0.18155692886753785
-0.2431016505175243
-0.23694717835254234
-0.2246382340225228
-0.23694717835254234
-0.1692479845375183
-0.18155692886753785
-0.2184837618575408
-0.360036621652543
-0.2246382340225228
-0.10770326288750408
-0.08923984639250258
-0.07693090206251085
-0.06462195773251911
-0.0707764298975011
-0.13232115154751534
-0.1261666793825056
0.32310978866254003
-0.3108008443325483
0.1938658731975296
1.437069250527695
-0.2000203453625393
0.14463009587750708
-0.15078456804251686
-0.46466264845757
-1.4986139721777092
-0.6800691742326058
-0.3415732051575415
-0.26156506701252585
-0.2184837618575408
-0.2184837618575408
-0.2061748175275213
0.396963454642546
-0.4523537041275505
-0.5815976195925888
-0.2431016505175243
-0.2246382340225228
-0.18771140103251985
-0.23079270618753256
-0.21232928969253104
-0.15693904020752658
-0.23079270618753256
-0.1938658731975296
-0.21232928969253104
-0.2246382340225228
-0.24925612268253405
-0.26156506701252585
-0.2431016505175243
-0.1938658731975296
-0.30464637216753854
-0.2184837618575408
-0.2061748175275213
-0.14463009587750708
-0.2184837618575408
-0.2000203453625393
-0.15078456804251686
-0.04615854123751762
-0.2000203453625393
-0.1938658731975296
-0.14463009587750708
-0.1200122072175236
-0.14463009587750708
-0.1261666793825056
-0.1261666793825056
-0.05231301340249961
-0.11385773505251384
-0.1015487907225221
-0.003077236082504875
-0.058467485567509365
-0.1015487907225221
-0.08923984639250258
-0.058467485567509365
-0.058467485567509365
-0.2061748175275213
-0.15078456804251686
-0.15693904020752658
-0.15078456804251686
-0.14463009587750708
-0.15078456804251686
-0.15078456804251686
-0.08308537422752059
-0.3108008443325483
-0.2554105948475438
-0.058467485567509365
0.29233742783754685
-0.390808982477564
-0.30464637216753854
-0.15693904020752658
-0.058467485567509365
-0.1938658731975296
-0.1261666793825056
-0.1261666793825056
-0.09539431855751236
-0.08923984639250258
-0.04000406907250786
-0.033849596907498114
-0.009231708247514623
-0.08923984639250258
-0.17540245670252808
-0.09539431855751236
-0.04615854123751762
-0.01538618041249662
-0.02769512474251612
-0.04615854123751762
0.02154065257750637
-0.1384756237125251
-0.08923984639250258
-0.09539431855751236
-0.1015487907225221
-0.10770326288750408
-0.11385773505251384
-0.07693090206251085
0.1692479845375183
0.02154065257750637
-0.05231301340249961
-0.1015487907225221
-0.10770326288750408
-0.0707764298975011
-0.06462195773251911
-0.06462195773251911
0.01538618041249662
-0.16309351237253633
-0.09539431855751236
-0.0707764298975011
-0.04615854123751762
-0.02769512474251612
-0.08308537422752059
-0.30464637216753854
-0.3108008443325483
-0.1938658731975296
-0.058467485567509365
-0.058467485567509365
-0.04000406907250786
-0.058467485567509365
-0.04000406907250786
0.003077236082504875
0.0707764298975011
-0.09539431855751236
0.01538618041249662
0.02154065257750637
0.003077236082504875
0.5015894814475731
1.3385976958876775
0.4400447597975588
-0.6123699804175821
-1.0678009206276373
-0.2984919000025288
-0.17540245670252808
-0.15693904020752658
-0.10770326288750408
-0.1384756237125251
-0.10770326288750408
-0.1015487907225221
-0.23694717835254234
-0.10770326288750408
-0.1015487907225221
-0.07693090206251085
0.26771953917753555
0.28618295567253704
-0.033849596907498114
-0.02154065257750637
-0.2431016505175243
-0.13232115154751534
-0.06462195773251911
-0.05231301340249961
-0.04615854123751762
-0.09539431855751236
0.0707764298975011
0.09539431855751236
-0.033849596907498114
-0.02154065257750637
0.02769512474251612
-0.5077439536125827
-0.5815976195925888
-0.18155692886753785
-0.1015487907225221
-0.07693090206251085
-0.2554105948475438
-0.15078456804251686
-0.15693904020752658
-0.1261666793825056
-0.0707764298975011
-0.05231301340249961
-0.033849596907498114
-0.02769512474251612
-0.1261666793825056
-0.06462195773251911
0.02769512474251612
-0.15693904020752658
-0.1200122072175236
-0.15693904020752658
-0.11385773505251384
-0.1015487907225221
-0.2000203453625393
-0.15078456804251686
-0.13232115154751534
-0.13232115154751534
-0.1200122072175236
-0.1261666793825056
-0.11385773505251384
-0.08923984639250258
-0.14463009587750708
-0.18771140103251985
-0.2246382340225228
-0.2431016505175243
-0.08308537422752059
0.2800284835075273
-0.34772767732255133
-0.2554105948475438
-0.2738740113425453
-0.14463009587750708
-0.15078456804251686
-0.1261666793825056
-0.10770326288750408
-0.1200122072175236
-0.11385773505251384
-0.07693090206251085
-0.07693090206251085
-0.11385773505251384
-0.13232115154751534
-0.11385773505251384
-0.1261666793825056
-0.1015487907225221
-0.05231301340249961
-0.10770326288750408
-0.1261666793825056
-0.08923984639250258
-0.07693090206251085
-0.058467485567509365
-0.04000406907250786
-0.033849596907498114
-0.003077236082504875
-0.058467485567509365
-0.18771140103251985
-0.1200122072175236
-0.07693090206251085
-0.1015487907225221
-0.16309351237253633
-0.15693904020752658
-0.1261666793825056
-0.2000203453625393
-0.2738740113425453
-0.1938658731975296
-0.21232928969253104
-0.21232928969253104
-0.2061748175275213
-0.2000203453625393
-0.18155692886753785
-0.2554105948475438
-0.29233742783754685
-0.2000203453625393
-0.18771140103251985
-0.16309351237253633
-0.15693904020752658
-0.15078456804251686
-0.10770326288750408
-0.15078456804251686
-0.1692479845375183
-0.1200122072175236
-0.1261666793825056
-0.1200122072175236
-0.1200122072175236
-0.08308537422752059
0.18155692886753785
0.9693293659876481
0.36619109381755277
0.2246382340225228
0.058467485567509365
-0.02769512474251612
-0.0707764298975011
-0.06462195773251911
0.009231708247514623
-0.36619109381755277
0.033849596907498114
0.3723455659825625
-0.28618295567253704
-0.16309351237253633
-0.0707764298975011
-0.1938658731975296
-0.3354187329925596
-1.4986139721777092
-0.8585488670176111
-0.360036621652543
-0.2554105948475438
-0.2000203453625393
-0.15078456804251686
-0.14463009587750708
-0.09539431855751236
-0.1200122072175236
-0.14463009587750708
-0.11385773505251384
-0.08923984639250258
-0.14463009587750708
-0.15078456804251686
-0.1261666793825056
-0.02154065257750637
-0.07693090206251085
-0.10770326288750408
-0.10770326288750408
-0.1015487907225221
-0.09539431855751236
-0.13232115154751534
-0.1384756237125251
-0.0707764298975011
-0.15078456804251686
-0.14463009587750708
-0.11385773505251384
-0.10770326288750408
-0.1261666793825056
-0.16309351237253633
-0.16309351237253633
-0.1384756237125251
-0.13232115154751534
-0.07693090206251085
-0.08308537422752059
-0.10770326288750408
-0.10770326288750408
-0.08923984639250258
-0.1261666793825056
-0.1384756237125251
-0.21232928969253104
-0.1261666793825056
0.009231708247514623
-0.2000203453625393
-0.13232115154751534
-0.11385773505251384
-0.09539431855751236
-0.1200122072175236
-0.15078456804251686
-0.07693090206251085
-0.13232115154751534
-0.15078456804251686
-0.15693904020752658
-0.18155692886753785
-0.24925612268253405
0.4523537041275505
0.16309351237253633
-0.7354594237176103
-0.5015894814475731
-0.24925612268253405
-0.18771140103251985
-0.1384756237125251
-0.07693090206251085
-0.003077236082504875
-0.02769512474251612
-0.06462195773251911
-0.0707764298975011
-0.009231708247514623
-0.05231301340249961
-0.06462195773251911
-0.04000406907250786
0.04000406907250786
-0.058467485567509365
-0.2431016505175243
-0.13232115154751534
-0.11385773505251384
-0.1261666793825056
-0.16309351237253633
-0.17540245670252808
-0.15078456804251686
-0.2984919000025288
-0.2431016505175243
-0.2554105948475438
-0.2800284835075273
-0.2738740113425453
-0.3108008443325483
-0.3354187329925596
-0.26771953917753555
-0.49543500928256323
-0.4154268711375475
-0.35388214948756097
-0.32310978866254003
-0.360036621652543
-0.3354187329925596
-0.3292642608275498
-0.2554105948475438
-0.360036621652543
-0.26771953917753555
-0.21232928969253104
-0.18155692886753785
-0.1692479845375183
-0.1200122072175236
-0.13232115154751534
-0.13232115154751534
-0.2061748175275213
0.390808982477564
1.1601180031026725
0.28618295567253704
0.2738740113425453
0.1200122072175236
0.04615854123751762
-0.5939065639225805
-1.3385976958876775
-0.4892805371175811
-0.26771953917753555
-0.1692479845375183
-0.14463009587750708
-0.1200122072175236
-0.3292642608275498
-0.2184837618575408
-0.360036621652543
-0.29233742783754685
-0.2738740113425453
-0.26771953917753555
-0.23079270618753256
-0.2184837618575408
-0.16309351237253633
-0.02769512474251612
-0.23079270618753256
-0.13232115154751534
-0.05231301340249961
-0.058467485567509365
-0.15078456804251686
-0.21232928969253104
-0.08923984639250258
-0.09539431855751236
-0.17540245670252808
-0.11385773505251384
-0.1261666793825056
-0.15693904020752658
-0.16309351237253633
-0.16309351237253633
-0.17540245670252808
-0.1384756237125251
-0.23694717835254234
-0.10770326288750408
-0.08308537422752059
0.1015487907225221
-0.02154065257750637
-0.0707764298975011
-0.05231301340249961
-0.02769512474251612
-0.11385773505251384
-0.05231301340249961
-0.04000406907250786
-0.033849596907498114
-0.058467485567509365
-0.07693090206251085
-0.06462195773251911
-0.009231708247514623
-0.1692479845375183
-0.05231301340249961
-0.07693090206251085
-0.2431016505175243
-0.15078456804251686
-0.15078456804251686
-0.11385773505251384
-0.05231301340249961
-0.29233742783754685
0.009231708247514623
0.40311792680755576
-0.3415732051575415
-0.2554105948475438
-0.14463009587750708
-0.058467485567509365
0.02769512474251612
-0.15078456804251686
-0.02154065257750637
-0.14463009587750708
-0.08923984639250258
-0.06462195773251911
-0.0707764298975011
-0.02769512474251612
0.02769512474251612
-0.21232928969253104
-0.11385773505251384
-0.13232115154751534
-0.10770326288750408
-0.09539431855751236
-0.1384756237125251
-0.06462195773251911
-0.02769512474251612
-0.13232115154751534
-0.1384756237125251
-0.18155692886753785
-0.1261666793825056
-0.16309351237253633
-0.2000203453625393
-0.13232115154751534
-0.04000406907250786
-0.26156506701252585
-0.15693904020752658
-0.07693090206251085
-0.0707764298975011
-0.06462195773251911
-0.02769512474251612
-0.009231708247514623
0.009231708247514623
-0.1200122072175236
-0.08308537422752059
-0.15078456804251686
-0.14463009587750708
-0.15693904020752658
-0.15078456804251686
-0.1384756237125251
-0.1261666793825056
-0.2000203453625393
-0.10770326288750408
-0.06462195773251911
-0.0707764298975011
-0.04000406907250786
-0.058467485567509365
-0.1015487907225221
-0.11385773505251384
-0.18771140103251985
-0.1015487907225221
-0.11385773505251384
0.4523537041275505
1.5293863330027024
-0.08308537422752059
0.04000406907250786
-1.1293456422776516
-0.9262480608326351
-0.28618295567253704
-0.1384756237125251
-0.11385773505251384
-0.07693090206251085
-0.07693090206251085
-0.1384756237125251
-0.15693904020752658
-0.21232928969253104
-0.15078456804251686
-0.15078456804251686
-0.17540245670252808
-0.1692479845375183
-0.14463009587750708
-0.11385773505251384
-0.16309351237253633
-0.2184837618575408
-0.1261666793825056
-0.1015487907225221
-0.058467485567509365
-0.1015487907225221
-0.2000203453625393
-0.06462195773251911
-0.08308537422752059
-0.18771140103251985
-0.08923984639250258
-0.08923984639250258
-0.08308537422752059
-0.08923984639250258
-0.058467485567509365
0.02769512474251612
-0.033849596907498114
-0.15078456804251686
-0.02769512474251612
0.02154065257750637
0.07693090206251085
-0.1200122072175236
-0.09539431855751236
-0.04615854123751762
-0.1015487907225221
-0.13232115154751534
-0.11385773505251384
-0.13232115154751534
-0.15078456804251686
-0.16309351237253633
-0.18155692886753785
-0.1015487907225221
-0.18771140103251985
-0.2246382340225228
-0.1261666793825056
-0.24925612268253405
-0.3354187329925596
-0.21232928969253104
-0.2184837618575408
-0.10770326288750408
-0.2000203453625393
-0.18771140103251985
-0.13232115154751534
-0.1692479845375183
0.003077236082504875
0.3846545103125543
-0.32310978866254003
-0.21232928969253104
-0.13232115154751534
-0.14463009587750708
-0.14463009587750708
-0.1692479845375183
-0.14463009587750708
-0.1384756237125251
-0.13232115154751534
-0.05231301340249961
-0.1261666793825056
-0.17540245670252808
-0.1015487907225221
-0.08308537422752059
-0.0707764298975011
-0.02154065257750637
-0.033849596907498114
0.2984919000025288
1.104727753617668
0.3723455659825625
0.2554105948475438
0.0707764298975011
0.01538618041249662
-0.033849596907498114
-0.06462195773251911
-0.32310978866254003
-1.4616871391877062
-0.7169960072226089
-0.31695531649755804
-0.24925612268253405
-0.14463009587750708
-0.09539431855751236
-0.07693090206251085
0.003077236082504875
0.02769512474251612
-0.11385773505251384
-0.07693090206251085
-0.08308537422752059
-0.0707764298975011
-0.04615854123751762
-0.02769512474251612
-0.07693090206251085
-0.1015487907225221
-0.04615854123751762
-0.07693090206251085
-0.08923984639250258
-0.1200122072175236
-0.10770326288750408
-0.09539431855751236
-0.1015487907225221
-0.18155692886753785
-0.10770326288750408
-0.09539431855751236
-0.09539431855751236
-0.08308537422752059
-0.08923984639250258
0.4831260649525715
1.1231911701126696
-1.4863050278477177
-0.538516314437576
-0.2554105948475438
-0.24925612268253405
-0.18155692886753785
-0.16309351237253633
-0.23079270618753256
-0.09539431855751236
-0.1692479845375183
-0.15693904020752658
-0.14463009587750708
-0.10770326288750408
-0.11385773505251384
-0.1384756237125251
-0.14463009587750708
-0.08308537422752059
-0.23694717835254234
-0.2554105948475438
-0.23079270618753256
-0.2738740113425453
-0.2061748175275213
-0.26156506701252585
-0.35388214948756097
-0.15693904020752658
-0.31695531649755804
-0.2184837618575408
-0.18771140103251985
-0.1692479845375183
-0.18771140103251985
-0.17540245670252808
-0.17540245670252808
-0.14463009587750708
-0.26156506701252585
-0.18155692886753785
-0.16309351237253633
-0.15078456804251686
-0.2000203453625393
-0.23694717835254234
-0.2000203453625393
-0.1384756237125251
-0.21232928969253104
-0.16309351237253633
-0.2061748175275213
-0.2184837618575408
-0.18771140103251985
-0.1938658731975296
-0.23079270618753256
-0.16309351237253633
-0.32310978866254003
-0.17540245670252808
-0.21232928969253104
-0.18771140103251985
-0.28618295567253704
-0.26156506701252585
-0.23079270618753256
-0.17540245670252808
-0.2800284835075273
-0.1938658731975296
-0.1692479845375183
-0.14463009587750708
-0.09539431855751236
-0.18771140103251985
-0.01538618041249662
0.40311792680755576
-0.2984919000025288
-0.2184837618575408
-0.18155692886753785
-0.11385773505251384
-0.06462195773251911
-0.05231301340249961
-0.02769512474251612
0.009231708247514623
-0.2000203453625393
-0.09539431855751236
-0.11385773505251384
-0.1384756237125251
-0.1384756237125251
-0.1200122072175236
-0.13232115154751534
-0.07693090206251085
-0.13232115154751534
-0.0707764298975011
-0.21232928969253104
-0.21232928969253104
-0.2431016505175243
-0.26771953917753555
-0.2554105948475438
-0.2061748175275213
-0.390808982477564
-0.2554105948475438
-0.24925612268253405
-0.26156506701252585
-0.2554105948475438
-0.1938658731975296
-0.18155692886753785
-0.08923984639250258
-0.34772767732255133
-0.23694717835254234
-0.1384756237125251
-0.15693904020752658
-0.1200122072175236
-0.14463009587750708
-0.1384756237125251
-0.05231301340249961
-0.23079270618753256
-0.1692479845375183
-0.15078456804251686
-0.15078456804251686
-0.15078456804251686
-0.1015487907225221
-0.003077236082504875
0.2061748175275213
-0.09539431855751236
-0.1015487907225221
-0.1015487907225221
-0.07693090206251085
-0.1200122072175236
-0.15693904020752658
-0.1200122072175236
-0.1015487907225221
0.31695531649755804
1.0554919762976458
0.1384756237125251
0.1015487907225221
0.02154065257750637
-0.1261666793825056
-0.4400447597975588
-1.2339716690826785
-1.3385976958876775
-0.5323618422725662
-0.35388214948756097
-0.2554105948475438
-0.23694717835254234
-0.23694717835254234
-0.17540245670252808
-0.1015487907225221
-0.2431016505175243
-0.16309351237253633
-0.14463009587750708
-0.10770326288750408
-0.06462195773251911
-0.04615854123751762
-0.06462195773251911
-0.01538618041249662
-0.15693904020752658
-0.09539431855751236
-0.09539431855751236
-0.11385773505251384
-0.10770326288750408
-0.11385773505251384
-0.1015487907225221
-0.08923984639250258
-0.17540245670252808
-0.1261666793825056
-0.06462195773251911
-0.04615854123751762
-0.04615854123751762
-0.1200122072175236
-0.09539431855751236
-0.06462195773251911
-0.2554105948475438
-0.1938658731975296
-0.21232928969253104
-0.1938658731975296
-0.15693904020752658
-0.13232115154751534
-0.09539431855751236
-0.08308537422752059
-0.17540245670252808
-0.009231708247514623
-0.02154065257750637
-0.14463009587750708
-0.15078456804251686
-0.15078456804251686
-0.13232115154751534
-0.15693904020752658
-0.2246382340225228
-0.21232928969253104
-0.21232928969253104
-0.2000203453625393
-0.17540245670252808
-0.1261666793825056
-0.1261666793825056
-0.21232928969253104
-0.04615854123751762
0.3415732051575415
-0.49543500928256323
-0.36619109381755277
-0.26771953917753555
-0.23694717835254234
-0.2184837618575408
-0.18155692886753785
-0.2431016505175243
-0.1692479845375183
-0.18155692886753785
-0.17540245670252808
-0.18771140103251985
-0.18771140103251985
-0.1384756237125251
-0.14463009587750708
-0.24925612268253405
-0.26156506701252585
-0.2554105948475438
-0.2554105948475438
-0.24925612268253405
-0.24925612268253405
-0.2000203453625393
-0.2554105948475438
-0.3108008443325483
-0.23694717835254234
-0.2184837618575408
-0.2000203453625393
-0.2061748175275213
-0.21232928969253104
-0.15078456804251686
-0.1384756237125251
-0.24925612268253405
-0.26156506701252585
-0.2246382340225228
-0.2061748175275213
-0.2000203453625393
-0.18155692886753785
-0.07693090206251085
-0.13232115154751534
-0.2000203453625393
-0.1015487907225221
-0.08923984639250258
-0.0707764298975011
-0.10770326288750408
-0.08923984639250258
0.09539431855751236
0.15078456804251686
-0.09539431855751236
-0.08923984639250258
-0.1200122072175236
-0.13232115154751534
-0.16309351237253633
-0.18155692886753785
-0.18155692886753785
-0.2431016505175243
-0.23694717835254234
-0.2184837618575408
0.34772767732255133
1.3878334732077002
-0.1692479845375183
0.04615854123751762
-0.15078456804251686
-1.4801505556827075
-0.9200935886676254
-0.4154268711375475
-0.2554105948475438
-0.2184837618575408
-0.1692479845375183
-0.1384756237125251
-0.13232115154751534
-0.18155692886753785
-0.14463009587750708
-0.11385773505251384
-0.1200122072175236
-0.10770326288750408
-0.08308537422752059
0.01538618041249662
-0.02769512474251612
-0.11385773505251384
-0.08923984639250258
-0.10770326288750408
-0.08308537422752059
-0.11385773505251384
-0.1261666793825056
-0.0707764298975011
-0.10770326288750408
-0.15078456804251686
-0.1200122072175236
-0.1200122072175236
-0.10770326288750408
-0.06462195773251911
-0.16309351237253633
-0.18771140103251985
0.2246382340225228
1.0801098649576568
0.3108008443325483
0.26771953917753555
-0.2431016505175243
-0.2431016505175243
-0.1692479845375183
-0.11385773505251384
-0.4523537041275505
-1.5724676381577152
-0.7293049515526008
-0.26771953917753555
-0.396963454642546
-0.6000610360875902
-0.24925612268253405
-0.2246382340225228
-0.2184837618575408
-0.23079270618753256
-0.14463009587750708
-0.16309351237253633
-0.1384756237125251
-0.16309351237253633
-0.16309351237253633
-0.15693904020752658
0.5015894814475731
-0.45850817629256013
-0.5692886752625692
-0.26156506701252585
-0.4154268711375475
-0.26156506701252585
-0.2184837618575408
-0.2184837618575408
-0.1692479845375183
-0.23694717835254234
-0.1692479845375183
-0.2000203453625393
-0.2184837618575408
-0.23694717835254234
-0.23694717835254234
-0.24925612268253405
-0.18771140103251985
-0.24925612268253405
-0.08308537422752059
-0.009231708247514623
-0.14463009587750708
-0.14463009587750708
-0.10770326288750408
-0.05231301340249961
-0.003077236082504875
-0.1261666793825056
-0.1200122072175236
-0.17540245670252808
-0.21232928969253104
-0.24925612268253405
-0.2431016505175243
-0.2554105948475438
-0.18771140103251985
-0.23694717835254234
-0.3354187329925596
-0.2554105948475438
-0.2184837618575408
-0.15693904020752658
-0.15693904020752658
-0.2000203453625393
-0.01538618041249662
0.28618295567253704
-0.3415732051575415
-0.31695531649755804
-0.2800284835075273
-0.2061748175275213
-0.18771140103251985
-0.14463009587750708
-0.009231708247514623
-0.23079270618753256
-0.2061748175275213
-0.1692479845375183
-0.2000203453625393
-0.2000203453625393
-0.23694717835254234
-0.23694717835254234
-0.15693904020752658
-0.35388214948756097
-0.2738740113425453
-0.2800284835075273
-0.24925612268253405
-0.24925612268253405
0.32310978866254003
1.4986139721777092
-0.6862236463975879
-1.2955163907326928
-0.4831260649525715
-0.28618295567253704
-0.2184837618575408
-0.1938658731975296
-0.13232115154751534
-0.11385773505251384
-0.0707764298975011
-0.18771140103251985
-0.1261666793825056
-0.11385773505251384
-0.08308537422752059
-0.04615854123751762
0.23694717835254234
0.4892805371175811
0.13232115154751534
-0.08308537422752059
-0.04000406907250786
-0.01538618041249662
-0.058467485567509365
-0.09539431855751236
-0.1200122072175236
-0.13232115154751534
-0.09539431855751236
-0.23079270618753256
-0.18155692886753785
-0.15693904020752658
-0.18771140103251985
-0.5446707866025856
-0.889321227842632
-0.3723455659825625
-0.2246382340225228
-0.396963454642546
-0.32310978866254003
-0.3108008443325483
-0.30464637216753854
-0.30464637216753854
-0.2984919000025288
-0.2800284835075273
-0.21232928969253104
-0.37850003814754446
-0.30464637216753854
-0.2554105948475438
-0.1015487907225221
-0.29233742783754685
-0.2984919000025288
-0.26771953917753555
-0.2061748175275213
-0.32310978866254003
-0.26156506701252585
-0.2738740113425453
-0.28618295567253704
-0.26156506701252585
-0.28618295567253704
-0.29233742783754685
-0.2554105948475438
-0.31695531649755804
-0.26771953917753555
-0.05231301340249961
-0.009231708247514623
-0.29233742783754685
-0.13232115154751534
0.26771953917753555
-0.37850003814754446
-0.40311792680755576
-0.24925612268253405
-0.2246382340225228
-0.24925612268253405
-0.23694717835254234
-0.23079270618753256
-0.1938658731975296
-0.1015487907225221
-0.2984919000025288
-0.37850003814754446
-0.44619923196256844
-0.26156506701252585
-0.2246382340225228
-0.18155692886753785
-0.13232115154751534
-0.08923984639250258
-0.23079270618753256
-0.15693904020752658
-0.10770326288750408
-0.14463009587750708
-0.14463009587750708
-0.11385773505251384
-0.08308537422752059
-0.11385773505251384
-0.0707764298975011
-0.1692479845375183
-0.17540245670252808
-0.16309351237253633
-0.17540245670252808
-0.16309351237253633
-0.15693904020752658
-0.1692479845375183
-0.29233742783754685
-0.2000203453625393
-0.2000203453625393
-0.1938658731975296
-0.18771140103251985
-0.1692479845375183
-0.1015487907225221
-0.06462195773251911
-0.2184837618575408
-0.18771140103251985
-0.2061748175275213
-0.18155692886753785
-0.2061748175275213
-0.21232928969253104
-0.10770326288750408
-0.11385773505251384
-0.2554105948475438
-0.15693904020752658
-0.15078456804251686
-0.2061748175275213
-0.18155692886753785
-0.16309351237253633
-0.08308537422752059
0.2000203453625393
1.2832074464026733
-0.18771140103251985
-0.08923984639250258
-0.14463009587750708
-0.17540245670252808
-0.15693904020752658
-0.26156506701252585
-1.4124513618677115
-1.0308740876376343
-0.4400447597975588
-0.29233742783754685
-0.16309351237253633
-0.14463009587750708
-0.06462195773251911
-0.1938658731975296
-0.17540245670252808
-0.2800284835075273
-0.1938658731975296
-0.18155692886753785
-0.15078456804251686
-0.17540245670252808
-0.16309351237253633
-0.08923984639250258
-0.09539431855751236
-0.23694717835254234
-0.16309351237253633
-0.1261666793825056
-0.16309351237253633
-0.16309351237253633
-0.3723455659825625
-0.21232928969253104
-0.23079270618753256
-0.32310978866254003
-0.2431016505175243
-0.23694717835254234
-0.21232928969253104
-0.2061748175275213
-0.17540245670252808
-0.11385773505251384
-0.18771140103251985
-0.23694717835254234
-0.09539431855751236
-0.11385773505251384
0.05231301340249961
-0.09539431855751236
-0.16309351237253633
-0.06462195773251911
-0.13232115154751534
-0.2246382340225228
-0.16309351237253633
-0.16309351237253633
-0.16309351237253633
-0.15693904020752658
-0.14463009587750708
-0.1384756237125251
-0.1384756237125251
-0.15078456804251686
-0.15078456804251686
-0.2184837618575408
-0.26156506701252585
-0.23694717835254234
-0.2246382340225228
-0.28618295567253704
-0.29233742783754685
0.1015487907225221
-0.5138984257775646
-0.5200528979425745
-0.45850817629256013
-0.4892805371175811
-0.44619923196256844
-0.40927239897256545
-0.49543500928256323
-0.4708171206225797
-0.29233742783754685
-0.427735815467567
-0.32310978866254003
-0.433890287632549
-0.24925612268253405
-0.11385773505251384
-0.1938658731975296
-0.2000203453625393
-0.16309351237253633
-0.1384756237125251
-0.15078456804251686
-0.15078456804251686
-0.15078456804251686
-0.15078456804251686
-0.18771140103251985
-0.08308537422752059
-0.24925612268253405
-0.2431016505175243
-0.23079270618753256
-0.26156506701252585
-0.26771953917753555
-0.23694717835254234
-0.2554105948475438
-0.1938658731975296
-0.17540245670252808
-0.15693904020752658
-0.1938658731975296
-0.16309351237253633
-0.11385773505251384
-0.1261666793825056
-0.17540245670252808
-0.1261666793825056
-0.1692479845375183
-0.14463009587750708
-0.1200122072175236
-0.1384756237125251
-0.18771140103251985
0.24925612268253405
1.215508252587677
-0.09539431855751236
0.003077236082504875
-0.058467485567509365
-0.09539431855751236
-0.14463009587750708
-0.15078456804251686
-0.02154065257750637
-1.9294270237277809
-1.0985732814526583
0.058467485567509365
0.9077846443376336
-0.0707764298975011
0.04000406907250786
-0.058467485567509365
-0.5200528979425745
-1.5416952773327222
-0.7046870628925893
-0.390808982477564
-0.30464637216753854
-0.26771953917753555
-0.2554105948475438
-0.2061748175275213
-0.2061748175275213
-0.3723455659825625
-0.32310978866254003
-0.29233742783754685
-0.2554105948475438
-0.26156506701252585
-0.23079270618753256
-0.1938658731975296
-0.13232115154751534
-0.29233742783754685
-0.2184837618575408
-0.18771140103251985
-0.16309351237253633
-0.13232115154751534
0.058467485567509365
-0.1261666793825056
-0.07693090206251085
-0.16309351237253633
-0.11385773505251384
-0.1384756237125251
-0.1261666793825056
-0.15078456804251686
-0.18155692886753785
-0.21232928969253104
-0.1200122072175236
-0.31695531649755804
-0.2738740113425453
-0.2431016505175243
-0.18155692886753785
-0.1692479845375183
-0.16309351237253633
-0.07693090206251085
0.009231708247514623
-0.2000203453625393
-0.08923984639250258
-0.06462195773251911
-0.08923984639250258
-0.08308537422752059
-0.07693090206251085
-0.10770326288750408
-0.02154065257750637
-0.15078456804251686
-0.1200122072175236
-0.06462195773251911
0.1015487907225221
-0.2184837618575408
-0.17540245670252808
-0.13232115154751534
-0.058467485567509365
-0.2431016505175243
-0.2431016505175243
-0.0707764298975011
0.30464637216753854
-0.31695531649755804
-0.3108008443325483
-0.18771140103251985
-0.1384756237125251
-0.21232928969253104
-0.13232115154751534
-0.06462195773251911
-0.2984919000025288
-0.14463009587750708
-0.13232115154751534
-0.10770326288750408
-0.11385773505251384
-0.2061748175275213
-0.1200122072175236
-0.13232115154751534
-0.15078456804251686
-0.1384756237125251
-0.15078456804251686
-0.11385773505251384
-0.02769512474251612
-0.13232115154751534
0.07693090206251085
-0.16309351237253633
-0.13232115154751534
-0.06462195773251911
-0.08923984639250258
-0.06462195773251911
-0.02769512474251612
-0.2061748175275213
-0.1384756237125251
-0.13232115154751534
-0.16309351237253633
-0.18771140103251985
-0.1938658731975296
-0.1692479845375183
-0.14463009587750708
-0.3108008443325483
-0.32310978866254003
-0.29233742783754685
-0.2800284835075273
-0.3108008443325483
-0.2984919000025288
-0.26156506701252585
-0.2000203453625393
-0.32310978866254003
-0.2246382340225228
-0.2184837618575408
-0.18155692886753785
-0.15078456804251686
-0.1384756237125251
-0.1015487907225221
0.08923984639250258
-0.08923984639250258
-0.15078456804251686
-0.13232115154751534
-0.18155692886753785
0.32310978866254003
1.0431830319676536
0.1261666793825056
-0.901630172172624
-1.2093537804226673
-0.44619923196256844
-0.31695531649755804
-0.2431016505175243
-0.1938658731975296
-0.17540245670252808
-0.16309351237253633
-0.14463009587750708
-0.26156506701252585
-0.15693904020752658
-0.1261666793825056
-0.1261666793825056
-0.13232115154751534
-0.1261666793825056
-0.08923984639250258
-0.05231301340249961
-0.26771953917753555
-0.17540245670252808
-0.16309351237253633
-0.2184837618575408
-0.18771140103251985
-0.1938658731975296
-0.30464637216753854
-0.16309351237253633
-0.29233742783754685
-0.14463009587750708
-0.14463009587750708
-0.1200122072175236
-0.07693090206251085
-0.09539431855751236
-0.07693090206251085
-0.04000406907250786
-0.15693904020752658
-0.09539431855751236
-0.058467485567509365
-0.09539431855751236
-0.1015487907225221
-0.14463009587750708
-0.1384756237125251
-0.2000203453625393
-0.23694717835254234
-0.18771140103251985
-0.2246382340225228
-0.23079270618753256
-0.2184837618575408
-0.2184837618575408
-0.18771140103251985
-0.18155692886753785
-0.2984919000025288
-0.18771140103251985
-0.1692479845375183
-0.16309351237253633
-0.2984919000025288
-0.26771953917753555
-0.18771140103251985
-0.17540245670252808
-0.2984919000025288
-0.1938658731975296
-0.16309351237253633
-0.2000203453625393
-0.02769512474251612
0.35388214948756097
-0.2738740113425453
-0.26156506701252585
-0.23694717835254234
-0.18771140103251985
-0.08923984639250258
-0.2061748175275213
-0.23079270618753256
-0.26156506701252585
-0.2800284835075273
-0.3108008443325483
-0.30464637216753854
-0.2431016505175243
-0.2000203453625393
-0.2184837618575408
-0.2184837618575408
-0.1938658731975296
-0.1692479845375183
-0.18155692886753785
-0.21232928969253104
-0.16309351237253633
-0.32310978866254003
-0.2431016505175243
-0.2000203453625393
-0.34772767732255133
-0.16309351237253633
-0.18771140103251985
-0.26771953917753555
-0.1938658731975296
-0.2061748175275213
-0.2184837618575408
-0.21232928969253104
-0.21232928969253104
-0.2061748175275213
-0.24925612268253405
0.003077236082504875
-0.1015487907225221
-0.24925612268253405
-0.21232928969253104
-0.24925612268253405
-0.24925612268253405
-0.18155692886753785
-0.29233742783754685
-0.2738740113425453
-0.24925612268253405
-0.26771953917753555
-0.2431016505175243
-0.2431016505175243
-0.2184837618575408
-0.2061748175275213
-0.6062155082525723
-0.5631342030975872
-0.28618295567253704
-0.2431016505175243
-0.2246382340225228
-0.2246382340225228
-0.2000203453625393
0.1384756237125251
0.9139391165026156
0.29233742783754685
0.17540245670252808
0.04615854123751762
-0.02769512474251612
-0.08308537422752059
-0.02769512474251612
0.009231708247514623
-1.4432237226927047
-0.7723862567076134
-0.3415732051575415
-0.2554105948475438
-0.21232928969253104
-0.2061748175275213
-0.23694717835254234
-0.2246382340225228
-0.2800284835075273
-0.2431016505175243
-0.2431016505175243
-0.28618295567253704
-0.2800284835075273
-0.26771953917753555
-0.360036621652543
-0.36619109381755277
-0.28618295567253704
-0.24925612268253405
-0.23079270618753256
-0.24925612268253405
-0.2184837618575408
-0.2184837618575408
-0.1938658731975296
-0.18771140103251985
-0.2431016505175243
-0.2061748175275213
-0.23694717835254234
-0.21232928969253104
-0.18771140103251985
0.42158134330255725
0.1015487907225221
-0.24925612268253405
-0.2800284835075273
-0.18155692886753785
-0.2431016505175243
-0.2800284835075273
-0.2554105948475438
-0.23079270618753256
-0.23079270618753256
0.40927239897256545
-0.427735815467567
-0.5446707866025856
-0.2061748175275213
-0.2984919000025288
-0.9939472546476313
-0.6492968134075848
-0.34772767732255133
-0.26771953917753555
-0.3415732051575415
-0.26771953917753555
-0.26156506701252585
-0.2738740113425453
-0.2554105948475438
-0.2246382340225228
-0.2554105948475438
0.396963454642546
1.7140204979527454
-0.18155692886753785
-0.1200122072175236
-0.1261666793825056
-0.2061748175275213
-0.17540245670252808
-0.15693904020752658
-0.6000610360875902
-1.5478497494977315
-0.6923781185625978
-0.396963454642546
-0.28618295567253704
-0.2431016505175243
-0.2184837618575408
-0.18771140103251985
-0.1261666793825056
-0.3354187329925596
-0.2800284835075273
-0.2431016505175243
-0.2800284835075273
-0.26156506701252585
-0.2246382340225228
-0.2061748175275213
-0.10770326288750408
-0.2554105948475438
-0.2554105948475438
-0.24925612268253405
-0.2246382340225228
-0.2738740113425453
-0.30464637216753854
-0.24925612268253405
-0.1015487907225221
-0.2000203453625393
-0.15078456804251686
-0.23079270618753256
-0.15078456804251686
-0.13232115154751534
-0.1015487907225221
-0.1200122072175236
-0.06462195773251911
-0.18155692886753785
-0.17540245670252808
-0.09539431855751236
-0.1261666793825056
-0.2000203453625393
-0.2738740113425453
-0.23079270618753256
-0.15693904020752658
-0.396963454642546
-0.3415732051575415
-0.23079270618753256
-0.2000203453625393
-0.23079270618753256
-0.2554105948475438
-0.2431016505175243
-0.18155692886753785
-0.4154268711375475
0.2246382340225228
1.2462806134126705
-0.3292642608275498
-0.1015487907225221
-0.1200122072175236
-0.1384756237125251
-0.7785407288726233
-1.4062968897027015
-0.5877520917575707
-0.396963454642546
-0.3415732051575415
-0.26156506701252585
-0.2738740113425453
-0.28618295567253704
-0.17540245670252808
-0.3354187329925596
-0.28618295567253704
-0.2738740113425453
-0.2431016505175243
-0.2184837618575408
-0.2000203453625393
-0.11385773505251384
-0.2000203453625393
-0.26156506701252585
-0.17540245670252808
-0.14463009587750708
-0.17540245670252808
-0.1938658731975296
-0.1692479845375183
-0.14463009587750708
-0.09539431855751236
-0.2738740113425453
-0.1692479845375183
-0.15693904020752658
-0.18155692886753785
-0.1384756237125251
-0.15078456804251686
-0.16309351237253633
-0.08308537422752059
-0.28618295567253704
-0.21232928969253104
-0.2000203453625393
-0.1938658731975296
-0.2431016505175243
-0.23079270618753256
-0.17540245670252808
-0.1384756237125251
-0.23694717835254234
-0.2246382340225228
-0.23694717835254234
-0.2184837618575408
-0.21232928969253104
-0.24925612268253405
-0.1938658731975296
-0.1261666793825056
-0.3292642608275498
-0.2431016505175243
-0.21232928969253104
-0.2184837618575408
-0.23079270618753256
-0.16309351237253633
-0.1692479845375183
-0.08308537422752059
-0.2738740113425453
-0.058467485567509365
0.396963454642546
-0.3846545103125543
-0.3108008443325483
-0.17540245670252808
-0.11385773505251384
-0.10770326288750408
-0.18155692886753785
-0.1261666793825056
-0.1261666793825056
-0.13232115154751534
-0.10770326288750408
-0.1200122072175236
-0.10770326288750408
-0.09539431855751236
-0.2061748175275213
-0.07693090206251085
-0.10770326288750408
-0.2000203453625393
-0.1384756237125251
-0.16309351237253633
-0.1200122072175236
-0.1200122072175236
-0.2061748175275213
-0.13232115154751534
-0.14463009587750708
-0.14463009587750708
-0.15693904020752658
-0.14463009587750708
-0.1015487907225221
-0.07693090206251085
-0.17540245670252808
-0.31695531649755804
-0.2431016505175243
-0.1261666793825056
-0.1015487907225221
-0.09539431855751236
-0.11385773505251384
-0.26771953917753555
-0.02769512474251612
-0.04000406907250786
-0.058467485567509365
-0.058467485567509365
-0.05231301340249961
-0.05231301340249961
-0.01538618041249662
0.009231708247514623
0.10770326288750408
-0.033849596907498114
-0.09539431855751236
-0.10770326288750408
-0.1200122072175236
-0.1200122072175236
-0.08308537422752059
-0.1261666793825056
-0.18771140103251985
-0.13232115154751534
-0.13232115154751534
0.40311792680755576
1.1170366979476598
0.13232115154751534
0.18771140103251985
-0.575443147427579
-0.7785407288726233
-0.34772767732255133
