-0.18771140103251985
-0.15078456804251686
-0.11385773505251384
-0.13232115154751534
-0.16309351237253633
-0.11385773505251384
-0.040004069072507864
-0.15078456804251686
-0.1692479845375183
-0.15078456804251686
-0.1384756237125251
-0.12001220721752358
-0.09539431855751236
-0.1015487907225221
-0.18771140103251985
-0.12001220721752358
-0.09539431855751236
-0.09539431855751236
-0.11385773505251384
-0.11385773505251384
-0.07693090206251085
-0.09539431855751236
-0.17540245670252808
-0.15078456804251686
-0.21232928969253104
-0.23079270618753256
-0.24925612268253405
-0.2246382340225228
-0.17540245670252808
-0.16309351237253633
-0.20617481752752131
-0.18155692886753785
-0.16309351237253633
-0.1384756237125251
-0.1384756237125251
-0.13232115154751534
0.15693904020752658
0.3538821494875609
-0.8339309783576276
0.4523537041275505
0.13232115154751534
-0.040004069072507864
-0.08923984639250257
-0.08308537422752059
-0.15078456804251686
-0.6554512855725947
-0.427735815467567
-0.20002034536253932
-0.1692479845375183
-0.15693904020752658
-0.16309351237253633
-0.23079270618753256
-0.21848376185754081
-0.21232928969253104
-0.1692479845375183
-0.1692479845375183
-0.16309351237253633
-0.13232115154751534
-0.14463009587750708
-0.1261666793825056
-0.07693090206251085
-0.18771140103251985
-0.15693904020752658
-0.11385773505251384
-0.13232115154751534
-0.0707764298975011
-0.08308537422752059
-0.1938658731975296
0.4154268711375475
-0.07693090206251085
-0.5939065639225805
-0.2369471783525424
-0.17540245670252808
-0.1938658731975296
-0.1938658731975296
-0.17540245670252808
-0.1015487907225221
-0.18155692886753785
-0.18771140103251985
-0.18155692886753785
-0.1261666793825056
-0.01538618041249662
-0.09539431855751236
-0.1261666793825056
-0.02769512474251612
-0.15693904020752658
-0.1384756237125251
-0.12001220721752358
-0.1261666793825056
-0.1261666793825056
-0.15693904020752658
-0.12001220721752358
-0.05846748556750937
-0.1692479845375183
-0.14463009587750708
-0.13232115154751534
-0.11385773505251384
-0.11385773505251384
-0.14463009587750708
-0.28618295567253704
-0.8154675618626261
0.0707764298975011
0.23079270618753256
-0.08923984639250257
-0.11385773505251384
-0.10770326288750408
-0.15693904020752658
-0.15078456804251686
-0.08923984639250257
-0.2246382340225228
-0.2246382340225228
0.009231708247514623
0.7354594237176102
-0.30464637216753854
-0.13232115154751534
-0.11385773505251384
-0.360036621652543
-0.8154675618626261
-0.4523537041275505
-0.31695531649755804
-0.21848376185754081
-0.16309351237253633
-0.1692479845375183
-0.18155692886753785
-0.1384756237125251
-0.1261666793825056
-0.04615854123751762
-0.16309351237253633
-0.1261666793825056
-0.14463009587750708
-0.17540245670252808
-0.16309351237253633
-0.09539431855751236
-0.20002034536253932
-0.17540245670252808
-0.18155692886753785
-0.16309351237253633
-0.14463009587750708
-0.11385773505251384
-0.15693904020752658
-0.1261666793825056
-0.20617481752752131
-0.18771140103251985
-0.1692479845375183
-0.12001220721752358
-0.11385773505251384
-0.13232115154751534
-0.1261666793825056
-0.1015487907225221
-0.23079270618753256
-0.12001220721752358
-0.09539431855751236
-0.15078456804251686
-0.13232115154751534
-0.15693904020752658
-0.0707764298975011
-0.08923984639250257
-0.21232928969253104
-0.17540245670252808
-0.14463009587750708
-0.16309351237253633
-0.15078456804251686
-0.1261666793825056
-0.10770326288750408
-0.05231301340249961
-0.15693904020752658
-0.1261666793825056
-0.09539431855751236
-0.1015487907225221
-0.1015487907225221
-0.09539431855751236
-0.08923984639250257
-0.033849596907498114
-0.11385773505251384
-0.26156506701252585
-0.8647033391826209
0.23079270618753256
0.2554105948475438
-0.02769512474251612
-0.09539431855751236
-0.08308537422752059
-0.12001220721752358
-0.1015487907225221
-0.14463009587750708
-0.10770326288750408
-0.08923984639250257
-0.1384756237125251
-0.0707764298975011
-0.040004069072507864
-0.15078456804251686
-0.11385773505251384
-0.09539431855751236
-0.12001220721752358
-0.11385773505251384
-0.1384756237125251
-0.11385773505251384
-0.10770326288750408
-0.16309351237253633
-0.20617481752752131
-0.11385773505251384
-0.040004069072507864
-0.23079270618753256
-0.1692479845375183
-0.08308537422752059
-0.08923984639250257
-0.13232115154751534
-0.10770326288750408
-0.1261666793825056
-0.1261666793825056
-0.12001220721752358
-0.1692479845375183
-0.10770326288750408
-0.08923984639250257
-0.16309351237253633
-0.1384756237125251
-0.14463009587750708
-0.2246382340225228
-0.15078456804251686
-0.1384756237125251
-0.10770326288750408
-0.13232115154751534
-0.1692479845375183
-0.13232115154751534
-0.13232115154751534
-0.1261666793825056
-0.12001220721752358
-0.10770326288750408
-0.09539431855751236
-0.20002034536253932
-0.14463009587750708
-0.08923984639250257
-0.20617481752752131
-0.15693904020752658
0.1938658731975296
0.7046870628925892
-0.3538821494875609
-0.7108415350575992
-0.5138984257775646
-0.2800284835075273
-0.18771140103251985
-0.1261666793825056
-0.15078456804251686
-0.15078456804251686
-0.14463009587750708
-0.1692479845375183
-0.07693090206251085
-0.1261666793825056
-0.11385773505251384
-0.13232115154751534
-0.1261666793825056
-0.14463009587750708
-0.1015487907225221
-0.20617481752752131
-0.14463009587750708
-0.1261666793825056
-0.1261666793825056
-0.15078456804251686
-0.1692479845375183
-0.17540245670252808
0.003077236082504875
-0.1384756237125251
-0.18771140103251985
-0.11385773505251384
-0.11385773505251384
-0.12001220721752358
-0.1261666793825056
-0.08923984639250257
0.003077236082504875
-0.15078456804251686
-0.16309351237253633
-0.16309351237253633
-0.15693904020752658
-0.11385773505251384
-0.1384756237125251
-0.13232115154751534
-0.009231708247514623
-0.14463009587750708
-0.21232928969253104
-0.14463009587750708
-0.11385773505251384
-0.17540245670252808
-0.1938658731975296
-0.15693904020752658
-0.05231301340249961
-0.1938658731975296
-0.1692479845375183
-0.16309351237253633
-0.14463009587750708
-0.14463009587750708
-0.15693904020752658
-0.10770326288750408
-0.04615854123751762
-0.24925612268253405
-0.20002034536253932
-0.14463009587750708
-0.1384756237125251
-0.3723455659825625
-1.1601180031026725
0.2984919000025288
0.36619109381755277
-0.009231708247514623
0.009231708247514623
0.10770326288750408
-0.20617481752752131
-0.13232115154751534
-0.12001220721752358
-0.11385773505251384
-0.1015487907225221
-0.28618295567253704
-0.2246382340225228
-0.23079270618753256
-0.17540245670252808
-0.1384756237125251
-0.1384756237125251
-0.12001220721752358
-0.06462195773251911
-0.18155692886753785
-0.17540245670252808
-0.15693904020752658
-0.05846748556750937
-0.1261666793825056
-0.15078456804251686
-0.11385773505251384
-0.11385773505251384
-0.23079270618753256
-0.15693904020752658
-0.18155692886753785
-0.18155692886753785
-0.16309351237253633
-0.1384756237125251
-0.1015487907225221
-0.05846748556750937
-0.24925612268253405
-0.20002034536253932
0.21232928969253104
0.433890287632549
0.040004069072507864
-0.08923984639250257
-0.0707764298975011
-0.30464637216753854
-0.12001220721752358
-0.04615854123751762
-0.1015487907225221
-0.11385773505251384
0.1384756237125251
-0.1384756237125251
-0.17540245670252808
-0.12001220721752358
-0.16309351237253633
-0.5015894814475731
-0.7231504793875909
-0.3108008443325483
-0.20617481752752131
-0.18771140103251985
-0.040004069072507864
1.2770529742376913
0.18771140103251985
-0.8585488670176111
-0.29233742783754685
-0.1692479845375183
-0.17540245670252808
-0.15078456804251686
-0.18155692886753785
-0.6739147020675963
-0.6000610360875902
-0.28618295567253704
-0.1938658731975296
-0.2246382340225228
-0.21232928969253104
-0.18155692886753785
-0.1938658731975296
-0.20002034536253932
-0.21232928969253104
-0.1692479845375183
-0.17540245670252808
-0.1938658731975296
-0.1692479845375183
-0.18155692886753785
-0.10770326288750408
0.1938658731975296
0.02154065257750637
-0.1015487907225221
-0.16309351237253633
-0.1384756237125251
-0.18155692886753785
-0.1692479845375183
-0.09539431855751236
-0.18771140103251985
-0.21232928969253104
-0.15078456804251686
-0.15078456804251686
-0.16309351237253633
-0.21848376185754081
-0.24925612268253405
-0.5138984257775646
-0.4892805371175811
-0.3538821494875609
-0.20617481752752131
-0.21232928969253104
-0.21232928969253104
-0.20617481752752131
-0.2554105948475438
-0.17540245670252808
-0.21848376185754081
-0.21848376185754081
-0.1692479845375183
-0.1384756237125251
-0.20617481752752131
-0.15078456804251686
0.033849596907498114
0.40311792680755576
-0.10770326288750408
-0.5262073701075842
-0.26156506701252585
-0.1692479845375183
-0.16309351237253633
-0.15693904020752658
-0.12001220721752358
-0.21848376185754081
-0.9447114773276367
0.09539431855751236
0.2431016505175243
-0.13232115154751534
-0.16309351237253633
-0.08923984639250257
-0.1692479845375183
-0.10770326288750408
-0.15693904020752658
-0.17540245670252808
-0.1692479845375183
-0.1384756237125251
-0.17540245670252808
-0.17540245670252808
-0.1692479845375183
-0.13232115154751534
-0.2369471783525424
-0.14463009587750708
-0.2246382340225228
-0.18155692886753785
-0.15078456804251686
-0.17540245670252808
-0.15078456804251686
-0.08308537422752059
-0.21848376185754081
-0.14463009587750708
-0.09539431855751236
-0.14463009587750708
-0.15078456804251686
-0.1692479845375183
-0.14463009587750708
-0.07693090206251085
-0.21848376185754081
-0.17540245670252808
-0.09539431855751236
-0.1261666793825056
-0.10770326288750408
-0.15078456804251686
-0.1692479845375183
-0.06462195773251911
-0.15078456804251686
-0.1938658731975296
-0.18155692886753785
-0.18155692886753785
-0.20617481752752131
-0.20617481752752131
-0.1938658731975296
-0.08923984639250257
-0.24925612268253405
-0.23079270618753256
-0.29233742783754685
-0.26156506701252585
-0.24925612268253405
-0.1938658731975296
-0.16309351237253633
-0.11385773505251384
-0.26156506701252585
-0.2246382340225228
0.16309351237253633
0.8831667556776225
-0.37850003814754446
-0.21232928969253104
-0.15078456804251686
-0.4831260649525715
-0.6739147020675963
-0.4092723989725655
-0.32310978866254003
-0.2431016505175243
-0.2431016505175243
-0.24925612268253405
-0.1938658731975296
-0.12001220721752358
-0.28618295567253704
-0.26156506701252585
-0.23079270618753256
-0.20002034536253932
-0.20617481752752131
-0.20002034536253932
-0.20002034536253932
-0.05231301340249961
-0.3538821494875609
-0.2984919000025288
-0.21848376185754081
-0.20617481752752131
-0.23079270618753256
-0.2246382340225228
-0.17540245670252808
-0.15078456804251686
-0.23079270618753256
-0.20617481752752131
-0.1692479845375183
-0.18771140103251985
-0.20617481752752131
-0.20617481752752131
-0.12001220721752358
-0.040004069072507864
-0.21848376185754081
-0.17540245670252808
-0.1384756237125251
-0.15078456804251686
-0.18155692886753785
-0.1692479845375183
-0.15693904020752658
-0.15078456804251686
-0.21848376185754081
-0.18155692886753785
-0.18771140103251985
-0.16309351237253633
-0.15078456804251686
-0.24925612268253405
-0.4708171206225797
-0.2246382340225228
-0.2246382340225228
-0.1938658731975296
-0.18155692886753785
-0.18155692886753785
-0.21232928969253104
-0.21232928969253104
-0.17540245670252808
-0.17540245670252808
-0.23079270618753256
-0.36619109381755277
-0.9447114773276367
0.16309351237253633
0.3415732051575415
0.04615854123751762
-0.05846748556750937
-0.11385773505251384
-0.1938658731975296
-0.17540245670252808
-0.18155692886753785
-0.21232928969253104
-0.21232928969253104
-0.18771140103251985
-0.13232115154751534
-0.1261666793825056
-0.18771140103251985
-0.20002034536253932
-0.15693904020752658
-0.13232115154751534
-0.20617481752752131
-0.23079270618753256
-0.15078456804251686
-0.17540245670252808
-0.23079270618753256
-0.20002034536253932
-0.1938658731975296
-0.16309351237253633
-0.18155692886753785
-0.20002034536253932
-0.09539431855751236
-0.17540245670252808
-0.26771953917753555
-0.14463009587750708
-0.08923984639250257
-0.17540245670252808
-0.13232115154751534
-0.15078456804251686
-0.14463009587750708
-0.18771140103251985
-0.1692479845375183
-0.16309351237253633
-0.12001220721752358
-0.15078456804251686
-0.1692479845375183
-0.15693904020752658
-0.1384756237125251
-0.26771953917753555
-0.21232928969253104
-0.05231301340249961
-0.11385773505251384
-0.18155692886753785
-0.20002034536253932
-0.21232928969253104
-0.15078456804251686
-0.21232928969253104
-0.1692479845375183
-0.1692479845375183
-0.16309351237253633
-0.1692479845375183
0.15078456804251686
0.7293049515526008
-0.4585081762925601
-0.8154675618626261
-0.5446707866025856
-0.3538821494875609
-0.2554105948475438
-0.18771140103251985
-0.17540245670252808
-0.16309351237253633
-0.05846748556750937
-0.21232928969253104
-0.15693904020752658
-0.15078456804251686
-0.1384756237125251
-0.15078456804251686
-0.16309351237253633
-0.20617481752752131
-0.02769512474251612
0.16309351237253633
-0.033849596907498114
-0.1261666793825056
-0.13232115154751534
-0.13232115154751534
-0.15693904020752658
-0.15693904020752658
-0.04615854123751762
-0.16309351237253633
-0.18155692886753785
-0.15078456804251686
-0.1384756237125251
-0.14463009587750708
-0.18155692886753785
-0.08308537422752059
0.2984919000025288
-0.0707764298975011
-0.15693904020752658
-0.1261666793825056
-0.1261666793825056
-0.09539431855751236
-0.1015487907225221
-0.12001220721752358
-0.04615854123751762
-0.21232928969253104
-0.15693904020752658
-0.12001220721752358
-0.16309351237253633
-0.15693904020752658
-0.4400447597975588
-0.8277765061926179
-0.3538821494875609
-0.2984919000025288
-0.2431016505175243
-0.1938658731975296
-0.17540245670252808
-0.15693904020752658
-0.1384756237125251
-0.15078456804251686
-0.11385773505251384
-0.23079270618753256
-0.17540245670252808
-0.17540245670252808
-0.1938658731975296
-0.17540245670252808
-0.8462399226876194
0.18771140103251985
0.26771953917753555
-0.12001220721752358
-0.1938658731975296
-0.18155692886753785
-0.15078456804251686
-0.18771140103251985
-0.1692479845375183
-0.10770326288750408
0.8523943948526291
-0.1692479845375183
-0.2738740113425453
-0.1692479845375183
-0.11385773505251384
-0.08923984639250257
-0.13232115154751534
-0.15078456804251686
-0.5877520917575707
-0.7046870628925892
-0.31695531649755804
-0.2246382340225228
-0.20617481752752131
-0.18771140103251985
-0.20002034536253932
-0.20002034536253932
-0.18771140103251985
-0.2369471783525424
-0.15693904020752658
-0.15693904020752658
-0.15693904020752658
-0.14463009587750708
-0.1261666793825056
-0.10770326288750408
-0.11385773505251384
-0.20617481752752131
-0.17540245670252808
-0.20002034536253932
-0.15693904020752658
-0.13232115154751534
-0.16309351237253633
-0.15693904020752658
-0.15693904020752658
-0.18155692886753785
-0.14463009587750708
-0.18771140103251985
-0.17540245670252808
-0.1384756237125251
-0.06462195773251911
-0.12001220721752358
-0.12001220721752358
-0.1938658731975296
-0.18771140103251985
-0.17540245670252808
-0.1692479845375183
-0.15078456804251686
-0.15078456804251686
-0.1384756237125251
0.23079270618753256
0.9508659494926462
-0.37850003814754446
-0.18155692886753785
-0.11385773505251384
-0.1261666793825056
-0.09539431855751236
-0.18155692886753785
-0.7539228402126119
-0.5262073701075842
-0.2369471783525424
-0.18155692886753785
-0.18771140103251985
-0.17540245670252808
-0.1938658731975296
-0.10770326288750408
-0.21848376185754081
-0.2800284835075273
-0.18771140103251985
-0.12001220721752358
-0.12001220721752358
-0.10770326288750408
-0.10770326288750408
-0.05846748556750937
-0.1384756237125251
-0.15693904020752658
-0.08923984639250257
-0.1015487907225221
-0.14463009587750708
-0.18771140103251985
-0.10770326288750408
0.37850003814754446
-0.13232115154751534
-0.5262073701075842
-0.28618295567253704
-0.20002034536253932
-0.1692479845375183
-0.1261666793825056
-0.08308537422752059
-0.05231301340249961
-0.14463009587750708
-0.11385773505251384
-0.13232115154751534
-0.11385773505251384
-0.13232115154751534
-0.0707764298975011
-0.01538618041249662
-0.040004069072507864
-0.13232115154751534
-0.15693904020752658
-0.1384756237125251
-0.13232115154751534
-0.09539431855751236
-0.1261666793825056
-0.1261666793825056
-0.02769512474251612
-0.21848376185754081
-0.18771140103251985
-0.15078456804251686
-0.1692479845375183
-0.07693090206251085
-0.07693090206251085
-0.11385773505251384
-0.1938658731975296
-0.9077846443376336
0.18771140103251985
0.23079270618753256
-0.0707764298975011
-0.15693904020752658
-0.15078456804251686
-0.12001220721752358
-0.003077236082504875
-0.17540245670252808
-0.20002034536253932
-0.18155692886753785
-0.1384756237125251
-0.1261666793825056
-0.07693090206251085
-0.08308537422752059
-0.04615854123751762
-0.17540245670252808
-0.18771140103251985
-0.14463009587750708
-0.09539431855751236
-0.1261666793825056
-0.15078456804251686
-0.16309351237253633
-0.05231301340249961
-0.16309351237253633
-0.17540245670252808
-0.1384756237125251
-0.1261666793825056
-0.16309351237253633
-0.17540245670252808
-0.13232115154751534
-0.040004069072507864
-0.16309351237253633
-0.11385773505251384
-0.13232115154751534
-0.18771140103251985
-0.17540245670252808
-0.18155692886753785
-0.15693904020752658
-0.09539431855751236
-0.2738740113425453
-0.1384756237125251
-0.18771140103251985
-0.15078456804251686
-0.1261666793825056
-0.13232115154751534
-0.1015487907225221
-0.04615854123751762
-0.17540245670252808
-0.1384756237125251
-0.07693090206251085
-0.09539431855751236
-0.1261666793825056
-0.13232115154751534
-0.10770326288750408
-0.07693090206251085
-0.2369471783525424
-0.18155692886753785
0.2246382340225228
0.9570204216576284
-0.360036621652543
-0.1261666793825056
-0.0707764298975011
-0.49543500928256323
-0.6308333969125834
-0.29233742783754685
-0.20002034536253932
-0.1384756237125251
-0.1261666793825056
-0.11385773505251384
-0.1015487907225221
0.37850003814754446
0.42158134330255725
0.1015487907225221
-0.01538618041249662
-0.08308537422752059
-0.05846748556750937
-0.04615854123751762
-0.08308537422752059
-0.09539431855751236
-0.15693904020752658
-0.1261666793825056
-0.0707764298975011
-0.11385773505251384
-0.15078456804251686
-0.1384756237125251
-0.5200528979425745
-0.5692886752625692
-0.31695531649755804
-0.21848376185754081
-0.20617481752752131
-0.20617481752752131
-0.1938658731975296
-0.1692479845375183
-0.15078456804251686
-0.16309351237253633
-0.21848376185754081
-0.21848376185754081
-0.1938658731975296
-0.21232928969253104
-0.18155692886753785
-0.20002034536253932
-0.33541873299255964
-0.23079270618753256
-0.2246382340225228
-0.17540245670252808
-0.20002034536253932
-0.1938658731975296
-0.1938658731975296
-0.15693904020752658
-0.10770326288750408
-0.16309351237253633
-0.20617481752752131
-0.17540245670252808
-0.18771140103251985
-0.15693904020752658
-0.01538618041249662
-0.0707764298975011
-0.07693090206251085
-0.17540245670252808
-0.2246382340225228
-0.3415732051575415
-0.9262480608326351
0.14463009587750708
0.1938658731975296
-0.1261666793825056
-0.15693904020752658
-0.18771140103251985
-0.20617481752752131
-0.24925612268253405
-0.2246382340225228
-0.1938658731975296
-0.1938658731975296
-0.18155692886753785
-0.1692479845375183
-0.26156506701252585
-0.20617481752752131
-0.15693904020752658
-0.1692479845375183
-0.21848376185754081
-0.1938658731975296
-0.1938658731975296
-0.1692479845375183
-0.26156506701252585
-0.2800284835075273
-0.1938658731975296
-0.12001220721752358
-0.20617481752752131
-0.21848376185754081
-0.23079270618753256
-0.1692479845375183
-0.26156506701252585
-0.24925612268253405
-0.29233742783754685
-0.2800284835075273
-0.2554105948475438
-0.24925612268253405
-0.21848376185754081
-0.15078456804251686
-0.31695531649755804
-0.2738740113425453
-0.15078456804251686
-0.17540245670252808
-0.16309351237253633
-0.17540245670252808
-0.17540245670252808
-0.1015487907225221
-0.21848376185754081
-0.18771140103251985
-0.18155692886753785
-0.1692479845375183
-0.15693904020752658
-0.16309351237253633
-0.11385773505251384
0.003077236082504875
-0.1384756237125251
-0.15078456804251686
-0.09539431855751236
-0.13232115154751534
-0.10770326288750408
0.0707764298975011
0.8400854505226096
-0.37850003814754446
-0.7723862567076134
-0.3538821494875609
-0.1692479845375183
-0.16309351237253633
-0.1384756237125251
-0.12001220721752358
-0.1384756237125251
-0.08308537422752059
-0.28618295567253704
-0.23079270618753256
-0.17540245670252808
-0.16309351237253633
-0.17540245670252808
-0.17540245670252808
-0.16309351237253633
-0.06462195773251911
-0.20617481752752131
-0.1938658731975296
-0.1938658731975296
-0.18155692886753785
-0.17540245670252808
-0.17540245670252808
-0.11385773505251384
0.6677602299025862
-0.7539228402126119
-0.003077236082504875
0.390808982477564
0.01538618041249662
-0.10770326288750408
-0.08923984639250257
-0.05846748556750937
-0.427735815467567
-0.7293049515526008
-0.3292642608275498
-0.18771140103251985
-0.1261666793825056
-0.15693904020752658
-0.15693904020752658
-0.1938658731975296
-0.1384756237125251
-0.21848376185754081
-0.14463009587750708
-0.14463009587750708
-0.15078456804251686
-0.14463009587750708
-0.12001220721752358
-0.1015487907225221
-0.08308537422752059
-0.15693904020752658
-0.15078456804251686
-0.15078456804251686
-0.14463009587750708
-0.06462195773251911
-0.09539431855751236
-0.1015487907225221
-0.05231301340249961
-0.1692479845375183
-0.15078456804251686
-0.13232115154751534
-0.11385773505251384
-0.12001220721752358
-0.1384756237125251
-0.10770326288750408
-0.09539431855751236
-0.1692479845375183
-0.17540245670252808
-0.1384756237125251
-0.0707764298975011
-0.08308537422752059
-0.08308537422752059
-0.09539431855751236
-0.11385773505251384
-0.15078456804251686
-0.11385773505251384
-0.15078456804251686
-0.14463009587750708
-0.15693904020752658
-0.15078456804251686
-0.10770326288750408
-0.10770326288750408
-0.20002034536253932
-0.15693904020752658
-0.1384756237125251
-0.17540245670252808
-0.15693904020752658
-0.18771140103251985
-0.5815976195925888
-0.6000610360875902
0.3846545103125543
0.05231301340249961
-0.09539431855751236
-0.10770326288750408
-0.1692479845375183
-0.14463009587750708
-0.08923984639250257
-0.1261666793825056
-0.1692479845375183
-0.11385773505251384
-0.21232928969253104
-0.14463009587750708
-0.1384756237125251
-0.16309351237253633
-0.1384756237125251
-0.15693904020752658
-0.21848376185754081
-0.16309351237253633
-0.17540245670252808
-0.1384756237125251
-0.1692479845375183
-0.15693904020752658
-0.12001220721752358
-0.1692479845375183
-0.2431016505175243
-0.20002034536253932
-0.14463009587750708
-0.16309351237253633
-0.1692479845375183
-0.18155692886753785
-0.15078456804251686
0.17540245670252808
0.9139391165026156
-0.4154268711375475
-0.17540245670252808
-0.0707764298975011
-0.1015487907225221
-0.1692479845375183
-0.1384756237125251
-0.5077439536125827
-0.42158134330255725
-0.20002034536253932
-0.1692479845375183
-0.13232115154751534
-0.11385773505251384
-0.1384756237125251
-0.08308537422752059
-0.17540245670252808
-0.2246382340225228
-0.20002034536253932
-0.18771140103251985
-0.1692479845375183
-0.15078456804251686
-0.08308537422752059
-0.0707764298975011
-0.21848376185754081
-0.17540245670252808
-0.17540245670252808
-0.1692479845375183
-0.1692479845375183
-0.15693904020752658
-0.14463009587750708
-0.11385773505251384
-0.2246382340225228
-0.18771140103251985
-0.13232115154751534
-0.15078456804251686
-0.18771140103251985
0.05231301340249961
0.36619109381755277
0.14463009587750708
-0.09539431855751236
-0.12001220721752358
-0.1015487907225221
-0.1015487907225221
-0.1384756237125251
-0.1384756237125251
-0.1384756237125251
-0.08308537422752059
-0.21848376185754081
-0.15693904020752658
-0.15078456804251686
-0.16309351237253633
-0.33541873299255964
-0.6800691742326057
-0.3538821494875609
-0.1384756237125251
-0.2431016505175243
-0.20002034536253932
-0.15693904020752658
-0.16309351237253633
-0.15078456804251686
-0.15693904020752658
-0.13232115154751534
-0.1938658731975296
-0.9385570051626267
0.17540245670252808
0.17540245670252808
-0.05846748556750937
-0.10770326288750408
-0.1384756237125251
-0.1384756237125251
-0.10770326288750408
-0.24925612268253405
-0.20002034536253932
-0.18155692886753785
-0.18771140103251985
-0.20617481752752131
-0.18155692886753785
-0.1384756237125251
-0.10770326288750408
-0.2800284835075273
-0.24925612268253405
-0.21232928969253104
-0.23079270618753256
-0.1938658731975296
-0.21232928969253104
-0.17540245670252808
-0.11385773505251384
-0.2369471783525424
-0.20002034536253932
-0.21848376185754081
-0.21232928969253104
-0.17540245670252808
-0.1692479845375183
-0.16309351237253633
-0.13232115154751534
-0.21848376185754081
-0.18155692886753785
-0.15693904020752658
-0.1938658731975296
-0.21232928969253104
-0.20002034536253932
-0.18155692886753785
-0.11385773505251384
-0.20002034536253932
-0.21232928969253104
-0.18771140103251985
-0.15078456804251686
-0.18155692886753785
-0.15693904020752658
-0.15693904020752658
-0.1261666793825056
-0.2246382340225228
-0.20002034536253932
-0.1938658731975296
-0.17540245670252808
-0.1692479845375183
-0.15693904020752658
-0.18155692886753785
-0.16309351237253633
-0.20002034536253932
-0.16309351237253633
0.17540245670252808
0.7539228402126119
-0.26771953917753555
-0.1261666793825056
-0.13232115154751534
-0.5815976195925888
-0.6185244525825918
-0.3108008443325483
-0.21848376185754081
-0.20002034536253932
-0.18155692886753785
-0.13232115154751534
-0.09539431855751236
-0.20002034536253932
-0.1938658731975296
-0.12001220721752358
-0.13232115154751534
-0.1261666793825056
-0.18771140103251985
-0.15078456804251686
-0.02154065257750637
-0.06462195773251911
-0.13232115154751534
-0.1384756237125251
-0.16309351237253633
-0.15078456804251686
-0.14463009587750708
-0.1692479845375183
-0.1384756237125251
-0.1261666793825056
-0.18155692886753785
-0.15078456804251686
-0.1384756237125251
-0.15693904020752658
-0.14463009587750708
-0.2369471783525424
-0.2246382340225228
-0.16309351237253633
-0.14463009587750708
-0.12001220721752358
-0.09539431855751236
-0.12001220721752358
-0.13232115154751534
-0.07693090206251085
-0.02769512474251612
-0.08308537422752059
-0.1384756237125251
-0.15693904020752658
-0.18155692886753785
-0.08923984639250257
-0.009231708247514623
-0.10770326288750408
-0.1015487907225221
-0.15078456804251686
-0.1261666793825056
-0.1384756237125251
-0.16309351237253633
-0.15693904020752658
-0.0707764298975011
0.05231301340249961
0.5077439536125827
-0.1015487907225221
-0.5200528979425745
-0.427735815467567
-0.8523943948526291
0.5323618422725662
0.33541873299255964
-0.05231301340249961
-0.09539431855751236
-0.13232115154751534
-0.15693904020752658
-0.14463009587750708
-0.1384756237125251
-0.18155692886753785
-0.20002034536253932
-0.13232115154751534
-0.040004069072507864
-0.21232928969253104
-0.2246382340225228
-0.2554105948475438
-0.2431016505175243
-0.14463009587750708
-0.14463009587750708
-0.18771140103251985
-0.1015487907225221
-0.1938658731975296
-0.18155692886753785
-0.15693904020752658
-0.1261666793825056
-0.18155692886753785
-0.14463009587750708
-0.14463009587750708
-0.0707764298975011
-0.18771140103251985
-0.23079270618753256
-0.2369471783525424
-0.17540245670252808
-0.18771140103251985
-0.15693904020752658
-0.09539431855751236
0.5508252587675677
0.5877520917575707
-0.3415732051575415
-0.14463009587750708
-0.14463009587750708
-0.08923984639250257
-0.08923984639250257
-0.1261666793825056
-0.33541873299255964
-0.8031586175326066
-0.4892805371175811
-0.2984919000025288
-0.1015487907225221
-0.07693090206251085
-0.16309351237253633
-0.16309351237253633
-0.11385773505251384
-0.2431016505175243
-0.18155692886753785
-0.18155692886753785
-0.18771140103251985
-0.21848376185754081
0.14463009587750708
0.7231504793875909
-0.4831260649525715
-0.7293049515526008
-0.37850003814754446
-0.24925612268253405
-0.1938658731975296
-0.20002034536253932
-0.20002034536253932
-0.16309351237253633
-0.1261666793825056
-0.2738740113425453
-0.23079270618753256
-0.20617481752752131
-0.21232928969253104
-0.2369471783525424
-0.24925612268253405
-0.24925612268253405
-0.21232928969253104
-0.2800284835075273
-0.21848376185754081
-0.2369471783525424
-0.2369471783525424
-0.2369471783525424
-0.24925612268253405
-0.23079270618753256
-0.16309351237253633
-0.2800284835075273
-0.2738740113425453
-0.26156506701252585
-0.2738740113425453
-0.24925612268253405
-0.20002034536253932
-0.18155692886753785
-0.20002034536253932
-0.2738740113425453
-0.21232928969253104
-0.23079270618753256
-0.21232928969253104
-0.20002034536253932
-0.23079270618753256
-0.21848376185754081
-0.1938658731975296
-0.30464637216753854
-0.23079270618753256
-0.2431016505175243
-0.2431016505175243
0.30464637216753854
0.2554105948475438
-0.033849596907498114
-0.1015487907225221
-0.20002034536253932
-0.15693904020752658
0.01538618041249662
0.12001220721752358
-0.09539431855751236
-0.1384756237125251
-0.15693904020752658
-0.13232115154751534
-0.2246382340225228
-0.18771140103251985
-0.18771140103251985
-0.7354594237176102
-0.7970041453676248
-1.0801098649576568
0.0707764298975011
0.12001220721752358
-0.2246382340225228
-0.26156506701252585
-0.26156506701252585
-0.26156506701252585
-0.23079270618753256
-0.23079270618753256
-0.20002034536253932
-0.17540245670252808
-0.2246382340225228
-0.1692479845375183
-0.0707764298975011
-0.1692479845375183
-0.1938658731975296
-0.21232928969253104
-0.16309351237253633
-0.17540245670252808
-0.24925612268253405
-0.2369471783525424
-0.20002034536253932
-0.23079270618753256
-0.20617481752752131
-0.2369471783525424
-0.20002034536253932
-0.28618295567253704
-0.30464637216753854
-0.26156506701252585
-0.30464637216753854
-0.26156506701252585
-0.2431016505175243
-0.2738740113425453
-0.26156506701252585
-0.30464637216753854
-0.2800284835075273
-0.23079270618753256
-0.2554105948475438
-0.2738740113425453
-0.29233742783754685
-0.26156506701252585
-0.21232928969253104
-0.26771953917753555
-0.42158134330255725
-0.433890287632549
-0.1692479845375183
-0.1384756237125251
-0.24925612268253405
-0.2246382340225228
-0.1015487907225221
-0.24925612268253405
-0.23079270618753256
-0.2738740113425453
-0.26771953917753555
-0.2431016505175243
-0.28618295567253704
-0.30464637216753854
0.0707764298975011
0.7477683680476023
0.8647033391826209
-0.31695531649755804
-0.1692479845375183
-0.16309351237253633
-0.16309351237253633
-0.17540245670252808
-0.3108008443325483
-0.8339309783576276
-0.4892805371175811
-0.28618295567253704
-0.20002034536253932
-0.15078456804251686
-0.18771140103251985
-0.4154268711375475
-0.575443147427579
-0.360036621652543
-0.30464637216753854
-0.2431016505175243
-0.20617481752752131
-0.21232928969253104
-0.2369471783525424
-0.2246382340225228
-0.18155692886753785
-0.2984919000025288
-0.040004069072507864
-0.08308537422752059
-0.2431016505175243
-0.14463009587750708
-0.14463009587750708
-0.1261666793825056
-0.12001220721752358
-0.26771953917753555
-0.18771140103251985
-0.2246382340225228
-0.2246382340225228
-0.20002034536253932
-0.20617481752752131
-0.21232928969253104
-0.15693904020752658
-0.16309351237253633
-0.04615854123751762
-0.14463009587750708
-0.14463009587750708
-0.1384756237125251
-0.20002034536253932
-0.18155692886753785
-0.1015487907225221
-0.26156506701252585
-0.2369471783525424
-0.0707764298975011
-0.040004069072507864
-0.15078456804251686
-0.20617481752752131
-0.18155692886753785
-0.10770326288750408
-0.2246382340225228
-0.14463009587750708
-0.06462195773251911
-0.09539431855751236
-0.10770326288750408
-0.12001220721752358
-0.15693904020752658
-0.2800284835075273
-0.9631748938226381
0.12001220721752358
0.1384756237125251
-0.10770326288750408
-0.15693904020752658
-0.20617481752752131
-0.21848376185754081
-0.15693904020752658
-0.24925612268253405
-0.20617481752752131
-0.23079270618753256
-0.23079270618753256
-0.16309351237253633
-0.20002034536253932
-0.09539431855751236
0.04615854123751762
-0.13232115154751534
-0.05231301340249961
-0.1261666793825056
-0.18155692886753785
-0.17540245670252808
-0.20617481752752131
-0.20002034536253932
-0.15693904020752658
-0.14463009587750708
-0.08308537422752059
-0.26156506701252585
-0.24925612268253405
-0.24925612268253405
-0.08308537422752059
-0.1015487907225221
-0.15078456804251686
-0.2431016505175243
-0.18771140103251985
-0.16309351237253633
-0.14463009587750708
-0.1384756237125251
-0.1384756237125251
-0.1015487907225221
-0.14463009587750708
-0.1384756237125251
-0.15693904020752658
-0.21848376185754081
-0.24925612268253405
-0.21848376185754081
-0.1384756237125251
-0.12001220721752358
-0.18771140103251985
-0.30464637216753854
-0.26771953917753555
-0.2431016505175243
-0.21232928969253104
-0.18771140103251985
-0.2246382340225228
-0.09539431855751236
-0.01538618041249662
-0.21848376185754081
-0.1938658731975296
0.15078456804251686
0.9324025329976448
-0.396963454642546
-0.18771140103251985
-0.15693904020752658
-0.6923781185625978
-0.5631342030975872
-0.2984919000025288
-0.12001220721752358
-0.1015487907225221
-0.1692479845375183
-0.18155692886753785
-0.15078456804251686
-0.20002034536253932
-0.15693904020752658
-0.040004069072507864
0.02154065257750637
-0.08923984639250257
-0.20002034536253932
-0.1692479845375183
-0.1015487907225221
-0.12001220721752358
-0.16309351237253633
-0.20002034536253932
-0.16309351237253633
-0.15078456804251686
-0.11385773505251384
-0.14463009587750708
-0.18771140103251985
-0.21232928969253104
-0.21232928969253104
-0.21848376185754081
-0.06462195773251911
-0.08923984639250257
-0.18771140103251985
-0.21232928969253104
0.396963454642546
-0.10770326288750408
-0.40311792680755576
-0.05231301340249961
-0.1384756237125251
-0.08923984639250257
0.16309351237253633
-0.02154065257750637
-0.06462195773251911
-0.1692479845375183
-0.16309351237253633
-0.17540245670252808
-0.16309351237253633
-0.02154065257750637
0.05231301340249961
-0.1261666793825056
0.28618295567253704
-0.003077236082504875
-0.5631342030975872
0.4585081762925601
0.08308537422752059
-0.1261666793825056
-0.05846748556750937
-0.05231301340249961
-0.2554105948475438
-0.8585488670176111
-0.4708171206225797
-0.23079270618753256
-0.21848376185754081
-0.2369471783525424
-0.1938658731975296
-0.15693904020752658
-0.033849596907498114
-0.11385773505251384
-0.18771140103251985
-0.13232115154751534
-0.21848376185754081
-0.20002034536253932
-0.18155692886753785
-0.17540245670252808
-0.08308537422752059
-0.14463009587750708
-0.08923984639250257
-0.033849596907498114
-0.05846748556750937
-0.1015487907225221
-0.15078456804251686
-0.16309351237253633
-0.08308537422752059
-0.13232115154751534
-0.07693090206251085
-0.10770326288750408
0.003077236082504875
-0.04615854123751762
-0.09539431855751236
0.1261666793825056
0.06462195773251911
-0.29233742783754685
-0.26771953917753555
-0.20617481752752131
-0.1692479845375183
-0.1015487907225221
-0.10770326288750408
-0.14463009587750708
-0.0707764298975011
-0.21848376185754081
-0.21232928969253104
-0.1692479845375183
-0.1938658731975296
-0.1938658731975296
-0.1938658731975296
-0.1938658731975296
-0.06462195773251911
-0.15078456804251686
-0.21232928969253104
-0.17540245670252808
-0.18771140103251985
-0.21848376185754081
-0.18155692886753785
-0.3292642608275498
-0.5939065639225805
0.44619923196256844
0.2246382340225228
-0.08923984639250257
-0.17540245670252808
-0.15078456804251686
0.2984919000025288
0.901630172172624
-0.5939065639225805
-0.6800691742326057
-0.28618295567253704
-0.12001220721752358
-0.13232115154751534
-0.20002034536253932
-0.11385773505251384
0.31695531649755804
0.2984919000025288
-0.10770326288750408
-0.17540245670252808
-0.17540245670252808
-0.1938658731975296
-0.21232928969253104
-0.1015487907225221
-0.009231708247514623
-0.02154065257750637
-0.13232115154751534
-0.18771140103251985
-0.1692479845375183
-0.18155692886753785
-0.15078456804251686
-0.033849596907498114
-0.1692479845375183
-0.09539431855751236
-0.06462195773251911
-0.05846748556750937
-0.10770326288750408
-0.1384756237125251
-0.1384756237125251
-0.1384756237125251
-0.04615854123751762
-0.09539431855751236
-0.15693904020752658
-0.1261666793825056
0.13232115154751534
0.15078456804251686
-0.07693090206251085
-0.2246382340225228
-0.09539431855751236
-0.12001220721752358
-0.12001220721752358
-0.13232115154751534
-0.15078456804251686
-0.1261666793825056
-0.1384756237125251
-0.15078456804251686
-0.01538618041249662
-0.003077236082504875
-0.13232115154751534
-0.20617481752752131
-0.16309351237253633
-0.1261666793825056
-0.14463009587750708
-0.15693904020752658
-0.1261666793825056
-0.12001220721752358
-0.2246382340225228
-0.21848376185754081
-0.16309351237253633
-0.13232115154751534
-0.2369471783525424
-0.7846952010376053
0.360036621652543
0.2431016505175243
-0.08923984639250257
0.06462195773251911
0.07693090206251085
-0.08923984639250257
-0.040004069072507864
0.1384756237125251
0.0707764298975011
-0.05231301340249961
-0.11385773505251384
-0.1261666793825056
-0.08923984639250257
-0.08923984639250257
-0.0707764298975011
-0.08308537422752059
-0.04615854123751762
-0.13232115154751534
-0.15693904020752658
-0.15693904020752658
-0.08308537422752059
-0.08923984639250257
-0.01538618041249662
-0.02769512474251612
-0.033849596907498114
-0.15693904020752658
-0.1384756237125251
-0.1015487907225221
-0.05846748556750937
-0.08923984639250257
-0.05231301340249961
0.003077236082504875
0.04615854123751762
-0.02154065257750637
0.009231708247514623
-0.04615854123751762
-0.09539431855751236
-0.1015487907225221
-0.07693090206251085
-0.0707764298975011
0.040004069072507864
-0.1384756237125251
-0.12001220721752358
-0.09539431855751236
-0.09539431855751236
-0.040004069072507864
0.05231301340249961
-0.033849596907498114
0.20617481752752131
0.30464637216753854
0.040004069072507864
-0.08308537422752059
-0.06462195773251911
0.009231708247514623
-0.040004069072507864
-0.04615854123751762
0.05846748556750937
0.2246382340225228
0.9754838381526297
-0.3415732051575415
-0.14463009587750708
0.003077236082504875
-0.02154065257750637
-0.20002034536253932
-0.538516314437576
-0.8770122835126126
-0.4154268711375475
-0.20617481752752131
-0.16309351237253633
-0.13232115154751534
-0.10770326288750408
-0.13232115154751534
-0.02769512474251612
-0.08923984639250257
-0.10770326288750408
-0.1261666793825056
-0.11385773505251384
-0.0707764298975011
-0.1261666793825056
-0.2738740113425453
-0.09539431855751236
-0.1938658731975296
-0.11385773505251384
-0.06462195773251911
-0.11385773505251384
-0.11385773505251384
-0.11385773505251384
-0.14463009587750708
-0.05231301340249961
-0.05231301340249961
-0.033849596907498114
-0.14463009587750708
-0.1015487907225221
0.13232115154751534
-0.02154065257750637
-0.009231708247514623
0.04615854123751762
-0.13232115154751534
-0.06462195773251911
-0.003077236082504875
-0.02769512474251612
-0.1015487907225221
-0.1261666793825056
-0.12001220721752358
-0.0707764298975011
-0.1938658731975296
-0.1938658731975296
-0.15693904020752658
-0.05846748556750937
-0.02154065257750637
-0.12001220721752358
-0.15693904020752658
-0.09539431855751236
-0.13232115154751534
-0.1384756237125251
-0.15078456804251686
-0.1015487907225221
-0.05231301340249961
-0.05231301340249961
-0.009231708247514623
-0.1384756237125251
-0.9077846443376336
0.15693904020752658
-0.05231301340249961
-0.1938658731975296
-0.02769512474251612
-0.06462195773251911
-0.1015487907225221
-0.10770326288750408
-0.13232115154751534
-0.02154065257750637
-0.1015487907225221
-0.08308537422752059
-0.1015487907225221
-0.11385773505251384
-0.08923984639250257
-0.11385773505251384
-0.10770326288750408
0.05231301340249961
0.0707764298975011
0.003077236082504875
-0.1261666793825056
-0.07693090206251085
-0.033849596907498114
-0.10770326288750408
-0.16309351237253633
-0.12001220721752358
-0.18155692886753785
-0.20617481752752131
-0.1692479845375183
-0.08308537422752059
-0.02154065257750637
-0.04615854123751762
-0.21848376185754081
-0.16309351237253633
-0.040004069072507864
-0.07693090206251085
-0.08923984639250257
-0.05231301340249961
-0.07693090206251085
-0.1384756237125251
-0.20617481752752131
-0.1938658731975296
-0.1692479845375183
-0.15693904020752658
-0.1384756237125251
-0.08923984639250257
0.05846748556750937
0.2554105948475438
0.02154065257750637
-0.08308537422752059
-0.13232115154751534
-0.05231301340249961
-0.14463009587750708
-0.10770326288750408
-0.033849596907498114
-0.11385773505251384
-0.1692479845375183
-0.16309351237253633
0.2431016505175243
0.7846952010376053
-0.2738740113425453
0.009231708247514623
0.33541873299255964
-0.15078456804251686
-0.9200935886676254
0.5077439536125827
0.1692479845375183
-0.003077236082504875
-0.05231301340249961
-0.08308537422752059
0.26156506701252585
-0.7231504793875909
-0.8277765061926179
-0.30464637216753854
-0.2246382340225228
-0.21848376185754081
-0.14463009587750708
-0.02769512474251612
-0.02154065257750637
-0.07693090206251085
-0.05846748556750937
-0.13232115154751534
-0.1938658731975296
-0.18155692886753785
-0.09539431855751236
-0.13232115154751534
-0.10770326288750408
-0.13232115154751534
-0.1015487907225221
-0.06462195773251911
-0.1015487907225221
-0.40311792680755576
-0.6369878690775933
-0.34772767732255133
-0.09539431855751236
-0.1692479845375183
-0.1692479845375183
-0.18771140103251985
-0.21848376185754081
-0.18155692886753785
-0.16309351237253633
-0.18771140103251985
-0.09539431855751236
-0.2246382340225228
-0.15078456804251686
-0.07693090206251085
0.04615854123751762
-0.10770326288750408
-0.17540245670252808
-0.1384756237125251
-0.033849596907498114
-0.1261666793825056
-0.09539431855751236
-0.12001220721752358
-0.16309351237253633
-0.1692479845375183
-0.15078456804251686
-0.1384756237125251
0.05231301340249961
-0.13232115154751534
-0.07693090206251085
-0.02154065257750637
-0.04615854123751762
-0.040004069072507864
-0.10770326288750408
-0.1384756237125251
-0.6554512855725947
0.26771953917753555
0.34772767732255133
0.02769512474251612
-0.01538618041249662
-0.033849596907498114
-0.08308537422752059
-0.05846748556750937
-0.033849596907498114
-0.1692479845375183
-0.0707764298975011
-0.0707764298975011
-0.040004069072507864
-0.05846748556750937
-0.1261666793825056
-0.08923984639250257
-0.040004069072507864
-0.10770326288750408
-0.07693090206251085
-0.15693904020752658
-0.1938658731975296
-0.13232115154751534
-0.12001220721752358
-0.15078456804251686
-0.06462195773251911
-0.20002034536253932
-0.23079270618753256
-0.2369471783525424
-0.2246382340225228
-0.13232115154751534
-0.15693904020752658
-0.16309351237253633
-0.08308537422752059
-0.1261666793825056
-0.07693090206251085
-0.06462195773251911
-0.06462195773251911
-0.02154065257750637
-0.06462195773251911
-0.003077236082504875
0.7046870628925892
0.37850003814754446
0.05846748556750937
0.003077236082504875
0.01538618041249662
-0.09539431855751236
-0.07693090206251085
-0.04615854123751762
-0.01538618041249662
-0.09539431855751236
-0.10770326288750408
-0.10770326288750408
-0.10770326288750408
-0.17540245670252808
0.11385773505251384
0.5138984257775646
-0.9200935886676254
-0.6246789247476012
-0.24925612268253405
-0.15693904020752658
-0.11385773505251384
-0.12001220721752358
-0.1384756237125251
-0.05231301340249961
0.05846748556750937
-0.09539431855751236
-0.13232115154751534
-0.06462195773251911
-0.1261666793825056
-0.18155692886753785
-0.3292642608275498
-0.20002034536253932
-0.17540245670252808
-0.16309351237253633
-0.14463009587750708
-0.10770326288750408
-0.1384756237125251
-0.1384756237125251
-0.05846748556750937
-0.009231708247514623
-0.009231708247514623
-0.033849596907498114
0.02154065257750637
-0.06462195773251911
-0.033849596907498114
0.040004069072507864
0.009231708247514623
-0.003077236082504875
-0.08308537422752059
-0.17540245670252808
-0.1015487907225221
-0.09539431855751236
-0.0707764298975011
-0.09539431855751236
-0.1015487907225221
-0.02154065257750637
-0.0707764298975011
-0.1384756237125251
-0.13232115154751534
-0.04615854123751762
0.07693090206251085
-0.05231301340249961
-0.14463009587750708
-0.07693090206251085
-0.09539431855751236
-0.16309351237253633
-0.2369471783525424
-0.18155692886753785
-0.1261666793825056
-0.12001220721752358
-0.18771140103251985
-0.1261666793825056
-0.09539431855751236
-0.21848376185754081
-0.26156506701252585
-0.26771953917753555
-0.21848376185754081
-0.3108008443325483
-0.9262480608326351
0.2369471783525424
0.09539431855751236
-0.18771140103251985
-0.1938658731975296
-0.18155692886753785
-0.18155692886753785
-0.12001220721752358
-0.08308537422752059
-0.01538618041249662
-0.2369471783525424
-0.1938658731975296
-0.14463009587750708
-0.20002034536253932
-0.16309351237253633
-0.11385773505251384
-0.1692479845375183
-0.13232115154751534
-0.2554105948475438
-0.21232928969253104
-0.1692479845375183
-0.21848376185754081
-0.2431016505175243
-0.1938658731975296
-0.18771140103251985
-0.08308537422752059
-0.2800284835075273
-0.2984919000025288
-0.2554105948475438
-0.2431016505175243
-0.1261666793825056
0.01538618041249662
-0.02154065257750637
-0.02154065257750637
-0.10770326288750408
-0.13232115154751534
-0.08923984639250257
-0.033849596907498114
-0.1384756237125251
-0.009231708247514623
0.18771140103251985
0.10770326288750408
-0.20002034536253932
-0.13232115154751534
-0.15078456804251686
-0.15693904020752658
-0.1384756237125251
-0.16309351237253633
-0.1015487907225221
-0.04615854123751762
-0.1692479845375183
-0.16309351237253633
-0.1384756237125251
-0.06462195773251911
-0.13232115154751534
-0.040004069072507864
0.2800284835075273
0.12001220721752358
0.31695531649755804
0.8339309783576276
-0.28618295567253704
-0.07693090206251085
-0.1261666793825056
-0.08923984639250257
-0.06462195773251911
-0.44619923196256844
-0.7354594237176102
-0.2554105948475438
-0.06462195773251911
-0.20617481752752131
-0.28618295567253704
-0.427735815467567
-0.360036621652543
-0.2246382340225228
-0.2369471783525424
-0.18155692886753785
-0.20617481752752131
-0.18771140103251985
-0.2246382340225228
-0.11385773505251384
0.003077236082504875
-0.003077236082504875
-0.18771140103251985
-0.24925612268253405
-0.17540245670252808
-0.21848376185754081
-0.42158134330255725
-0.433890287632549
-0.24925612268253405
-0.17540245670252808
-0.2738740113425453
-0.21848376185754081
-0.18771140103251985
-0.2369471783525424
-0.20617481752752131
-0.1938658731975296
-0.23079270618753256
-0.040004069072507864
-0.02154065257750637
-0.1384756237125251
-0.05846748556750937
0.21848376185754081
-0.10770326288750408
-0.26771953917753555
-0.23079270618753256
-0.23079270618753256
-0.3415732051575415
-0.28618295567253704
-0.2800284835075273
-0.32310978866254003
-0.2554105948475438
-0.21232928969253104
-0.09539431855751236
0.003077236082504875
-0.21232928969253104
-0.26771953917753555
-0.24925612268253405
-0.2431016505175243
-0.2554105948475438
-0.2800284835075273
-0.23079270618753256
-0.37850003814754446
-1.0308740876376343
0.14463009587750708
0.16309351237253633
-0.20617481752752131
-0.26156506701252585
-0.29233742783754685
-0.18771140103251985
-0.24925612268253405
-0.1938658731975296
-0.28618295567253704
-0.30464637216753854
-0.09539431855751236
-0.13232115154751534
-0.23079270618753256
-0.05846748556750937
0.895475700007614
-0.4154268711375475
-0.33541873299255964
-0.26156506701252585
-0.26771953917753555
-0.28618295567253704
-0.24925612268253405
-0.28618295567253704
-0.44619923196256844
0.20002034536253932
-0.04615854123751762
-0.15078456804251686
-0.18155692886753785
-0.18155692886753785
-0.21232928969253104
-0.1938658731975296
-0.18155692886753785
-0.09539431855751236
-0.14463009587750708
-0.12001220721752358
-0.1015487907225221
-0.13232115154751534
-0.1384756237125251
-0.360036621652543
-0.6308333969125834
-0.3538821494875609
-0.2431016505175243
-0.20002034536253932
-0.14463009587750708
-0.11385773505251384
-0.1261666793825056
0.360036621652543
-0.14463009587750708
-0.5077439536125827
-0.2554105948475438
-0.18771140103251985
-0.18771140103251985
-0.16309351237253633
0.02769512474251612
0.08308537422752059
-0.04615854123751762
-0.14463009587750708
-0.16309351237253633
0.18155692886753785
0.7600773123775938
-0.26156506701252585
-0.14463009587750708
-0.2800284835075273
-0.7785407288726233
-0.433890287632549
-0.2369471783525424
-0.15693904020752658
-0.05231301340249961
0.1692479845375183
0.04615854123751762
-0.02154065257750637
-0.13232115154751534
-0.1261666793825056
-0.1015487907225221
-0.13232115154751534
-0.16309351237253633
-0.06462195773251911
0.05231301340249961
0.02154065257750637
-0.1015487907225221
-0.040004069072507864
-0.02769512474251612
-0.033849596907498114
-0.040004069072507864
-0.11385773505251384
-0.05846748556750937
0.040004069072507864
-0.10770326288750408
-0.12001220721752358
-0.11385773505251384
-0.11385773505251384
-0.08308537422752059
-0.04615854123751762
0.003077236082504875
0.08923984639250257
-0.15693904020752658
-0.15078456804251686
-0.1384756237125251
-0.1261666793825056
-0.1261666793825056
-0.09539431855751236
-0.06462195773251911
0.04615854123751762
-0.20002034536253932
-0.17540245670252808
-0.11385773505251384
-0.1015487907225221
-0.009231708247514623
0.01538618041249662
-0.05231301340249961
-0.01538618041249662
-0.15693904020752658
-0.1261666793825056
-0.009231708247514623
-0.1015487907225221
-0.11385773505251384
-0.1384756237125251
-0.1015487907225221
0.02154065257750637
-0.05846748556750937
-0.08308537422752059
-0.26156506701252585
-0.8831667556776225
0.1938658731975296
0.23079270618753256
-0.02769512474251612
-0.02154065257750637
-0.1261666793825056
-0.08923984639250257
-0.11385773505251384
-0.0707764298975011
-0.04615854123751762
-0.08308537422752059
-0.1261666793825056
-0.09539431855751236
-0.2246382340225228
-0.21232928969253104
-0.1938658731975296
-0.15693904020752658
-0.17540245670252808
-0.1692479845375183
-0.15078456804251686
-0.13232115154751534
-0.1015487907225221
-0.15078456804251686
-0.17540245670252808
-0.15078456804251686
-0.15693904020752658
-0.14463009587750708
-0.14463009587750708
-0.1692479845375183
-0.26156506701252585
-0.15693904020752658
-0.15078456804251686
-0.21232928969253104
-0.24925612268253405
-0.26156506701252585
-0.1692479845375183
0.003077236082504875
-0.15693904020752658
-0.21232928969253104
-0.18771140103251985
-0.2431016505175243
-0.20002034536253932
-0.1692479845375183
-0.20617481752752131
-0.17540245670252808
-0.24925612268253405
-0.26771953917753555
-0.24925612268253405
-0.20002034536253932
-0.20002034536253932
-0.2984919000025288
-0.28618295567253704
-0.10770326288750408
-0.17540245670252808
-0.2554105948475438
-0.2369471783525424
-0.2431016505175243
-0.26771953917753555
0.08923984639250257
0.8277765061926179
-1.0185651433076426
-0.7662317845426038
-0.4092723989725655
-0.31695531649755804
-0.2554105948475438
0.01538618041249662
0.433890287632549
0.09539431855751236
-0.16309351237253633
-0.2246382340225228
-0.20617481752752131
-0.1015487907225221
-0.06462195773251911
-0.18155692886753785
-0.21848376185754081
-0.17540245670252808
-0.26156506701252585
-0.28618295567253704
-0.28618295567253704
-0.2431016505175243
-0.390808982477564
-0.7477683680476023
-0.4092723989725655
-0.31695531649755804
-0.2984919000025288
-0.30464637216753854
-0.3415732051575415
-0.28618295567253704
-0.2800284835075273
-0.2554105948475438
-0.2554105948475438
-0.2554105948475438
-0.2984919000025288
-0.2800284835075273
-0.28618295567253704
-0.18155692886753785
-0.20617481752752131
-0.2369471783525424
-0.2431016505175243
-0.2554105948475438
-0.18771140103251985
-0.20617481752752131
-0.26771953917753555
-0.26771953917753555
-0.31695531649755804
-0.2984919000025288
-0.31695531649755804
-0.23079270618753256
-0.3292642608275498
-0.31695531649755804
-0.2984919000025288
-0.2246382340225228
-0.28618295567253704
-0.34772767732255133
-0.34772767732255133
-0.21848376185754081
-0.3723455659825625
-0.4092723989725655
-0.33541873299255964
-0.31695531649755804
-0.360036621652543
-0.47697159278756174
-1.0185651433076426
0.11385773505251384
0.02154065257750637
-0.1692479845375183
-0.20002034536253932
-0.21232928969253104
-0.20617481752752131
-0.21848376185754081
0.003077236082504875
0.009231708247514623
-0.2369471783525424
-0.17540245670252808
-0.1384756237125251
-0.21232928969253104
-0.26156506701252585
-0.15693904020752658
-0.15078456804251686
-0.02154065257750637
-0.02769512474251612
0.040004069072507864
0.009231708247514623
-0.033849596907498114
-0.0707764298975011
-0.08308537422752059
-0.08308537422752059
-0.040004069072507864
-0.20617481752752131
-0.15693904020752658
-0.11385773505251384
-0.14463009587750708
-0.1261666793825056
-0.15693904020752658
-0.16309351237253633
-0.2369471783525424
-0.44619923196256844
-0.26156506701252585
-0.2246382340225228
-0.2431016505175243
-0.2369471783525424
-0.1384756237125251
0.02769512474251612
-0.033849596907498114
-0.15078456804251686
-0.07693090206251085
-0.1384756237125251
-0.21848376185754081
-0.24925612268253405
-0.26771953917753555
-0.05231301340249961
-0.009231708247514623
-0.24925612268253405
-0.2738740113425453
-0.20002034536253932
-0.18155692886753785
-0.21848376185754081
-0.21848376185754081
-0.13232115154751534
-0.06462195773251911
0.16309351237253633
0.7970041453676248
-0.2738740113425453
-0.1015487907225221
-0.02154065257750637
0.02769512474251612
0.08308537422752059
-0.433890287632549
-0.6492968134075847
-0.2984919000025288
-0.20617481752752131
-0.17540245670252808
-0.15693904020752658
-0.12001220721752358
-0.10770326288750408
-0.07693090206251085
-0.15693904020752658
-0.15078456804251686
-0.11385773505251384
-0.01538618041249662
0.003077236082504875
-0.05231301340249961
-0.01538618041249662
-0.003077236082504875
-0.1261666793825056
-0.10770326288750408
-0.09539431855751236
-0.10770326288750408
-0.13232115154751534
-0.1692479845375183
-0.040004069072507864
0.575443147427579
-1.0370285598026439
0.28618295567253704
0.24925612268253405
-0.003077236082504875
-0.1384756237125251
-0.1384756237125251
-0.1384756237125251
-0.6123699804175822
-0.5692886752625692
-0.24925612268253405
-0.13232115154751534
-0.0707764298975011
-0.033849596907498114
-0.08308537422752059
-0.07693090206251085
-0.05231301340249961
-0.11385773505251384
-0.08308537422752059
-0.11385773505251384
-0.0707764298975011
-0.02769512474251612
-0.02154065257750637
-0.02154065257750637
0.003077236082504875
-0.05846748556750937
-0.02769512474251612
0.02154065257750637
0.1015487907225221
0.1261666793825056
0.08923984639250257
0.1261666793825056
0.040004069072507864
0.033849596907498114
0.07693090206251085
0.05231301340249961
0.02154065257750637
0.003077236082504875
0.033849596907498114
0.15693904020752658
0.07693090206251085
-0.02769512474251612
0.02154065257750637
0.02769512474251612
0.02154065257750637
-0.05231301340249961
-0.05231301340249961
0.02769512474251612
0.02769512474251612
0.02154065257750637
-0.01538618041249662
-0.08308537422752059
-0.09539431855751236
-0.11385773505251384
-0.11385773505251384
0.390808982477564
-0.1261666793825056
-0.538516314437576
-0.17540245670252808
-0.04615854123751762
-0.1261666793825056
-0.18771140103251985
-0.26156506701252585
-0.40311792680755576
0.360036621652543
0.4708171206225797
-0.04615854123751762
-0.12001220721752358
-0.15078456804251686
-0.20617481752752131
-0.2246382340225228
-0.05231301340249961
-0.16309351237253633
-0.16309351237253633
-0.16309351237253633
-0.17540245670252808
-0.12001220721752358
-0.15078456804251686
-0.49543500928256323
-0.6431423412426027
-0.390808982477564
-0.23079270618753256
-0.20617481752752131
-0.20617481752752131
-0.2369471783525424
-0.24925612268253405
-0.1384756237125251
-0.01538618041249662
-0.24925612268253405
-0.26156506701252585
-0.21848376185754081
0.15078456804251686
0.8831667556776225
-0.26771953917753555
-0.2246382340225228
-0.37850003814754446
-0.9200935886676254
-0.5508252587675677
-0.3415732051575415
-0.2738740113425453
-0.26771953917753555
-0.21848376185754081
-0.1384756237125251
-0.1692479845375183
-0.28618295567253704
-0.21848376185754081
-0.05231301340249961
-0.15693904020752658
-0.20002034536253932
-0.2431016505175243
-0.21232928969253104
-0.1938658731975296
-0.3292642608275498
-0.2800284835075273
-0.23079270618753256
-0.2369471783525424
-0.21848376185754081
-0.1938658731975296
-0.20002034536253932
-0.16309351237253633
-0.29233742783754685
-0.2369471783525424
-0.21232928969253104
-0.33541873299255964
-0.33541873299255964
-0.1938658731975296
-0.1938658731975296
-0.1261666793825056
-0.15693904020752658
-0.05846748556750937
-0.14463009587750708
-0.1384756237125251
-0.15693904020752658
-0.1692479845375183
-0.1015487907225221
-0.05846748556750937
-0.1938658731975296
-0.10770326288750408
0.23079270618753256
0.17540245670252808
-0.10770326288750408
-0.14463009587750708
-0.08923984639250257
-0.11385773505251384
-0.2246382340225228
-0.20617481752752131
-0.1692479845375183
-0.1384756237125251
-0.1015487907225221
-0.05231301340249961
-0.1384756237125251
-0.18155692886753785
-0.20002034536253932
0.4092723989725655
0.033849596907498114
-0.8523943948526291
0.15693904020752658
0.20617481752752131
-0.1015487907225221
-0.18155692886753785
-0.2431016505175243
-0.21232928969253104
-0.18155692886753785
-0.15078456804251686
-0.11385773505251384
-0.12001220721752358
-0.2246382340225228
-0.3846545103125543
-0.901630172172624
-0.46466264845757
-0.13232115154751534
-0.1692479845375183
-0.23079270618753256
-0.20617481752752131
-0.14463009587750708
-0.09539431855751236
-0.14463009587750708
-0.16309351237253633
-0.05846748556750937
-0.05846748556750937
-0.16309351237253633
-0.26156506701252585
-0.01538618041249662
0.18155692886753785
-0.11385773505251384
-0.15078456804251686
-0.1261666793825056
-0.15078456804251686
-0.16309351237253633
-0.16309351237253633
-0.13232115154751534
-0.1692479845375183
-0.2369471783525424
-0.18155692886753785
-0.10770326288750408
-0.15693904020752658
-0.18771140103251985
-0.1384756237125251
-0.14463009587750708
-0.10770326288750408
-0.15078456804251686
-0.16309351237253633
-0.17540245670252808
-0.15693904020752658
-0.20002034536253932
-0.1938658731975296
-0.09539431855751236
-0.14463009587750708
-0.20002034536253932
-0.18155692886753785
-0.20617481752752131
-0.2369471783525424
-0.21848376185754081
0.18155692886753785
0.7231504793875909
-0.889321227842632
-0.5446707866025856
-0.09539431855751236
0.07693090206251085
-0.04615854123751762
-0.1384756237125251
-0.16309351237253633
-0.15078456804251686
-0.1692479845375183
-0.20002034536253932
-0.20617481752752131
-0.17540245670252808
-0.18771140103251985
-0.21232928969253104
-0.20617481752752131
-0.1384756237125251
-0.18155692886753785
-0.1261666793825056
-0.06462195773251911
-0.02769512474251612
-0.1261666793825056
-0.16309351237253633
-0.18155692886753785
-0.11385773505251384
-0.21848376185754081
-0.15693904020752658
-0.12001220721752358
-0.003077236082504875
-0.18771140103251985
-0.2431016505175243
-0.2246382340225228
-0.1692479845375183
-0.2800284835075273
-0.2431016505175243
-0.23079270618753256
-0.0707764298975011
-0.0707764298975011
-0.08923984639250257
-0.14463009587750708
-0.11385773505251384
-0.23079270618753256
-0.2369471783525424
-0.2554105948475438
-0.37850003814754446
-0.2554105948475438
-0.17540245670252808
-0.1692479845375183
-0.06462195773251911
-0.15078456804251686
-0.1938658731975296
-0.15693904020752658
-0.033849596907498114
-0.06462195773251911
-0.040004069072507864
-0.09539431855751236
-0.1015487907225221
-0.20002034536253932
-0.07693090206251085
-0.17540245670252808
-0.11385773505251384
-0.14463009587750708
-0.29233742783754685
-0.7785407288726233
0.3415732051575415
0.1938658731975296
-0.12001220721752358
-0.15078456804251686
-0.1384756237125251
-0.17540245670252808
-0.1938658731975296
-0.16309351237253633
-0.04615854123751762
-0.05846748556750937
-0.09539431855751236
-0.11385773505251384
-0.11385773505251384
-0.14463009587750708
-0.1261666793825056
-0.14463009587750708
-0.1015487907225221
-0.26156506701252585
-0.2246382340225228
-0.20002034536253932
-0.2246382340225228
-0.20617481752752131
-0.21848376185754081
-0.15693904020752658
-0.08923984639250257
-0.2554105948475438
-0.2431016505175243
-0.20617481752752131
-0.20002034536253932
-0.20002034536253932
-0.18771140103251985
-0.15693904020752658
-0.1692479845375183
-0.3108008443325483
-0.2554105948475438
-0.2431016505175243
-0.2431016505175243
-0.2431016505175243
-0.18771140103251985
-0.12001220721752358
0.9385570051626267
-0.10770326288750408
-0.3538821494875609
-0.21232928969253104
-0.18771140103251985
-0.20002034536253932
-0.2246382340225228
-0.2246382340225228
-0.6492968134075847
-0.7908496732026148
-0.4092723989725655
-0.2738740113425453
-0.2554105948475438
-0.1938658731975296
-0.2800284835075273
-0.31695531649755804
-0.30464637216753854
0.003077236082504875
0.7539228402126119
-0.5508252587675677
-0.3538821494875609
-0.3108008443325483
-0.3108008443325483
-0.30464637216753854
-0.8031586175326066
-0.8031586175326066
-0.4708171206225797
-0.37850003814754446
-0.26156506701252585
-0.01538618041249662
-0.15693904020752658
-0.26156506701252585
-0.32310978866254003
-0.3846545103125543
-0.3292642608275498
-0.31695531649755804
-0.31695531649755804
-0.30464637216753854
-0.26771953917753555
-0.2246382340225228
-0.24925612268253405
-0.29233742783754685
-0.2984919000025288
-0.396963454642546
-0.5815976195925888
-0.3846545103125543
-0.0707764298975011
-0.1384756237125251
-0.2246382340225228
-0.2369471783525424
-0.24925612268253405
-0.26156506701252585
-0.23079270618753256
-0.1692479845375183
-0.20002034536253932
-0.15078456804251686
-0.23079270618753256
-0.32310978866254003
-0.16309351237253633
-0.09539431855751236
-0.15078456804251686
-0.1692479845375183
-0.21232928969253104
-0.13232115154751534
-0.18771140103251985
-0.23079270618753256
-0.20617481752752131
-0.20617481752752131
-0.20617481752752131
-0.2431016505175243
-0.2800284835075273
-0.20617481752752131
-0.29233742783754685
-0.18155692886753785
-0.08308537422752059
-0.16309351237253633
-0.20617481752752131
-0.21232928969253104
-0.2369471783525424
0.26156506701252585
-0.4154268711375475
-1.3878334732077002
0.009231708247514623
0.0707764298975011
-0.18771140103251985
-0.23079270618753256
-0.2246382340225228
-0.1384756237125251
-0.14463009587750708
-0.2246382340225228
-0.20002034536253932
-0.17540245670252808
-0.09539431855751236
-0.1015487907225221
-0.1692479845375183
-0.14463009587750708
-0.2431016505175243
-0.2554105948475438
-0.18155692886753785
-0.12001220721752358
-0.11385773505251384
-0.13232115154751534
-0.1384756237125251
0.390808982477564
0.44619923196256844
0.02154065257750637
-0.09539431855751236
-0.08308537422752059
-0.11385773505251384
-0.18771140103251985
-0.1692479845375183
-0.06462195773251911
-0.2246382340225228
-0.2246382340225228
-0.20002034536253932
-0.12001220721752358
-0.13232115154751534
-0.2369471783525424
-0.7169960072226089
-0.7169960072226089
-0.427735815467567
-0.26771953917753555
-0.2738740113425453
-0.23079270618753256
-0.26156506701252585
-0.2431016505175243
-0.20002034536253932
-0.11385773505251384
-0.26771953917753555
-0.2554105948475438
-0.21848376185754081
-0.26771953917753555
-0.2369471783525424
-0.17540245670252808
-0.11385773505251384
0.1015487907225221
-0.1261666793825056
-0.18155692886753785
-0.20002034536253932
0.15078456804251686
0.889321227842632
-0.427735815467567
-0.2369471783525424
-0.40311792680755576
-0.6862236463975879
-0.31695531649755804
-0.2738740113425453
-0.1938658731975296
-0.15078456804251686
-0.2984919000025288
-0.20617481752752131
-0.04615854123751762
-0.1261666793825056
-0.0707764298975011
-0.20002034536253932
-0.16309351237253633
-0.2246382340225228
-0.2246382340225228
-0.20002034536253932
-0.17540245670252808
-0.26156506701252585
-0.2246382340225228
-0.14463009587750708
-0.1938658731975296
-0.2554105948475438
-0.21848376185754081
-0.21848376185754081
-0.1384756237125251
-0.2800284835075273
-0.2800284835075273
-0.2738740113425453
-0.2431016505175243
-0.2554105948475438
-0.23079270618753256
-0.23079270618753256
-0.21848376185754081
-0.3108008443325483
-0.26156506701252585
-0.28618295567253704
-0.29233742783754685
-0.21848376185754081
-0.1261666793825056
-0.1692479845375183
-0.15078456804251686
-0.26771953917753555
-0.24925612268253405
-0.21232928969253104
-0.2369471783525424
-0.26771953917753555
-0.2554105948475438
-0.2554105948475438
-0.26771953917753555
-0.21848376185754081
-0.10770326288750408
-0.2431016505175243
-0.2431016505175243
-0.2431016505175243
-0.21848376185754081
-0.05846748556750937
0.02769512474251612
-0.2369471783525424
-0.20617481752752131
-0.31695531649755804
-0.895475700007614
0.1384756237125251
0.1261666793825056
-0.1261666793825056
-0.12001220721752358
-0.040004069072507864
-0.1261666793825056
-0.21232928969253104
-0.21848376185754081
-0.2369471783525424
-0.23079270618753256
-0.14463009587750708
-0.1692479845375183
-0.20617481752752131
-0.1384756237125251
-0.1015487907225221
-0.0707764298975011
-0.20002034536253932
-0.24925612268253405
-0.26771953917753555
-0.42158134330255725
-0.3723455659825625
-0.2431016505175243
-0.2554105948475438
-0.26771953917753555
-0.26156506701252585
-0.23079270618753256
-0.14463009587750708
-0.23079270618753256
-0.26771953917753555
-0.18155692886753785
-0.18771140103251985
-0.18155692886753785
-0.18771140103251985
-0.10770326288750408
-0.2431016505175243
-0.2800284835075273
-0.23079270618753256
-0.21848376185754081
-0.2431016505175243
-0.2800284835075273
-0.26156506701252585
-0.17540245670252808
0.02154065257750637
-0.15078456804251686
-0.20002034536253932
-0.06462195773251911
-0.11385773505251384
-0.21848376185754081
-0.16309351237253633
-0.15693904020752658
-0.033849596907498114
-0.1938658731975296
-0.20002034536253932
-0.1692479845375183
-0.2369471783525424
-0.15078456804251686
-0.17540245670252808
0.2246382340225228
0.7046870628925892
-0.895475700007614
-0.4523537041275505
-0.14463009587750708
-0.15693904020752658
-0.08308537422752059
-0.20617481752752131
-0.1261666793825056
-0.033849596907498114
-0.11385773505251384
-0.18771140103251985
-0.13232115154751534
-0.18771140103251985
-0.20002034536253932
-0.11385773505251384
-0.11385773505251384
-0.1015487907225221
-0.21232928969253104
-0.09539431855751236
-0.14463009587750708
-0.15078456804251686
-0.20617481752752131
0.01538618041249662
-0.08923984639250257
-0.08923984639250257
-0.14463009587750708
-0.09539431855751236
-0.12001220721752358
-0.09539431855751236
-0.21232928969253104
-0.17540245670252808
-0.05846748556750937
0.1261666793825056
-0.0707764298975011
-0.09539431855751236
0.14463009587750708
-0.02769512474251612
-0.14463009587750708
-0.11385773505251384
-0.14463009587750708
-0.05846748556750937
-0.18771140103251985
-0.1692479845375183
-0.20002034536253932
-0.13232115154751534
-0.033849596907498114
-0.13232115154751534
-0.2246382340225228
-0.11385773505251384
-0.12001220721752358
0.42158134330255725
0.1938658731975296
-0.16309351237253633
-0.13232115154751534
-0.17540245670252808
-0.15693904020752658
0.7970041453676248
-0.46466264845757
-0.15693904020752658
0.2554105948475438
-0.13232115154751534
-0.13232115154751534
-0.08308537422752059
-0.02769512474251612
-0.5508252587675677
-1.3570611123826792
-0.8031586175326066
-0.4400447597975588
-0.2800284835075273
-0.30464637216753854
-0.29233742783754685
-0.20002034536253932
-0.2431016505175243
-0.3723455659825625
-0.33541873299255964
-0.2431016505175243
-0.1692479845375183
-0.2431016505175243
-0.2554105948475438
-0.26771953917753555
-0.1938658731975296
-0.31695531649755804
-0.2554105948475438
-0.26156506701252585
-0.28618295567253704
-0.26156506701252585
-0.21848376185754081
-0.2554105948475438
-0.2369471783525424
-0.26156506701252585
-0.21848376185754081
-0.2369471783525424
-0.24925612268253405
-0.31695531649755804
-0.17540245670252808
0.18155692886753785
0.15693904020752658
-0.1938658731975296
-0.2246382340225228
-0.23079270618753256
-0.2554105948475438
-0.29233742783754685
-0.24925612268253405
-0.2800284835075273
-0.2800284835075273
-0.3415732051575415
-0.31695531649755804
-0.3108008443325483
-0.30464637216753854
-0.17540245670252808
0.0707764298975011
0.12001220721752358
0.13232115154751534
0.08308537422752059
-0.1692479845375183
-0.21848376185754081
-0.02769512474251612
-0.04615854123751762
-0.18771140103251985
-0.6985325907276074
-0.6985325907276074
0.6431423412426027
1.25243508557768
-0.06462195773251911
-0.18155692886753785
-0.31695531649755804
-0.20002034536253932
-0.26156506701252585
-0.8339309783576276
-0.6739147020675963
-0.3846545103125543
-0.30464637216753854
-0.1692479845375183
-0.1692479845375183
-0.20002034536253932
-0.12001220721752358
-0.18771140103251985
-0.26771953917753555
-0.2738740113425453
-0.2431016505175243
-0.24925612268253405
-0.21848376185754081
-0.1261666793825056
-0.17540245670252808
-0.26771953917753555
-0.1938658731975296
-0.18771140103251985
-0.18771140103251985
-0.16309351237253633
-0.20002034536253932
-0.13232115154751534
-0.17540245670252808
-0.2800284835075273
-0.2554105948475438
-0.15078456804251686
-0.24925612268253405
-0.18155692886753785
-0.18771140103251985
-0.24925612268253405
0.2984919000025288
-0.01538618041249662
-0.28618295567253704
-0.20617481752752131
-0.20002034536253932
-0.0707764298975011
-0.18155692886753785
-0.23079270618753256
-0.18771140103251985
-0.2800284835075273
-0.26156506701252585
-0.20617481752752131
0.04615854123751762
-0.07693090206251085
-0.14463009587750708
-0.12001220721752358
0.009231708247514623
-0.14463009587750708
-0.20002034536253932
-0.2246382340225228
-0.21848376185754081
-0.2246382340225228
-0.20617481752752131
0.009231708247514623
0.1384756237125251
-0.14463009587750708
-0.7970041453676248
0.2554105948475438
0.2431016505175243
-0.1015487907225221
-0.16309351237253633
-0.01538618041249662
0.04615854123751762
-0.21848376185754081
-0.1692479845375183
-0.12001220721752358
-0.13232115154751534
-0.09539431855751236
-0.21848376185754081
-0.20617481752752131
0.12001220721752358
0.02769512474251612
-0.10770326288750408
-0.1692479845375183
-0.11385773505251384
-0.12001220721752358
-0.15078456804251686
-0.21848376185754081
-0.1384756237125251
-0.04615854123751762
-0.12001220721752358
-0.2369471783525424
-0.21848376185754081
-0.1261666793825056
0.01538618041249662
-0.31695531649755804
-0.2738740113425453
-0.3292642608275498
-0.23079270618753256
-0.1938658731975296
-0.18771140103251985
-0.2246382340225228
-0.2738740113425453
-0.2800284835075273
-0.21232928969253104
-0.3292642608275498
-0.1938658731975296
-0.14463009587750708
-0.26771953917753555
-0.21232928969253104
0.33541873299255964
0.26156506701252585
0.14463009587750708
-0.09539431855751236
-0.13232115154751534
-0.15693904020752658
-0.17540245670252808
-0.21848376185754081
-0.15078456804251686
-0.11385773505251384
-0.13232115154751534
-0.24925612268253405
-0.24925612268253405
-0.2800284835075273
0.003077236082504875
0.26771953917753555
-0.8339309783576276
-0.28618295567253704
-0.427735815467567
-0.7785407288726233
-0.44619923196256844
-0.31695531649755804
-0.23079270618753256
-0.2554105948475438
-0.2431016505175243
-0.14463009587750708
-0.1692479845375183
-0.3292642608275498
-0.3538821494875609
-0.2554105948475438
-0.1938658731975296
-0.20617481752752131
-0.13232115154751534
-0.20002034536253932
-0.2431016505175243
-0.31695531649755804
-0.2800284835075273
-0.26771953917753555
-0.26156506701252585
-0.26156506701252585
-0.2554105948475438
-0.2431016505175243
-0.2431016505175243
-0.29233742783754685
-0.1384756237125251
-0.1692479845375183
-0.2246382340225228
-0.14463009587750708
-0.12001220721752358
-0.21232928969253104
-0.20002034536253932
-0.2369471783525424
-0.2246382340225228
-0.1938658731975296
-0.033849596907498114
-0.1261666793825056
-0.2246382340225228
-0.2246382340225228
-0.2246382340225228
-0.30464637216753854
-0.17540245670252808
-0.04615854123751762
-0.18155692886753785
-0.21848376185754081
-0.23079270618753256
-0.20617481752752131
-0.24925612268253405
-0.28618295567253704
-0.26771953917753555
-0.2369471783525424
-0.2369471783525424
-0.2369471783525424
-0.23079270618753256
-0.16309351237253633
-0.13232115154751534
-0.20002034536253932
-0.21848376185754081
-0.4092723989725655
-0.9816383103176396
0.13232115154751534
0.26156506701252585
-0.009231708247514623
-0.12001220721752358
-0.2431016505175243
-0.21848376185754081
-0.2369471783525424
-0.23079270618753256
-0.20002034536253932
-0.13232115154751534
-0.14463009587750708
-0.21848376185754081
0.009231708247514623
0.26771953917753555
0.04615854123751762
-0.07693090206251085
-0.1692479845375183
-0.15078456804251686
-0.08923984639250257
-0.15693904020752658
-0.20002034536253932
-0.15693904020752658
-0.18771140103251985
-0.21232928969253104
-0.18771140103251985
-0.09539431855751236
-0.1384756237125251
-0.18155692886753785
-0.08923984639250257
0.02154065257750637
-0.05231301340249961
-0.0707764298975011
0.06462195773251911
-0.07693090206251085
-0.0707764298975011
-0.16309351237253633
-0.14463009587750708
-0.15078456804251686
-0.15078456804251686
-0.1261666793825056
0.040004069072507864
-0.07693090206251085
0.02154065257750637
-0.0707764298975011
-0.08308537422752059
0.02154065257750637
-0.09539431855751236
-0.14463009587750708
-0.09539431855751236
-0.1261666793825056
-0.04615854123751762
-0.16309351237253633
-0.17540245670252808
-0.20617481752752131
-0.1261666793825056
0.040004069072507864
-0.04615854123751762
0.30464637216753854
0.6000610360875902
-0.9262480608326351
-0.33541873299255964
-0.08308537422752059
0.15078456804251686
0.07693090206251085
-0.10770326288750408
-0.05231301340249961
0.6123699804175822
-0.05231301340249961
-0.4400447597975588
0.33541873299255964
0.07693090206251085
0.02154065257750637
-0.1384756237125251
-0.15693904020752658
-0.40311792680755576
-0.8647033391826209
-0.31695531649755804
-0.15078456804251686
-0.15078456804251686
-0.10770326288750408
-0.1938658731975296
-0.10770326288750408
-0.06462195773251911
-0.30464637216753854
-0.20617481752752131
-0.033849596907498114
-0.2246382340225228
-0.23079270618753256
-0.1938658731975296
-0.15693904020752658
-0.08308537422752059
-0.12001220721752358
-0.16309351237253633
-0.15693904020752658
-0.11385773505251384
-0.12001220721752358
-0.17540245670252808
-0.17540245670252808
-0.06462195773251911
-0.04615854123751762
0.040004069072507864
-0.15078456804251686
-0.1938658731975296
-0.11385773505251384
-0.09539431855751236
-0.14463009587750708
-0.0707764298975011
-0.1384756237125251
-0.15693904020752658
-0.14463009587750708
-0.14463009587750708
-0.1384756237125251
-0.1384756237125251
-0.033849596907498114
-0.040004069072507864
-0.14463009587750708
-0.1261666793825056
-0.14463009587750708
-0.05231301340249961
-0.05231301340249961
-0.12001220721752358
-0.12001220721752358
-0.08923984639250257
-0.21848376185754081
-0.08308537422752059
-0.12001220721752358
-0.20617481752752131
-0.15693904020752658
-0.05846748556750937
-0.36619109381755277
-0.5262073701075842
0.42158134330255725
0.1261666793825056
-0.040004069072507864
-0.1015487907225221
-0.02769512474251612
-0.08308537422752059
-0.15078456804251686
-0.0707764298975011
-0.05231301340249961
-0.12001220721752358
-0.18155692886753785
-0.20002034536253932
-0.20002034536253932
-0.15078456804251686
-0.1938658731975296
-0.15693904020752658
-0.1384756237125251
-0.18155692886753785
-0.1938658731975296
-0.18771140103251985
-0.2246382340225228
-0.2246382340225228
-0.15693904020752658
0.02154065257750637
0.1692479845375183
-0.05846748556750937
-0.11385773505251384
-0.05846748556750937
-0.08308537422752059
-0.1015487907225221
-0.13232115154751534
-0.15693904020752658
-0.21232928969253104
-0.1692479845375183
-0.15693904020752658
-0.09539431855751236
-0.12001220721752358
-0.13232115154751534
-0.05231301340249961
-0.01538618041249662
-0.11385773505251384
-0.1261666793825056
-0.11385773505251384
0.1261666793825056
-0.15693904020752658
-0.09539431855751236
0.02154065257750637
-0.17540245670252808
0.1261666793825056
0.7293049515526008
-0.36619109381755277
-0.07693090206251085
0.040004069072507864
-0.12001220721752358
-0.21232928969253104
-0.6985325907276074
-0.3415732051575415
-0.0707764298975011
-0.12001220721752358
-0.16309351237253633
-0.1938658731975296
-0.21848376185754081
-0.1938658731975296
-0.15078456804251686
-0.14463009587750708
-0.1938658731975296
0.01538618041249662
0.20617481752752131
-0.08308537422752059
-0.1015487907225221
-0.02769512474251612
-0.2369471783525424
-0.2554105948475438
-0.2246382340225228
-0.360036621652543
-0.2738740113425453
-0.23079270618753256
-0.09539431855751236
-0.1384756237125251
-0.2554105948475438
-0.2738740113425453
-0.2554105948475438
-0.2431016505175243
-0.24925612268253405
-0.2554105948475438
-0.26156506701252585
-0.17540245670252808
-0.1692479845375183
-0.003077236082504875
-0.01538618041249662
-0.14463009587750708
-0.23079270618753256
-0.24925612268253405
-0.16309351237253633
-0.13232115154751534
-0.2369471783525424
-0.2246382340225228
-0.1938658731975296
-0.0707764298975011
-0.20002034536253932
-0.26771953917753555
-0.31695531649755804
-0.2554105948475438
-0.17540245670252808
-0.02154065257750637
0.1938658731975296
-0.10770326288750408
-0.24925612268253405
-0.24925612268253405
-0.2246382340225228
-0.15078456804251686
-0.4400447597975588
-1.0185651433076426
0.1015487907225221
0.1384756237125251
-0.1261666793825056
-0.20617481752752131
-0.20617481752752131
-0.11385773505251384
-0.1938658731975296
-0.26156506701252585
-0.2800284835075273
-0.29233742783754685
-0.31695531649755804
-0.29233742783754685
-0.2369471783525424
-0.10770326288750408
-0.20002034536253932
-0.2738740113425453
-0.2738740113425453
-0.21848376185754081
-0.15078456804251686
-0.1692479845375183
-0.10770326288750408
-0.0707764298975011
-0.18771140103251985
-0.2554105948475438
-0.24925612268253405
-0.26771953917753555
-0.2431016505175243
-0.1384756237125251
-0.040004069072507864
-0.06462195773251911
-0.21848376185754081
-0.23079270618753256
-0.21848376185754081
-0.14463009587750708
0.05231301340249961
-0.009231708247514623
-0.16309351237253633
-0.1261666793825056
-0.28618295567253704
-0.2738740113425453
-0.18155692886753785
-0.0707764298975011
-0.15078456804251686
-0.1384756237125251
-0.02154065257750637
-0.04615854123751762
-0.24925612268253405
-0.21232928969253104
-0.20002034536253932
-0.08308537422752059
-0.033849596907498114
-0.15693904020752658
-0.1261666793825056
-0.0707764298975011
-0.18155692886753785
-0.15693904020752658
-0.16309351237253633
0.18771140103251985
0.7231504793875909
-0.09539431855751236
0.18771140103251985
-0.5015894814475731
-0.6431423412426027
-0.32310978866254003
-0.2800284835075273
-0.34772767732255133
-0.2554105948475438
-0.2369471783525424
-0.15078456804251686
-0.12001220721752358
-0.21232928969253104
-0.20617481752752131
-0.20617481752752131
-0.21232928969253104
-0.21232928969253104
-0.08308537422752059
-0.02154065257750637
-0.0707764298975011
-0.23079270618753256
0.1261666793825056
0.390808982477564
0.040004069072507864
-0.05846748556750937
-0.16309351237253633
-0.18771140103251985
-0.1938658731975296
-0.16309351237253633
-0.15693904020752658
-0.24925612268253405
-0.18771140103251985
-0.2246382340225228
-0.26771953917753555
-0.20002034536253932
-0.20002034536253932
-0.5631342030975872
-0.5569797309325777
-0.26156506701252585
-0.2246382340225228
-0.2800284835075273
-0.2738740113425453
-0.2554105948475438
-0.26771953917753555
-0.28618295567253704
-0.28618295567253704
-0.3108008443325483
-0.29233742783754685
-0.15693904020752658
-0.18771140103251985
-0.26156506701252585
-0.15693904020752658
-0.34772767732255133
-0.33541873299255964
-0.24925612268253405
-0.30464637216753854
-0.3108008443325483
-0.23079270618753256
-0.17540245670252808
-0.29233742783754685
-0.36619109381755277
-0.28618295567253704
-0.36619109381755277
-0.9693293659876481
0.08308537422752059
0.06462195773251911
0.4585081762925601
0.1015487907225221
-0.4092723989725655
-0.31695531649755804
-0.32310978866254003
-0.360036621652543
-0.32310978866254003
-0.31695531649755804
-0.2800284835075273
-0.33541873299255964
-0.2738740113425453
-0.32310978866254003
-0.33541873299255964
-0.26771953917753555
-0.2431016505175243
-0.1384756237125251
0.2369471783525424
0.6862236463975879
-0.4892805371175811
-0.2800284835075273
-0.20617481752752131
-0.21232928969253104
-0.20002034536253932
-0.20617481752752131
-0.360036621652543
-0.8523943948526291
-0.47697159278756174
-0.3108008443325483
-0.3292642608275498
-0.30464637216753854
-0.47697159278756174
-0.427735815467567
-0.2246382340225228
-0.28618295567253704
-0.2800284835075273
-0.2369471783525424
-0.21232928969253104
-0.16309351237253633
-0.21848376185754081
-0.24925612268253405
-0.17540245670252808
-0.30464637216753854
-0.2431016505175243
-0.21848376185754081
-0.17540245670252808
-0.040004069072507864
-0.21232928969253104
-0.15693904020752658
-0.15693904020752658
-0.3108008443325483
-0.2369471783525424
-0.24925612268253405
-0.26156506701252585
-0.2431016505175243
-0.18771140103251985
0.14463009587750708
0.7354594237176102
-0.396963454642546
-0.20617481752752131
-0.06462195773251911
0.5569797309325777
0.20617481752752131
-0.08308537422752059
-0.10770326288750408
-0.44619923196256844
-0.8216220340276081
-0.36619109381755277
-0.1938658731975296
-0.23079270618753256
-0.2431016505175243
-0.18155692886753785
-0.12001220721752358
-0.04615854123751762
-0.26156506701252585
-0.396963454642546
-0.7169960072226089
-0.3723455659825625
-0.26156506701252585
-0.21232928969253104
-0.1384756237125251
-0.09539431855751236
-0.20002034536253932
-0.1015487907225221
-0.15078456804251686
-0.1384756237125251
-0.1384756237125251
-0.15078456804251686
-0.1261666793825056
-0.07693090206251085
-0.21232928969253104
-0.11385773505251384
-0.12001220721752358
-0.11385773505251384
-0.14463009587750708
-0.1384756237125251
-0.15078456804251686
-0.1015487907225221
-0.12001220721752358
-0.06462195773251911
-0.0707764298975011
-0.13232115154751534
-0.1384756237125251
-0.1384756237125251
-0.15078456804251686
-0.05231301340249961
-0.18155692886753785
-0.18771140103251985
-0.13232115154751534
-0.11385773505251384
-0.06462195773251911
-0.10770326288750408
-0.14463009587750708
-0.16309351237253633
-0.16309351237253633
-0.1261666793825056
-0.12001220721752358
-0.07693090206251085
-0.08923984639250257
-0.2738740113425453
-0.7600773123775938
0.33541873299255964
0.16309351237253633
-0.09539431855751236
-0.0707764298975011
-0.009231708247514623
0.06462195773251911
-0.04615854123751762
-0.06462195773251911
-0.12001220721752358
-0.18155692886753785
-0.12001220721752358
-0.040004069072507864
-0.05846748556750937
-0.13232115154751534
-0.1384756237125251
-0.14463009587750708
-0.1384756237125251
-0.10770326288750408
-0.10770326288750408
-0.1384756237125251
-0.12001220721752358
-0.13232115154751534
-0.09539431855751236
-0.05846748556750937
-0.08308537422752059
-0.14463009587750708
-0.08923984639250257
-0.05231301340249961
-0.040004069072507864
-0.06462195773251911
-0.0707764298975011
0.05231301340249961
0.040004069072507864
-0.08308537422752059
-0.06462195773251911
-0.05846748556750937
-0.12001220721752358
-0.1261666793825056
-0.10770326288750408
-0.08308537422752059
-0.20002034536253932
-0.1692479845375183
-0.1692479845375183
-0.15078456804251686
-0.01538618041249662
-0.10770326288750408
-0.09539431855751236
-0.033849596907498114
-0.08923984639250257
-0.09539431855751236
-0.07693090206251085
-0.11385773505251384
-0.1384756237125251
-0.11385773505251384
-0.07693090206251085
-0.02769512474251612
0.01538618041249662
0.3292642608275498
1.0185651433076426
-0.20002034536253932
-0.13232115154751534
-0.0707764298975011
-0.1261666793825056
-0.18771140103251985
-0.7600773123775938
-0.44619923196256844
-0.16309351237253633
-0.003077236082504875
-0.05846748556750937
-0.1261666793825056
-0.14463009587750708
-0.07693090206251085
-0.18771140103251985
-0.2246382340225228
-0.20002034536253932
-0.12001220721752358
-0.12001220721752358
-0.1384756237125251
-0.1261666793825056
-0.07693090206251085
-0.17540245670252808
-0.17540245670252808
-0.1692479845375183
-0.12001220721752358
-0.02769512474251612
-0.08308537422752059
-0.08923984639250257
-0.07693090206251085
-0.13232115154751534
0.04615854123751762
-0.08923984639250257
-0.05846748556750937
-0.040004069072507864
-0.08308537422752059
-0.040004069072507864
0.01538618041249662
-0.18771140103251985
-0.15693904020752658
-0.08308537422752059
-0.1384756237125251
-0.07693090206251085
-0.02769512474251612
-0.08308537422752059
-0.04615854123751762
-0.32310978866254003
-0.2554105948475438
-0.17540245670252808
-0.08308537422752059
-0.07693090206251085
-0.11385773505251384
-0.06462195773251911
0.06462195773251911
-0.1015487907225221
-0.09539431855751236
-0.009231708247514623
-0.04615854123751762
-0.04615854123751762
-0.08923984639250257
-0.01538618041249662
0.18155692886753785
-0.29233742783754685
-0.8708578113476306
0.26156506701252585
0.28618295567253704
-0.01538618041249662
-0.09539431855751236
-0.09539431855751236
-0.06462195773251911
-0.15078456804251686
-0.0707764298975011
-0.08923984639250257
-0.11385773505251384
-0.10770326288750408
0.009231708247514623
0.3415732051575415
0.20002034536253932
-0.08308537422752059
-0.11385773505251384
-0.15693904020752658
-0.14463009587750708
-0.1015487907225221
-0.07693090206251085
-0.11385773505251384
-0.05846748556750937
-0.12001220721752358
-0.15693904020752658
-0.08308537422752059
-0.07693090206251085
-0.28618295567253704
-0.5815976195925888
-0.42158134330255725
-0.2738740113425453
-0.32310978866254003
-0.24925612268253405
-0.15078456804251686
-0.1938658731975296
-0.28618295567253704
-0.2246382340225228
-0.18771140103251985
-0.1261666793825056
-0.16309351237253633
-0.13232115154751534
-0.20002034536253932
-0.14463009587750708
-0.11385773505251384
-0.1261666793825056
-0.10770326288750408
-0.18771140103251985
-0.21232928969253104
-0.15078456804251686
-0.18771140103251985
-0.23079270618753256
-0.1261666793825056
-0.11385773505251384
-0.15078456804251686
-0.10770326288750408
-0.24925612268253405
-0.2431016505175243
-0.2246382340225228
0.18155692886753785
0.7539228402126119
-0.3538821494875609
-0.20002034536253932
-0.7231504793875909
-0.7416138958825924
-0.360036621652543
-0.2431016505175243
-0.3108008443325483
-0.2431016505175243
-0.13232115154751534
-0.13232115154751534
-0.21848376185754081
-0.28618295567253704
-0.11385773505251384
-0.12001220721752358
-0.23079270618753256
-0.2800284835075273
-0.2800284835075273
-0.1692479845375183
-0.17540245670252808
-0.12001220721752358
-0.11385773505251384
-0.1692479845375183
-0.1938658731975296
-0.18771140103251985
-0.26156506701252585
-0.1938658731975296
-0.24925612268253405
-0.1938658731975296
-0.30464637216753854
-0.21848376185754081
-0.1015487907225221
-0.01538618041249662
-0.08923984639250257
0.06462195773251911
0.396963454642546
-0.9385570051626267
0.2738740113425453
-0.05846748556750937
-0.2369471783525424
-0.23079270618753256
-0.26771953917753555
-0.34772767732255133
-0.8708578113476306
-0.6554512855725947
-0.4092723989725655
-0.34772767732255133
-0.31695531649755804
-0.2984919000025288
-0.2431016505175243
-0.15693904020752658
-0.2800284835075273
-0.2738740113425453
-0.18771140103251985
-0.07693090206251085
-0.12001220721752358
-0.13232115154751534
-0.08308537422752059
-0.02154065257750637
-0.21848376185754081
-0.26156506701252585
-0.21848376185754081
-0.15078456804251686
-0.14463009587750708
-0.20617481752752131
-0.040004069072507864
0.02769512474251612
-0.20617481752752131
-0.21848376185754081
-0.16309351237253633
-0.1261666793825056
-0.08308537422752059
-0.10770326288750408
-0.1384756237125251
-0.15078456804251686
-0.21232928969253104
-0.21848376185754081
-0.21232928969253104
-0.15078456804251686
-0.05846748556750937
-0.07693090206251085
-0.08308537422752059
-0.08308537422752059
-0.21232928969253104
-0.11385773505251384
-0.18155692886753785
-0.21848376185754081
-0.21848376185754081
-0.18155692886753785
-0.14463009587750708
-0.033849596907498114
-0.08923984639250257
-0.16309351237253633
-0.16309351237253633
-0.13232115154751534
-0.05846748556750937
-0.003077236082504875
-0.20002034536253932
-0.8093130896976164
0.1261666793825056
0.30464637216753854
-0.033849596907498114
-0.09539431855751236
-0.1261666793825056
-0.1692479845375183
-0.09539431855751236
0.003077236082504875
-0.18771140103251985
-0.1384756237125251
-0.15078456804251686
-0.15693904020752658
-0.08308537422752059
-0.1015487907225221
-0.15078456804251686
-0.009231708247514623
-0.08923984639250257
-0.1938658731975296
-0.04615854123751762
0.2554105948475438
0.13232115154751534
-0.0707764298975011
0.2431016505175243
0.8523943948526291
-0.32310978866254003
-0.11385773505251384
-0.1015487907225221
-0.14463009587750708
-0.13232115154751534
-0.14463009587750708
-0.12001220721752358
-0.4400447597975588
-0.6369878690775933
-0.396963454642546
-0.4892805371175811
-0.3108008443325483
-0.2246382340225228
-0.21848376185754081
-0.15078456804251686
-0.12001220721752358
-0.21848376185754081
-0.1938658731975296
-0.20002034536253932
-0.16309351237253633
-0.08308537422752059
-0.13232115154751534
-0.1384756237125251
0.05846748556750937
0.08923984639250257
0.02769512474251612
-0.07693090206251085
-0.14463009587750708
-0.10770326288750408
-0.033849596907498114
-0.05231301340249961
-0.0707764298975011
-0.20002034536253932
-0.15078456804251686
-0.02154065257750637
0.003077236082504875
-0.07693090206251085
-0.06462195773251911
-0.1261666793825056
0.009231708247514623
-0.14463009587750708
-0.17540245670252808
-0.05846748556750937
-0.05231301340249961
-0.12001220721752358
0.02769512474251612
-0.0707764298975011
-0.1261666793825056
-0.14463009587750708
-0.04615854123751762
0.05846748556750937
0.01538618041249662
-0.13232115154751534
-0.14463009587750708
-0.15078456804251686
-0.21232928969253104
-0.31695531649755804
-0.16309351237253633
-0.02769512474251612
-0.1261666793825056
-0.1938658731975296
-0.3538821494875609
-0.895475700007614
0.20617481752752131
0.20002034536253932
-0.02154065257750637
-0.15078456804251686
-0.16309351237253633
-0.18155692886753785
-0.10770326288750408
-0.12001220721752358
0.18155692886753785
-0.1015487907225221
-0.17540245670252808
-0.14463009587750708
-0.10770326288750408
-0.11385773505251384
-0.15078456804251686
-0.1261666793825056
-0.17540245670252808
-0.1938658731975296
-0.0707764298975011
-0.003077236082504875
-0.12001220721752358
-0.12001220721752358
-0.15693904020752658
-0.1261666793825056
-0.11385773505251384
0.02769512474251612
-0.07693090206251085
0.02154065257750637
-0.06462195773251911
-0.1692479845375183
-0.1692479845375183
0.3415732051575415
-0.08308537422752059
-0.40311792680755576
-0.2554105948475438
-0.21848376185754081
-0.1384756237125251
-0.05231301340249961
0.040004069072507864
0.01538618041249662
-0.14463009587750708
-0.1692479845375183
-0.15693904020752658
-0.16309351237253633
-0.1015487907225221
-0.16309351237253633
-0.20002034536253932
-0.1015487907225221
-0.02769512474251612
-0.05231301340249961
-0.18155692886753785
-0.11385773505251384
-0.11385773505251384
-0.1384756237125251
-0.04615854123751762
-0.09539431855751236
-0.2554105948475438
0.05846748556750937
0.6677602299025862
-0.3723455659825625
-0.18155692886753785
-0.15693904020752658
-0.15693904020752658
-0.32310978866254003
-0.889321227842632
-0.4585081762925601
-0.30464637216753854
-0.2984919000025288
-0.2246382340225228
-0.14463009587750708
0.15693904020752658
0.1938658731975296
-0.18155692886753785
-0.18155692886753785
-0.17540245670252808
-0.10770326288750408
-0.040004069072507864
-0.20002034536253932
-0.2369471783525424
-0.20002034536253932
-0.30464637216753854
-0.3538821494875609
-0.3108008443325483
-0.15078456804251686
-0.09539431855751236
0.11385773505251384
-0.1015487907225221
-0.13232115154751534
-0.2246382340225228
-0.20617481752752131
-0.17540245670252808
-0.1692479845375183
0.003077236082504875
-0.009231708247514623
-0.17540245670252808
0.02154065257750637
0.06462195773251911
-0.07693090206251085
-0.06462195773251911
-0.12001220721752358
-0.1015487907225221
-0.05846748556750937
-0.040004069072507864
0.033849596907498114
-0.1384756237125251
-0.15693904020752658
-0.1015487907225221
-0.07693090206251085
-0.08923984639250257
-0.15693904020752658
-0.21848376185754081
-0.21848376185754081
-0.12001220721752358
-0.04615854123751762
0.009231708247514623
-0.0707764298975011
-0.16309351237253633
-0.21848376185754081
-0.20617481752752131
-0.1384756237125251
-0.4092723989725655
-0.9877927824826491
0.1384756237125251
0.24925612268253405
-0.11385773505251384
0.1261666793825056
0.5015894814475731
0.15693904020752658
-0.040004069072507864
-0.10770326288750408
-0.14463009587750708
-0.16309351237253633
-0.17540245670252808
-0.14463009587750708
-0.12001220721752358
-0.06462195773251911
-0.05231301340249961
-0.009231708247514623
-0.15078456804251686
-0.15693904020752658
-0.4585081762925601
-0.7354594237176102
-0.3415732051575415
-0.18155692886753785
-0.20617481752752131
-0.15078456804251686
-0.20617481752752131
-0.18155692886753785
-0.1692479845375183
-0.20617481752752131
-0.08308537422752059
0.02154065257750637
0.040004069072507864
-0.1015487907225221
-0.18155692886753785
-0.11385773505251384
-0.14463009587750708
-0.20002034536253932
-0.07693090206251085
-0.05846748556750937
-0.20002034536253932
-0.16309351237253633
-0.18155692886753785
-0.1938658731975296
-0.1692479845375183
-0.18155692886753785
0.06462195773251911
1.0862643371226666
-0.24925612268253405
-0.23079270618753256
-0.16309351237253633
-0.15693904020752658
-0.009231708247514623
0.11385773505251384
-0.11385773505251384
-0.7416138958825924
-0.6123699804175822
-0.30464637216753854
-0.18771140103251985
0.13232115154751534
0.6923781185625978
-0.29233742783754685
-0.13232115154751534
-0.7293049515526008
-0.5877520917575707
-0.23079270618753256
-0.0707764298975011
-0.0707764298975011
-0.1384756237125251
-0.1384756237125251
-0.15693904020752658
-0.1938658731975296
-0.15078456804251686
0.01538618041249662
-0.08923984639250257
-0.1938658731975296
-0.20002034536253932
-0.10770326288750408
-0.01538618041249662
-0.1261666793825056
-0.10770326288750408
-0.13232115154751534
-0.15693904020752658
-0.1938658731975296
-0.21232928969253104
-0.23079270618753256
0.32310978866254003
-0.18771140103251985
-0.575443147427579
-0.2800284835075273
-0.16309351237253633
0.02769512474251612
-0.12001220721752358
-0.20617481752752131
-0.1261666793825056
0.06462195773251911
-0.01538618041249662
-0.15078456804251686
-0.1384756237125251
-0.16309351237253633
-0.17540245670252808
-0.17540245670252808
-0.01538618041249662
-0.11385773505251384
-0.1938658731975296
-0.18155692886753785
-0.21848376185754081
-0.2554105948475438
-0.28618295567253704
-0.30464637216753854
-0.5446707866025856
-0.5446707866025856
-0.3292642608275498
-0.2738740113425453
-0.21232928969253104
-0.05846748556750937
-0.08923984639250257
-0.18771140103251985
-0.21232928969253104
-0.30464637216753854
-0.2369471783525424
-0.2431016505175243
-0.37850003814754446
-1.0062561989776508
0.10770326288750408
0.1261666793825056
-0.05846748556750937
-0.20617481752752131
-0.15078456804251686
-0.033849596907498114
-0.12001220721752358
-0.1938658731975296
-0.23079270618753256
-0.2554105948475438
-0.20002034536253932
-0.1384756237125251
-0.13232115154751534
-0.2369471783525424
-0.2738740113425453
-0.21232928969253104
-0.2431016505175243
-0.26771953917753555
-0.13232115154751534
-0.2738740113425453
-0.2800284835075273
-0.2738740113425453
-0.20617481752752131
-0.21232928969253104
-0.2246382340225228
-0.20617481752752131
-0.08923984639250257
-0.1938658731975296
-0.20617481752752131
-0.21848376185754081
-0.15693904020752658
0.02154065257750637
-0.11385773505251384
-0.15693904020752658
-0.13232115154751534
-0.2738740113425453
-0.2246382340225228
-0.1692479845375183
-0.1692479845375183
-0.23079270618753256
-0.21848376185754081
-0.1692479845375183
-0.14463009587750708
-0.360036621652543
-0.2431016505175243
-0.21232928969253104
-0.36619109381755277
-0.31695531649755804
-0.2800284835075273
-0.1692479845375183
-0.11385773505251384
-0.06462195773251911
0.1692479845375183
0.02154065257750637
-0.14463009587750708
-0.14463009587750708
-0.10770326288750408
0.14463009587750708
0.7970041453676248
-0.30464637216753854
-0.12001220721752358
-0.12001220721752358
-0.1384756237125251
-0.08923984639250257
-0.12001220721752358
-0.17540245670252808
-0.6246789247476012
-0.7231504793875909
-0.360036621652543
-0.2800284835075273
-0.2431016505175243
-0.15693904020752658
-0.21232928969253104
-0.18155692886753785
-0.1384756237125251
-0.20002034536253932
0.01538618041249662
0.033849596907498114
-0.1261666793825056
-0.1692479845375183
-0.14463009587750708
-0.13232115154751534
-0.12001220721752358
-0.2431016505175243
-0.21848376185754081
-0.17540245670252808
-0.16309351237253633
-0.17540245670252808
-0.15078456804251686
-0.15078456804251686
-0.09539431855751236
-0.2431016505175243
-0.18771140103251985
-0.16309351237253633
-0.18771140103251985
-0.10770326288750408
0.09539431855751236
0.11385773505251384
-0.0707764298975011
-0.18155692886753785
-0.21232928969253104
-0.1938658731975296
-0.16309351237253633
-0.20617481752752131
-0.1384756237125251
0.1015487907225221
-0.033849596907498114
-0.09539431855751236
-0.07693090206251085
-0.11385773505251384
-0.13232115154751534
-0.08308537422752059
0.009231708247514623
0.14463009587750708
-0.0707764298975011
-0.1692479845375183
-0.12001220721752358
-0.1384756237125251
-0.17540245670252808
-0.1692479845375183
-0.360036621652543
-0.9508659494926462
0.2369471783525424
0.26771953917753555
-0.003077236082504875
-0.14463009587750708
-0.1384756237125251
-0.10770326288750408
-0.12001220721752358
0.02154065257750637
-0.0707764298975011
-0.13232115154751534
-0.15693904020752658
-0.20617481752752131
-0.12001220721752358
-0.08923984639250257
-0.21232928969253104
-0.12001220721752358
-0.17540245670252808
-0.13232115154751534
-0.08308537422752059
-0.13232115154751534
-0.12001220721752358
-0.09539431855751236
-0.08308537422752059
0.13232115154751534
-0.02769512474251612
-0.12001220721752358
-0.16309351237253633
-0.09539431855751236
-0.04615854123751762
-0.16309351237253633
-0.13232115154751534
-0.0707764298975011
-0.15693904020752658
-0.1015487907225221
-0.08308537422752059
-0.1015487907225221
-0.12001220721752358
-0.18155692886753785
-0.13232115154751534
-0.04615854123751762
-0.18155692886753785
-0.21232928969253104
-0.1384756237125251
-0.040004069072507864
-0.1938658731975296
-0.1384756237125251
-0.0707764298975011
-0.02154065257750637
-0.16309351237253633
-0.09539431855751236
0.01538618041249662
-0.11385773505251384
-0.1384756237125251
-0.09539431855751236
-0.16309351237253633
-0.08308537422752059
-0.17540245670252808
0.21232928969253104
0.9324025329976448
-0.18155692886753785
-0.1015487907225221
-0.12001220721752358
-0.10770326288750408
-0.2554105948475438
-0.7723862567076134
-0.427735815467567
-0.2554105948475438
-0.24925612268253405
-0.17540245670252808
-0.14463009587750708
-0.16309351237253633
-0.15693904020752658
-0.20617481752752131
-0.11385773505251384
-0.16309351237253633
-0.11385773505251384
-0.15693904020752658
-0.15693904020752658
-0.10770326288750408
-0.10770326288750408
-0.2369471783525424
-0.14463009587750708
-0.14463009587750708
-0.17540245670252808
-0.1692479845375183
-0.12001220721752358
-0.09539431855751236
-0.1015487907225221
-0.1938658731975296
-0.20002034536253932
-0.15693904020752658
-0.17540245670252808
-0.20617481752752131
-0.2246382340225228
-0.26156506701252585
-0.15693904020752658
-0.21232928969253104
-0.12001220721752358
-0.1938658731975296
-0.21848376185754081
-0.2554105948475438
-0.2554105948475438
-0.1938658731975296
-0.29233742783754685
-0.32310978866254003
-0.2554105948475438
-0.26156506701252585
-0.23079270618753256
-0.21848376185754081
-0.24925612268253405
-0.21848376185754081
-0.1261666793825056
-0.07693090206251085
-0.02154065257750637
-0.20002034536253932
-0.21848376185754081
-0.2431016505175243
0.09539431855751236
0.427735815467567
0.901630172172624
-0.8647033391826209
0.15693904020752658
0.23079270618753256
-0.003077236082504875
-0.10770326288750408
-0.15078456804251686
-0.1384756237125251
-0.6862236463975879
-0.7477683680476023
-0.390808982477564
-0.17540245670252808
-0.20617481752752131
-0.5323618422725662
-0.7785407288726233
-0.433890287632549
-0.26156506701252585
-0.16309351237253633
0.04615854123751762
-0.05846748556750937
-0.18771140103251985
-0.1938658731975296
-0.2431016505175243
-0.18771140103251985
-0.2246382340225228
-0.28618295567253704
-0.2554105948475438
-0.21232928969253104
-0.1692479845375183
-0.16309351237253633
-0.20617481752752131
-0.14463009587750708
-0.01538618041249662
-0.06462195773251911
-0.16309351237253633
-0.10770326288750408
-0.05231301340249961
-0.15693904020752658
-0.21848376185754081
-0.21232928969253104
-0.16309351237253633
-0.18155692886753785
-0.2246382340225228
-0.2369471783525424
-0.2431016505175243
-0.009231708247514623
0.05846748556750937
-0.040004069072507864
-0.18771140103251985
-0.21232928969253104
-0.21848376185754081
-0.2246382340225228
-0.20002034536253932
-0.16309351237253633
-0.10770326288750408
-0.17540245670252808
-0.29233742783754685
-0.20617481752752131
0.033849596907498114
0.07693090206251085
0.23079270618753256
0.7046870628925892
-0.33541873299255964
0.7785407288726233
-0.6492968134075847
-1.3078253350626845
-0.4400447597975588
-0.15078456804251686
-0.16309351237253633
-0.18155692886753785
-0.13232115154751534
-0.02769512474251612
-0.21848376185754081
-0.5446707866025856
-0.4400447597975588
-0.2554105948475438
-0.2369471783525424
-0.26771953917753555
-0.24925612268253405
-0.1384756237125251
-0.23079270618753256
-0.23079270618753256
-0.09539431855751236
-0.05231301340249961
-0.20002034536253932
-0.2738740113425453
-0.28618295567253704
-0.1261666793825056
-0.05846748556750937
-0.15078456804251686
-0.07693090206251085
-0.1015487907225221
-0.1938658731975296
-0.2431016505175243
-0.23079270618753256
-0.17540245670252808
-0.26156506701252585
-0.2246382340225228
-0.1938658731975296
0.003077236082504875
0.06462195773251911
-0.1938658731975296
-0.1938658731975296
-0.20617481752752131
-0.44619923196256844
-0.34772767732255133
-0.3108008443325483
-0.3108008443325483
-0.26156506701252585
-0.15693904020752658
-0.1384756237125251
-0.08923984639250257
-0.29233742783754685
-0.29233742783754685
-0.2800284835075273
-0.21848376185754081
-0.14463009587750708
-0.10770326288750408
0.2369471783525424
-0.02769512474251612
-0.29233742783754685
-0.2246382340225228
-0.1261666793825056
-0.3846545103125543
-0.8585488670176111
0.21848376185754081
0.12001220721752358
-0.1015487907225221
-0.31695531649755804
-0.30464637216753854
-0.28618295567253704
-0.3415732051575415
-0.5446707866025856
-0.7970041453676248
-0.4831260649525715
-0.2369471783525424
-0.2984919000025288
-0.1384756237125251
-0.1692479845375183
-0.2431016505175243
-0.28618295567253704
-0.2800284835075273
-0.21848376185754081
-0.04615854123751762
-0.21232928969253104
-0.2369471783525424
-0.23079270618753256
-0.1938658731975296
-0.15693904020752658
-0.2246382340225228
-0.26771953917753555
-0.2431016505175243
-0.2246382340225228
-0.20617481752752131
-0.28618295567253704
-0.2800284835075273
-0.23079270618753256
-0.2246382340225228
-0.1938658731975296
-0.08923984639250257
-0.12001220721752358
-0.2431016505175243
-0.26156506701252585
-0.26156506701252585
-0.15078456804251686
-0.08923984639250257
-0.21848376185754081
-0.21232928969253104
-0.28618295567253704
-0.29233742783754685
-0.2800284835075273
-0.30464637216753854
-0.28618295567253704
-0.21232928969253104
-0.09539431855751236
-0.06462195773251911
-0.0707764298975011
-0.11385773505251384
-0.1938658731975296
-0.23079270618753256
-0.30464637216753854
-0.2554105948475438
0.02769512474251612
0.6185244525825918
-0.14463009587750708
0.17540245670252808
-0.04615854123751762
-0.20002034536253932
-0.20617481752752131
-0.20002034536253932
-0.26771953917753555
-0.7600773123775938
-0.7354594237176102
-0.40311792680755576
-0.15693904020752658
-0.20002034536253932
-0.20617481752752131
-0.033849596907498114
-0.06462195773251911
-0.2431016505175243
-0.32310978866254003
-0.28618295567253704
-0.26156506701252585
-0.1261666793825056
-0.18771140103251985
-0.32310978866254003
-0.26156506701252585
-0.20002034536253932
-0.26771953917753555
-0.15078456804251686
-0.15693904020752658
-0.31695531649755804
-0.33541873299255964
-0.2800284835075273
-0.26771953917753555
-0.32310978866254003
-0.24925612268253405
-0.15693904020752658
-0.2800284835075273
-0.32310978866254003
-0.3723455659825625
-0.26771953917753555
-0.040004069072507864
-0.24925612268253405
-0.28618295567253704
-0.2431016505175243
-0.1692479845375183
-0.02154065257750637
-0.17540245670252808
-0.2554105948475438
-0.21232928969253104
-0.28618295567253704
-0.20002034536253932
-0.07693090206251085
-0.2369471783525424
-0.30464637216753854
-0.23079270618753256
-0.26771953917753555
0.18771140103251985
-0.08923984639250257
-0.396963454642546
-0.28618295567253704
-0.30464637216753854
-0.2800284835075273
-0.2554105948475438
-0.2984919000025288
-0.7416138958825924
0.05846748556750937
0.02769512474251612
-0.24925612268253405
-0.24925612268253405
0.01538618041249662
0.46466264845757
0.10770326288750408
0.04615854123751762
-0.21848376185754081
-0.2738740113425453
-0.20002034536253932
-0.1384756237125251
-0.13232115154751534
-0.18155692886753785
-0.28618295567253704
-0.21232928969253104
-0.28618295567253704
-0.18771140103251985
-0.11385773505251384
-0.36619109381755277
-0.8154675618626261
-0.47697159278756174
-0.15693904020752658
-0.18155692886753785
-0.29233742783754685
-0.26771953917753555
-0.2738740113425453
-0.15078456804251686
-0.08923984639250257
-0.05846748556750937
0.1015487907225221
0.07693090206251085
-0.18155692886753785
-0.2800284835075273
-0.003077236082504875
0.009231708247514623
-0.1692479845375183
-0.1692479845375183
-0.05231301340249961
-0.13232115154751534
-0.20617481752752131
-0.1692479845375183
-0.15078456804251686
-0.15078456804251686
0.02154065257750637
-0.1015487907225221
-0.15078456804251686
-0.08923984639250257
-0.21848376185754081
-0.1938658731975296
-0.3538821494875609
-0.360036621652543
-0.28618295567253704
-0.17540245670252808
-0.1015487907225221
0.1938658731975296
-0.15693904020752658
0.08308537422752059
0.7169960072226089
-0.3723455659825625
-0.2431016505175243
-0.23079270618753256
-0.15078456804251686
-0.4708171206225797
-0.889321227842632
-0.7108415350575992
-0.47697159278756174
-0.33541873299255964
-0.2554105948475438
-0.15078456804251686
-0.01538618041249662
0.7293049515526008
-0.9324025329976448
-0.09539431855751236
0.28618295567253704
-0.02769512474251612
-0.20002034536253932
-0.2554105948475438
-0.28618295567253704
-0.5262073701075842
-0.7046870628925892
-0.44619923196256844
-0.3538821494875609
-0.28618295567253704
-0.28618295567253704
-0.14463009587750708
-0.033849596907498114
0.20002034536253932
-0.12001220721752358
-0.3108008443325483
-0.2800284835075273
-0.30464637216753854
-0.2984919000025288
-0.3108008443325483
-0.20002034536253932
-0.1015487907225221
-0.24925612268253405
-0.10770326288750408
-0.21848376185754081
-0.28618295567253704
-0.2984919000025288
-0.20617481752752131
-0.08308537422752059
-0.11385773505251384
-0.1261666793825056
-0.05231301340249961
-0.20617481752752131
-0.2369471783525424
-0.23079270618753256
-0.18771140103251985
-0.1261666793825056
-0.12001220721752358
-0.32310978866254003
-0.26156506701252585
-0.2246382340225228
-0.17540245670252808
-0.16309351237253633
-0.16309351237253633
-0.08923984639250257
-0.1384756237125251
-0.16309351237253633
-0.14463009587750708
-0.15078456804251686
-0.08308537422752059
-0.2246382340225228
-0.3538821494875609
-0.15078456804251686
-0.1938658731975296
-0.21848376185754081
-0.11385773505251384
-0.11385773505251384
-0.09539431855751236
-0.08923984639250257
-0.1384756237125251
-0.6923781185625978
-0.390808982477564
0.427735815467567
0.1261666793825056
0.23079270618753256
0.04615854123751762
-0.1015487907225221
-0.009231708247514623
-0.009231708247514623
-0.16309351237253633
-0.20002034536253932
-0.2431016505175243
-0.20002034536253932
-0.20617481752752131
-0.1938658731975296
-0.20002034536253932
-0.16309351237253633
0.033849596907498114
-0.01538618041249662
-0.07693090206251085
-0.05231301340249961
-0.12001220721752358
-0.1692479845375183
-0.18771140103251985
0.009231708247514623
-0.003077236082504875
-0.02154065257750637
-0.0707764298975011
-0.10770326288750408
-0.02769512474251612
0.02154065257750637
-0.06462195773251911
0.003077236082504875
-0.08308537422752059
-0.1384756237125251
-0.14463009587750708
-0.1692479845375183
-0.10770326288750408
-0.04615854123751762
-0.08308537422752059
-0.04615854123751762
-0.16309351237253633
-0.14463009587750708
-0.08308537422752059
0.1015487907225221
0.5015894814475731
1.0554919762976458
-0.3292642608275498
-0.29233742783754685
-0.6923781185625978
-0.427735815467567
-0.29233742783754685
-0.2431016505175243
-0.2246382340225228
-0.23079270618753256
-0.15078456804251686
-0.08308537422752059
-0.20002034536253932
-0.21848376185754081
-0.11385773505251384
-0.12001220721752358
-0.16309351237253633
-0.16309351237253633
-0.2369471783525424
-0.04615854123751762
0.06462195773251911
-0.09539431855751236
-0.13232115154751534
-0.1384756237125251
-0.13232115154751534
-0.15693904020752658
-0.1692479845375183
-0.08308537422752059
-0.18771140103251985
-0.13232115154751534
-0.16309351237253633
-0.18155692886753785
-0.1938658731975296
-0.20617481752752131
-0.1938658731975296
-0.2246382340225228
-0.24925612268253405
-0.1692479845375183
-0.0707764298975011
0.05231301340249961
-0.08923984639250257
-0.15693904020752658
-0.16309351237253633
-0.14463009587750708
-0.10770326288750408
-0.15693904020752658
-0.20617481752752131
-0.1938658731975296
-0.20002034536253932
-0.17540245670252808
-0.2738740113425453
-0.15693904020752658
-0.30464637216753854
-0.1938658731975296
-0.1015487907225221
-0.10770326288750408
-0.11385773505251384
-0.05231301340249961
0.0707764298975011
-0.02769512474251612
-0.21232928969253104
-0.11385773505251384
-0.10770326288750408
-0.31695531649755804
-0.9693293659876481
0.0707764298975011
0.29233742783754685
0.040004069072507864
-0.14463009587750708
-0.14463009587750708
-0.11385773505251384
-0.02154065257750637
-0.01538618041249662
-0.07693090206251085
-0.05846748556750937
-0.05846748556750937
-0.17540245670252808
-0.15693904020752658
-0.0707764298975011
0.16309351237253633
0.01538618041249662
0.04615854123751762
-0.033849596907498114
-0.08308537422752059
-0.17540245670252808
-0.18155692886753785
-0.1261666793825056
-0.12001220721752358
-0.09539431855751236
-0.20002034536253932
-0.20002034536253932
-0.18771140103251985
-0.30464637216753854
-0.21232928969253104
-0.07693090206251085
-0.20617481752752131
-0.2554105948475438
-0.06462195773251911
-0.07693090206251085
-0.1261666793825056
-0.15078456804251686
-0.16309351237253633
-0.14463009587750708
-0.02769512474251612
-0.003077236082504875
-0.1261666793825056
-0.1692479845375183
-0.20617481752752131
-0.23079270618753256
-0.06462195773251911
-0.1692479845375183
-0.12001220721752358
-0.15693904020752658
-0.16309351237253633
-0.18155692886753785
-0.1938658731975296
-0.21848376185754081
-0.18771140103251985
-0.18155692886753785
-0.2246382340225228
-0.20617481752752131
-0.21232928969253104
0.05231301340249961
0.6554512855725947
-0.2800284835075273
-0.2800284835075273
-0.11385773505251384
-0.15693904020752658
-0.18155692886753785
-0.15078456804251686
-0.16309351237253633
-0.7846952010376053
-0.6431423412426027
-0.2431016505175243
-0.14463009587750708
-0.08308537422752059
-0.1015487907225221
-0.20002034536253932
-0.12001220721752358
-0.05231301340249961
-0.21232928969253104
-0.14463009587750708
-0.17540245670252808
-0.21848376185754081
-0.1261666793825056
-0.1261666793825056
-0.11385773505251384
-0.17540245670252808
-0.2431016505175243
-0.18771140103251985
-0.18771140103251985
-0.17540245670252808
-0.18771140103251985
-0.16309351237253633
0.9200935886676254
-0.10770326288750408
-1.0308740876376343
-0.3723455659825625
-0.20002034536253932
-0.20002034536253932
-0.20617481752752131
-0.2554105948475438
-0.20002034536253932
-0.2554105948475438
-0.2369471783525424
-0.18155692886753785
-0.2431016505175243
-0.24925612268253405
-0.21232928969253104
-0.24925612268253405
-0.1692479845375183
-0.15693904020752658
-0.003077236082504875
-0.14463009587750708
-0.1938658731975296
-0.2369471783525424
-0.1692479845375183
-0.10770326288750408
-0.1015487907225221
-0.26156506701252585
-0.2984919000025288
-0.26156506701252585
-0.2554105948475438
-0.15078456804251686
0.003077236082504875
-0.2431016505175243
-0.8400854505226096
0.08923984639250257
0.23079270618753256
-0.1015487907225221
-0.17540245670252808
-0.17540245670252808
-0.18155692886753785
-0.21848376185754081
-0.16309351237253633
-0.26771953917753555
-0.16309351237253633
-0.16309351237253633
-0.26771953917753555
-0.360036621652543
-0.2431016505175243
-0.17540245670252808
0.02769512474251612
-0.01538618041249662
-0.1384756237125251
-0.20617481752752131
-0.20617481752752131
-0.1692479845375183
-0.10770326288750408
-0.17540245670252808
0.42158134330255725
0.16309351237253633
-0.2554105948475438
-0.2800284835075273
-0.4092723989725655
-0.21848376185754081
-0.12001220721752358
-0.1692479845375183
-0.360036621652543
-0.8154675618626261
-0.4831260649525715
-0.3538821494875609
-0.2800284835075273
-0.24925612268253405
-0.26771953917753555
-0.2369471783525424
-0.21848376185754081
-0.360036621652543
-0.16309351237253633
-0.07693090206251085
-0.11385773505251384
-0.05231301340249961
-0.12001220721752358
-0.20002034536253932
-0.15693904020752658
-0.30464637216753854
-0.2738740113425453
-0.2738740113425453
-0.2554105948475438
-0.2369471783525424
-0.28618295567253704
-0.28618295567253704
-0.21848376185754081
-0.37850003814754446
-0.01538618041249662
0.8647033391826209
-0.4092723989725655
-0.1692479845375183
-0.1692479845375183
-0.24925612268253405
-0.6862236463975879
-0.8523943948526291
-0.30464637216753854
-0.2369471783525424
-0.2554105948475438
-0.3108008443325483
-0.33541873299255964
-0.26771953917753555
-0.1261666793825056
-0.20617481752752131
-0.20002034536253932
-0.2554105948475438
-0.21848376185754081
-0.1692479845375183
-0.18771140103251985
-0.23079270618753256
-0.20617481752752131
-0.21848376185754081
-0.20617481752752131
-0.1261666793825056
-0.15693904020752658
-0.20617481752752131
-0.2246382340225228
-0.2369471783525424
-0.2246382340225228
-0.2554105948475438
-0.20002034536253932
-0.21232928969253104
-0.20002034536253932
-0.1692479845375183
-0.16309351237253633
-0.1692479845375183
-0.20002034536253932
-0.26156506701252585
-0.28618295567253704
-0.26771953917753555
-0.3292642608275498
-0.26771953917753555
-0.2369471783525424
-0.32310978866254003
-0.1692479845375183
-0.1938658731975296
-0.26156506701252585
-0.26771953917753555
-0.30464637216753854
-0.2554105948475438
-0.2738740113425453
-0.26156506701252585
-0.2554105948475438
-0.3108008443325483
-0.31695531649755804
-0.33541873299255964
-0.2984919000025288
0.07693090206251085
-0.1384756237125251
-0.23079270618753256
-0.28618295567253704
-0.4831260649525715
-1.0247196154726523
0.04615854123751762
0.09539431855751236
-0.13232115154751534
-0.11385773505251384
-0.10770326288750408
-0.1692479845375183
-0.10770326288750408
-0.08308537422752059
-0.11385773505251384
-0.427735815467567
-0.2984919000025288
-0.13232115154751534
-0.08308537422752059
-0.11385773505251384
-0.0707764298975011
-0.009231708247514623
-0.06462195773251911
-0.02154065257750637
0.040004069072507864
0.040004069072507864
0.6062155082525723
0.08308537422752059
-0.4831260649525715
-0.06462195773251911
0.05846748556750937
0.003077236082504875
0.01538618041249662
0.08308537422752059
0.23079270618753256
0.14463009587750708
0.15693904020752658
0.17540245670252808
0.14463009587750708
0.10770326288750408
0.0707764298975011
0.1015487907225221
0.1384756237125251
-0.003077236082504875
0.0707764298975011
0.08308537422752059
-0.01538618041249662
-0.02769512474251612
-0.040004069072507864
-0.11385773505251384
-0.18155692886753785
-0.10770326288750408
-0.07693090206251085
-0.12001220721752358
-0.09539431855751236
-0.07693090206251085
-0.12001220721752358
-0.09539431855751236
-0.08923984639250257
-0.1692479845375183
-0.11385773505251384
-0.14463009587750708
-0.20002034536253932
0.1261666793825056
0.8216220340276081
-0.46466264845757
-0.4708171206225797
-0.9200935886676254
-0.5323618422725662
-0.3846545103125543
-0.360036621652543
-0.32310978866254003
-0.3846545103125543
-0.40311792680755576
-0.30464637216753854
-0.575443147427579
-0.5323618422725662
-0.46466264845757
-0.4400447597975588
-0.4585081762925601
-0.4523537041275505
-0.42158134330255725
-0.396963454642546
-0.5262073701075842
-0.4585081762925601
-0.4400447597975588
-0.44619923196256844
-0.4523537041275505
-0.427735815467567
-0.32310978866254003
-0.2800284835075273
-0.427735815467567
-0.37850003814754446
-0.360036621652543
-0.33541873299255964
-0.3108008443325483
-0.33541873299255964
-0.28618295567253704
-0.2369471783525424
-0.390808982477564
-0.29233742783754685
-0.2554105948475438
-0.28618295567253704
-0.2554105948475438
-0.29233742783754685
-0.433890287632549
-0.26771953917753555
-0.33541873299255964
-0.24925612268253405
-0.21848376185754081
-0.18771140103251985
-0.14463009587750708
-0.17540245670252808
-0.15693904020752658
-0.1015487907225221
-0.21848376185754081
-0.16309351237253633
-0.13232115154751534
-0.1261666793825056
0.009231708247514623
0.02769512474251612
-0.02769512474251612
-0.01538618041249662
-0.15078456804251686
-0.07693090206251085
-0.08923984639250257
-0.23079270618753256
-0.8216220340276081
0.2554105948475438
0.33541873299255964
0.07693090206251085
-0.10770326288750408
-0.08308537422752059
-0.04615854123751762
0.05231301340249961
-0.08923984639250257
-0.07693090206251085
-0.06462195773251911
-0.08308537422752059
-0.11385773505251384
-0.1015487907225221
-0.11385773505251384
-0.13232115154751534
-0.13232115154751534
-0.1261666793825056
-0.09539431855751236
-0.09539431855751236
-0.18771140103251985
-0.12001220721752358
-0.04615854123751762
-0.06462195773251911
-0.05846748556750937
-0.08308537422752059
-0.07693090206251085
-0.08308537422752059
-0.15693904020752658
-0.1261666793825056
-0.08923984639250257
-0.11385773505251384
-0.14463009587750708
-0.10770326288750408
-0.1261666793825056
-0.1692479845375183
-0.15693904020752658
0.3723455659825625
0.2738740113425453
-0.009231708247514623
-0.09539431855751236
-0.13232115154751534
-0.08923984639250257
-0.11385773505251384
-0.23079270618753256
-0.16309351237253633
-0.2246382340225228
-0.20617481752752131
-0.20002034536253932
-0.21848376185754081
-0.15078456804251686
-0.23079270618753256
-0.7600773123775938
-0.5569797309325777
-0.2800284835075273
-0.2369471783525424
-0.2369471783525424
-0.17540245670252808
0.15078456804251686
0.6800691742326057
-0.2554105948475438
-0.11385773505251384
-0.1015487907225221
-0.1015487907225221
-0.08308537422752059
-0.14463009587750708
-0.1938658731975296
-0.6062155082525723
-0.47697159278756174
-0.2800284835075273
-0.2246382340225228
-0.2369471783525424
-0.21848376185754081
-0.18771140103251985
-0.13232115154751534
-0.2246382340225228
-0.21232928969253104
-0.17540245670252808
-0.15078456804251686
-0.1938658731975296
-0.2246382340225228
-0.2738740113425453
-0.3846545103125543
-0.3292642608275498
-0.24925612268253405
-0.20002034536253932
-0.21232928969253104
-0.18155692886753785
-0.11385773505251384
-0.10770326288750408
-0.0707764298975011
-0.21232928969253104
-0.17540245670252808
-0.16309351237253633
-0.20002034536253932
-0.18155692886753785
-0.15078456804251686
-0.15693904020752658
0.40311792680755576
0.07693090206251085
-0.5692886752625692
0.3846545103125543
0.04615854123751762
-0.01538618041249662
-0.04615854123751762
-0.08308537422752059
-0.29233742783754685
-0.7785407288726233
-0.427735815467567
-0.2554105948475438
-0.20002034536253932
-0.11385773505251384
-0.20617481752752131
-0.21232928969253104
-0.1015487907225221
-0.15693904020752658
-0.1261666793825056
-0.11385773505251384
-0.09539431855751236
-0.1692479845375183
-0.20002034536253932
-0.14463009587750708
-0.1015487907225221
-0.23079270618753256
-0.1938658731975296
-0.20002034536253932
-0.09539431855751236
-0.08308537422752059
-0.1261666793825056
-0.13232115154751534
-0.10770326288750408
-0.23079270618753256
-0.18155692886753785
-0.14463009587750708
-0.1692479845375183
-0.18771140103251985
-0.18771140103251985
-0.1692479845375183
-0.14463009587750708
-0.24925612268253405
-0.1938658731975296
-0.11385773505251384
-0.11385773505251384
-0.15693904020752658
-0.18771140103251985
-0.17540245670252808
-0.10770326288750408
-0.1938658731975296
-0.15693904020752658
-0.1938658731975296
-0.1938658731975296
-0.17540245670252808
-0.1692479845375183
-0.1384756237125251
-0.1261666793825056
-0.23079270618753256
-0.20002034536253932
-0.1938658731975296
