0.1015487907225221
0.1384756237125251
-0.26771953917753555
-0.24925612268253405
-0.24925612268253405
-0.2431016505175243
-0.26771953917753555
-0.29233742783754685
-0.26156506701252585
-0.2246382340225228
-0.3846545103125543
-0.29233742783754685
-0.2000203453625393
-0.23694717835254234
-0.24925612268253405
-0.2800284835075273
-0.23694717835254234
-0.21232928969253104
-0.3354187329925596
-0.29233742783754685
-0.2984919000025288
-0.2738740113425453
-0.24925612268253405
-0.32310978866254003
-0.2738740113425453
0.6123699804175821
-0.18771140103251985
-0.3723455659825625
-0.3415732051575415
-0.2984919000025288
-0.28618295567253704
-0.2738740113425453
-0.26771953917753555
-0.6062155082525723
-0.8462399226876194
-0.47697159278756174
-0.360036621652543
-0.30464637216753854
-0.29233742783754685
-0.30464637216753854
-0.28618295567253704
-0.13232115154751534
-0.23694717835254234
-0.30464637216753854
-0.29233742783754685
-0.26771953917753555
-0.23079270618753256
-0.2184837618575408
-0.21232928969253104
-0.21232928969253104
-0.2738740113425453
-0.24925612268253405
-0.23694717835254234
-0.23694717835254234
-0.23694717835254234
-0.30464637216753854
-0.2554105948475438
0.06462195773251911
0.5815976195925888
-0.3723455659825625
-0.2246382340225228
-0.23079270618753256
-0.2061748175275213
-0.1938658731975296
-0.23694717835254234
-0.6431423412426028
-0.6800691742326058
-0.3415732051575415
-0.3108008443325483
-0.30464637216753854
-0.2738740113425453
-0.24925612268253405
-0.18155692886753785
-0.2061748175275213
-0.29233742783754685
-0.2738740113425453
-0.2000203453625393
-0.2184837618575408
-0.24925612268253405
-0.26156506701252585
-0.24925612268253405
-0.2184837618575408
-0.2554105948475438
-0.2431016505175243
-0.2554105948475438
-0.26156506701252585
-0.24925612268253405
-0.2800284835075273
-0.2738740113425453
-0.24925612268253405
-0.29233742783754685
-0.28618295567253704
-0.2800284835075273
-0.2800284835075273
-0.24925612268253405
-0.24925612268253405
-0.24925612268253405
-0.26156506701252585
-0.29233742783754685
-0.2738740113425453
-0.2800284835075273
-0.15693904020752658
-0.09539431855751236
-0.23694717835254234
-0.2061748175275213
-0.2184837618575408
-0.24925612268253405
-0.2431016505175243
-0.2184837618575408
-0.23079270618753256
-0.2554105948475438
-0.24925612268253405
-0.2061748175275213
-0.2246382340225228
-0.3108008443325483
-0.3292642608275498
-0.18155692886753785
-0.10770326288750408
-0.2554105948475438
-0.26156506701252585
-0.2984919000025288
-0.8708578113476306
0.05231301340249961
0.07693090206251085
-0.1384756237125251
-0.21232928969253104
-0.2184837618575408
-0.21232928969253104
-0.17540245670252808
-0.28618295567253704
-0.36619109381755277
-0.2554105948475438
-0.15078456804251686
-0.2000203453625393
-0.2184837618575408
-0.2431016505175243
-0.23079270618753256
-0.24925612268253405
-0.2061748175275213
-0.28618295567253704
-0.30464637216753854
-0.26771953917753555
-0.26156506701252585
-0.2738740113425453
-0.2738740113425453
-0.32310978866254003
-0.1692479845375183
0.2061748175275213
-0.02769512474251612
-0.1384756237125251
-0.1938658731975296
-0.2431016505175243
-0.16309351237253633
-0.24925612268253405
-0.29233742783754685
-0.26156506701252585
-0.26771953917753555
-0.18771140103251985
-0.21232928969253104
-0.28618295567253704
-0.2061748175275213
-0.5508252587675677
-0.9816383103176396
-0.5631342030975872
-0.40927239897256545
-0.3292642608275498
-0.2984919000025288
-0.3354187329925596
-0.2554105948475438
-0.29233742783754685
-0.2800284835075273
-0.2246382340225228
-0.2061748175275213
-0.23079270618753256
-0.2738740113425453
-0.26156506701252585
-0.11385773505251384
-0.18771140103251985
-0.3108008443325483
0.01538618041249662
0.5939065639225805
-0.44619923196256844
-0.23694717835254234
-0.17540245670252808
-0.31695531649755804
-0.8216220340276081
-0.5015894814475731
-0.3415732051575415
-0.2738740113425453
-0.2984919000025288
-0.3415732051575415
-0.2738740113425453
-0.2061748175275213
-0.31695531649755804
-0.2984919000025288
-0.29233742783754685
-0.2554105948475438
-0.24925612268253405
-0.24925612268253405
-0.2431016505175243
-0.2061748175275213
-0.30464637216753854
-0.2554105948475438
-0.2246382340225228
-0.23694717835254234
-0.26156506701252585
-0.2738740113425453
-0.32310978866254003
-0.26156506701252585
-0.36619109381755277
-0.2984919000025288
-0.3108008443325483
-0.31695531649755804
-0.2738740113425453
-0.23694717835254234
-0.2246382340225228
-0.13232115154751534
-0.2800284835075273
-0.26771953917753555
-0.2738740113425453
-0.24925612268253405
-0.16309351237253633
-0.23079270618753256
-0.23694717835254234
-0.15693904020752658
-0.2984919000025288
-0.26156506701252585
-0.2554105948475438
-0.2431016505175243
-0.2738740113425453
-0.26156506701252585
-0.23079270618753256
-0.13232115154751534
-0.2800284835075273
-0.32310978866254003
-0.26156506701252585
-0.15693904020752658
-0.17540245670252808
-0.2246382340225228
-0.2184837618575408
-0.15078456804251686
-0.2431016505175243
-0.3723455659825625
-0.901630172172624
0.08923984639250258
0.1015487907225221
-0.2061748175275213
-0.14463009587750708
-0.11385773505251384
-0.29233742783754685
-0.23694717835254234
-0.1938658731975296
-0.2061748175275213
-0.21232928969253104
-0.18155692886753785
-0.18771140103251985
-0.1692479845375183
-0.26156506701252585
-0.2061748175275213
-0.2184837618575408
-0.2061748175275213
-0.2000203453625393
-0.18155692886753785
-0.14463009587750708
-0.1261666793825056
-0.26156506701252585
-0.2184837618575408
-0.2246382340225228
-0.2184837618575408
-0.18771140103251985
-0.2246382340225228
-0.23694717835254234
-0.1384756237125251
-0.2246382340225228
-0.1938658731975296
-0.18155692886753785
-0.2000203453625393
-0.2061748175275213
-0.16309351237253633
-0.1384756237125251
-0.08923984639250258
-0.21232928969253104
-0.2738740113425453
-0.21232928969253104
-0.16309351237253633
-0.18771140103251985
-0.23694717835254234
-0.1692479845375183
-0.10770326288750408
-0.1938658731975296
-0.18155692886753785
-0.17540245670252808
-0.2000203453625393
-0.1938658731975296
-0.21232928969253104
-0.2061748175275213
-0.04615854123751762
-0.16309351237253633
-0.1938658731975296
-0.17540245670252808
-0.15693904020752658
0.08308537422752059
0.6431423412426028
-0.3415732051575415
-0.5692886752625692
-0.6246789247476013
-0.31695531649755804
-0.26156506701252585
-0.2431016505175243
-0.2800284835075273
-0.2554105948475438
-0.1015487907225221
-0.17540245670252808
-0.24925612268253405
-0.2800284835075273
-0.2800284835075273
-0.2000203453625393
-0.2061748175275213
-0.2061748175275213
-0.17540245670252808
-0.18155692886753785
-0.21232928969253104
-0.18155692886753785
-0.2061748175275213
-0.18771140103251985
-0.18155692886753785
-0.1261666793825056
-0.18771140103251985
-0.2061748175275213
-0.23694717835254234
-0.18771140103251985
-0.14463009587750708
-0.1938658731975296
-0.2000203453625393
-0.2000203453625393
-0.18155692886753785
-0.1938658731975296
-0.26771953917753555
-0.2554105948475438
-0.2800284835075273
-0.2246382340225228
-0.18771140103251985
-0.23694717835254234
-0.02769512474251612
0.35388214948756097
-0.8216220340276081
0.390808982477564
0.08308537422752059
-0.1261666793825056
-0.16309351237253633
-0.18155692886753785
-0.26156506701252585
-0.7169960072226089
-0.5877520917575707
-0.3354187329925596
-0.23694717835254234
-0.18771140103251985
-0.31695531649755804
-0.24925612268253405
-0.17540245670252808
-0.23694717835254234
-0.2431016505175243
-0.23079270618753256
-0.2061748175275213
-0.17540245670252808
-0.2061748175275213
-0.1938658731975296
-0.1015487907225221
-0.15078456804251686
-0.24925612268253405
-0.1692479845375183
-0.10770326288750408
-0.1692479845375183
-0.18155692886753785
-0.15693904020752658
-0.07693090206251085
-0.18771140103251985
-0.2431016505175243
-0.2000203453625393
-0.15078456804251686
-0.1261666793825056
-0.15693904020752658
-0.15693904020752658
-0.0707764298975011
-0.15078456804251686
-0.15078456804251686
-0.14463009587750708
-0.21232928969253104
-0.15078456804251686
-0.1261666793825056
-0.1200122072175236
-0.09539431855751236
-0.15078456804251686
-0.1200122072175236
-0.07693090206251085
-0.09539431855751236
-0.08923984639250258
-0.07693090206251085
-0.0707764298975011
-0.01538618041249662
-0.0707764298975011
0.04615854123751762
0.003077236082504875
-0.07693090206251085
-0.058467485567509365
-0.07693090206251085
-0.15078456804251686
-0.6246789247476013
0.13232115154751534
0.2554105948475438
-0.02154065257750637
-0.04000406907250786
-0.01538618041249662
-0.04000406907250786
-0.08923984639250258
-0.009231708247514623
-0.02769512474251612
-0.0707764298975011
-0.07693090206251085
-0.058467485567509365
-0.05231301340249961
-0.003077236082504875
-0.02154065257750637
0.3354187329925596
0.7908496732026148
-0.23694717835254234
-0.01538618041249662
0.02154065257750637
0.003077236082504875
-0.033849596907498114
-0.01538618041249662
-0.009231708247514623
-0.4708171206225797
-0.18771140103251985
-0.04000406907250786
-0.02769512474251612
-0.04615854123751762
-0.003077236082504875
0.033849596907498114
0.0707764298975011
-0.04000406907250786
0.02769512474251612
0.009231708247514623
0.01538618041249662
-0.033849596907498114
-0.003077236082504875
0.058467485567509365
0.10770326288750408
-0.01538618041249662
-0.02154065257750637
0.02769512474251612
-0.003077236082504875
-0.01538618041249662
0.009231708247514623
0.01538618041249662
0.10770326288750408
0.04000406907250786
0.058467485567509365
0.09539431855751236
0.009231708247514623
0.02769512474251612
0.009231708247514623
0.01538618041249662
0.09539431855751236
-0.04000406907250786
-0.01538618041249662
-0.009231708247514623
-0.003077236082504875
-0.01538618041249662
0.04000406907250786
0.08923984639250258
0.15078456804251686
0.07693090206251085
0.1384756237125251
0.13232115154751534
0.11385773505251384
0.1015487907225221
-0.04000406907250786
-0.01538618041249662
0.009231708247514623
-0.10770326288750408
-0.07693090206251085
-0.04615854123751762
-0.02154065257750637
0.009231708247514623
0.09539431855751236
0.003077236082504875
-0.44619923196256844
0.3723455659825625
0.3415732051575415
0.1200122072175236
0.1261666793825056
0.058467485567509365
0.04615854123751762
0.04000406907250786
0.1384756237125251
0.02769512474251612
0.033849596907498114
0.033849596907498114
0.07693090206251085
0.08923984639250258
0.003077236082504875
0.033849596907498114
0.18155692886753785
0.01538618041249662
0.033849596907498114
0.033849596907498114
0.003077236082504875
-0.009231708247514623
-0.04615854123751762
-0.02154065257750637
0.04000406907250786
-0.04000406907250786
-0.04000406907250786
-0.05231301340249961
-0.058467485567509365
-0.02769512474251612
-0.02769512474251612
-0.003077236082504875
0.01538618041249662
0.003077236082504875
0.18771140103251985
0.08923984639250258
0.02154065257750637
-0.003077236082504875
-0.01538618041249662
0.02769512474251612
0.0707764298975011
-0.003077236082504875
0.033849596907498114
0.06462195773251911
0.06462195773251911
0.0707764298975011
0.08308537422752059
0.07693090206251085
0.11385773505251384
0.08308537422752059
0.11385773505251384
0.11385773505251384
0.1200122072175236
0.15078456804251686
0.17540245670252808
0.18155692886753785
0.16309351237253633
0.1261666793825056
0.427735815467567
0.9754838381526297
-0.2246382340225228
0.04000406907250786
0.08923984639250258
0.1938658731975296
0.18155692886753785
-0.02154065257750637
0.1015487907225221
0.08923984639250258
0.06462195773251911
0.02154065257750637
0.02769512474251612
0.06462195773251911
0.06462195773251911
-0.058467485567509365
-0.02154065257750637
0.003077236082504875
0.033849596907498114
-0.009231708247514623
-0.07693090206251085
-0.40311792680755576
-0.16309351237253633
-0.07693090206251085
-0.033849596907498114
-0.02154065257750637
-0.02769512474251612
-0.07693090206251085
-0.04000406907250786
-0.003077236082504875
-0.02769512474251612
-0.0707764298975011
-0.08923984639250258
-0.08308537422752059
-0.14463009587750708
-0.02154065257750637
0.18771140103251985
0.07693090206251085
-0.04000406907250786
-0.1384756237125251
-0.1015487907225221
-0.07693090206251085
-0.06462195773251911
-0.06462195773251911
-0.11385773505251384
-0.08923984639250258
-0.08923984639250258
-0.15078456804251686
-0.14463009587750708
-0.1938658731975296
-0.08923984639250258
0.04615854123751762
-0.058467485567509365
-0.058467485567509365
-0.09539431855751236
-0.14463009587750708
-0.15693904020752658
-0.2000203453625393
-0.1692479845375183
-0.18155692886753785
-0.18771140103251985
-0.1261666793825056
-0.18155692886753785
-0.390808982477564
-0.9200935886676254
0.10770326288750408
0.2800284835075273
-0.08308537422752059
-0.17540245670252808
-0.14463009587750708
-0.26156506701252585
-0.24925612268253405
-0.21232928969253104
-0.2000203453625393
-0.23079270618753256
-0.26156506701252585
-0.2061748175275213
-0.16309351237253633
-0.2061748175275213
-0.24925612268253405
-0.40311792680755576
-0.7600773123775938
-0.433890287632549
-0.2984919000025288
-0.26156506701252585
0.1938658731975296
-0.2246382340225228
-0.5692886752625692
-0.2984919000025288
-0.2800284835075273
-0.2738740113425453
-0.24925612268253405
-0.2738740113425453
-0.2431016505175243
-0.3354187329925596
-0.21232928969253104
-0.26156506701252585
-0.28618295567253704
-0.24925612268253405
-0.24925612268253405
-0.26156506701252585
-0.2061748175275213
-0.32310978866254003
-0.3292642608275498
-0.2984919000025288
-0.2800284835075273
-0.2984919000025288
-0.2800284835075273
-0.2431016505175243
-0.16309351237253633
-0.30464637216753854
-0.2984919000025288
-0.24925612268253405
-0.21232928969253104
-0.24925612268253405
-0.26771953917753555
-0.23079270618753256
0.2738740113425453
0.6554512855725947
-0.5138984257775646
-0.2984919000025288
-0.2184837618575408
0.04615854123751762
0.1261666793825056
-0.8093130896976164
-0.36619109381755277
-0.7908496732026148
-0.4892805371175811
-0.2800284835075273
-0.26771953917753555
-0.28618295567253704
-0.2738740113425453
-0.2984919000025288
-0.1692479845375183
-0.3292642608275498
-0.29233742783754685
-0.29233742783754685
-0.30464637216753854
-0.34772767732255133
-0.3292642608275498
-0.3292642608275498
-0.3354187329925596
-0.3846545103125543
-0.35388214948756097
-0.3415732051575415
-0.3354187329925596
-0.2800284835075273
-0.2800284835075273
-0.2800284835075273
-0.2061748175275213
-0.2984919000025288
-0.32310978866254003
-0.2800284835075273
-0.21232928969253104
-0.2554105948475438
-0.26771953917753555
-0.2061748175275213
-0.15693904020752658
-0.29233742783754685
-0.29233742783754685
-0.2431016505175243
-0.2554105948475438
-0.2554105948475438
-0.24925612268253405
-0.2431016505175243
-0.1938658731975296
-0.3292642608275498
-0.3108008443325483
-0.2984919000025288
-0.32310978866254003
-0.18771140103251985
-0.3108008443325483
-0.30464637216753854
-0.1938658731975296
-0.360036621652543
-0.30464637216753854
-0.24925612268253405
-0.2554105948475438
-0.26771953917753555
-0.2246382340225228
-0.2000203453625393
-0.14463009587750708
-0.24925612268253405
-0.2554105948475438
-0.18771140103251985
-0.24925612268253405
-0.9324025329976448
0.0707764298975011
0.1261666793825056
-0.0707764298975011
-0.2184837618575408
-0.2061748175275213
-0.2246382340225228
-0.2246382340225228
-0.2738740113425453
-0.24925612268253405
-0.2554105948475438
-0.1938658731975296
-0.28618295567253704
-0.26771953917753555
-0.2554105948475438
-0.23079270618753256
-0.2431016505175243
-0.2554105948475438
-0.2554105948475438
-0.2554105948475438
-0.36619109381755277
-0.3108008443325483
-0.32310978866254003
-0.32310978866254003
-0.2984919000025288
-0.31695531649755804
-0.34772767732255133
-0.26156506701252585
-0.3108008443325483
-0.23079270618753256
-0.23079270618753256
-0.2431016505175243
-0.2431016505175243
-0.23079270618753256
-0.1938658731975296
-0.1692479845375183
-0.2984919000025288
-0.35388214948756097
-0.360036621652543
-0.390808982477564
-0.396963454642546
-0.36619109381755277
-0.3415732051575415
-0.23694717835254234
-0.2061748175275213
-0.28618295567253704
-0.28618295567253704
-0.2738740113425453
-0.24925612268253405
-0.23694717835254234
-0.2246382340225228
-0.15078456804251686
-0.1938658731975296
-0.2000203453625393
-0.2061748175275213
-0.2000203453625393
-0.2000203453625393
-0.23694717835254234
0.058467485567509365
0.7970041453676248
-0.3354187329925596
-0.18771140103251985
-0.21232928969253104
-0.21232928969253104
-0.2184837618575408
-0.2431016505175243
-0.28618295567253704
-0.7416138958825924
-0.7169960072226089
-0.4523537041275505
-0.3723455659825625
-0.30464637216753854
-0.3846545103125543
-0.36619109381755277
-0.34772767732255133
-0.3415732051575415
-0.34772767732255133
-0.3108008443325483
-0.3108008443325483
-0.3108008443325483
-0.2738740113425453
-0.21232928969253104
-0.2000203453625393
-0.2246382340225228
-0.26771953917753555
-0.2800284835075273
-0.24925612268253405
-0.29233742783754685
-0.2554105948475438
-0.2061748175275213
-0.18771140103251985
-0.2000203453625393
-0.2738740113425453
-0.23079270618753256
-0.2061748175275213
-0.2246382340225228
-0.26156506701252585
-0.2431016505175243
-0.15078456804251686
-0.18155692886753785
-0.26771953917753555
-0.2246382340225228
-0.18771140103251985
-0.18155692886753785
-0.2000203453625393
-0.2554105948475438
-0.23079270618753256
-0.23079270618753256
-0.2431016505175243
-0.23079270618753256
-0.23079270618753256
-0.23694717835254234
-0.30464637216753854
-0.3108008443325483
-0.2184837618575408
-0.2800284835075273
-0.30464637216753854
-0.3108008443325483
-0.26156506701252585
-0.15693904020752658
-0.2246382340225228
-0.3846545103125543
-0.889321227842632
0.04615854123751762
0.033849596907498114
-0.18155692886753785
-0.21232928969253104
-0.21232928969253104
-0.24925612268253405
-0.2431016505175243
-0.2246382340225228
-0.24925612268253405
-0.24925612268253405
-0.2800284835075273
-0.28618295567253704
-0.2554105948475438
-0.2184837618575408
-0.24925612268253405
0.21232928969253104
-0.2061748175275213
-0.6000610360875902
-0.3415732051575415
-0.28618295567253704
-0.26771953917753555
-0.23694717835254234
-0.23694717835254234
-0.2000203453625393
-0.30464637216753854
-0.23694717835254234
-0.2246382340225228
-0.2984919000025288
-0.2184837618575408
-0.18771140103251985
-0.2184837618575408
-0.14463009587750708
-0.2000203453625393
-0.1938658731975296
-0.2184837618575408
-0.23694717835254234
-0.2184837618575408
-0.2061748175275213
-0.2246382340225228
-0.15693904020752658
-0.2554105948475438
-0.2000203453625393
-0.21232928969253104
-0.23079270618753256
-0.2000203453625393
-0.2246382340225228
-0.2184837618575408
-0.1261666793825056
-0.29233742783754685
-0.2738740113425453
-0.2246382340225228
-0.2184837618575408
-0.24925612268253405
-0.24925612268253405
-0.2738740113425453
-0.21232928969253104
-0.1938658731975296
0.1384756237125251
0.8708578113476306
-0.4523537041275505
-0.3108008443325483
-0.23694717835254234
-0.2000203453625393
-0.3723455659825625
-0.8523943948526291
-0.538516314437576
-0.32310978866254003
-0.2554105948475438
-0.2984919000025288
-0.31695531649755804
-0.26771953917753555
-0.2431016505175243
-0.4154268711375475
-0.32310978866254003
-0.28618295567253704
-0.30464637216753854
-0.26771953917753555
-0.28618295567253704
-0.2800284835075273
-0.2184837618575408
-0.29233742783754685
-0.24925612268253405
-0.2431016505175243
-0.26771953917753555
-0.3108008443325483
-0.24925612268253405
-0.18155692886753785
-0.15693904020752658
-0.30464637216753854
-0.2738740113425453
-0.2431016505175243
-0.23079270618753256
-0.2246382340225228
-0.23694717835254234
-0.23694717835254234
-0.18771140103251985
-0.2984919000025288
-0.26771953917753555
-0.2431016505175243
-0.2738740113425453
-0.23694717835254234
-0.21232928969253104
-0.2800284835075273
-0.17540245670252808
-0.28618295567253704
-0.2800284835075273
-0.26771953917753555
-0.2431016505175243
-0.26156506701252585
-0.26156506701252585
-0.23079270618753256
-0.18771140103251985
-0.3108008443325483
-0.26771953917753555
-0.2984919000025288
-0.2246382340225228
-0.16309351237253633
-0.21232928969253104
-0.21232928969253104
-0.16309351237253633
-0.390808982477564
-0.8831667556776225
0.06462195773251911
0.08923984639250258
-0.17540245670252808
-0.2431016505175243
-0.2554105948475438
0.6308333969125834
-0.1938658731975296
-0.37850003814754446
-0.23079270618753256
-0.2184837618575408
-0.26771953917753555
-0.26156506701252585
-0.2431016505175243
-0.5877520917575707
-0.7970041453676248
-0.4400447597975588
-0.34772767732255133
-0.2984919000025288
-0.2800284835075273
-0.3108008443325483
-0.26771953917753555
-0.2184837618575408
-0.3723455659825625
-0.26771953917753555
-0.26156506701252585
-0.29233742783754685
-0.24925612268253405
-0.26156506701252585
-0.23694717835254234
-0.2246382340225228
-0.30464637216753854
-0.26156506701252585
-0.2554105948475438
-0.2554105948475438
-0.23694717835254234
-0.26771953917753555
-0.2554105948475438
-0.31695531649755804
-0.1261666793825056
0.1384756237125251
-0.1015487907225221
-0.18155692886753785
-0.23694717835254234
-0.2554105948475438
-0.23079270618753256
-0.23694717835254234
-0.2984919000025288
-0.2246382340225228
-0.26771953917753555
-0.26156506701252585
-0.2554105948475438
-0.2800284835075273
-0.2184837618575408
-0.16309351237253633
-0.29233742783754685
-0.2800284835075273
-0.23079270618753256
0.09539431855751236
0.6246789247476013
-0.390808982477564
-0.2184837618575408
-0.5877520917575707
-0.6431423412426028
-0.3723455659825625
-0.29233742783754685
-0.23694717835254234
-0.24925612268253405
-0.32310978866254003
-0.2800284835075273
-0.1200122072175236
-0.2800284835075273
-0.2984919000025288
-0.2431016505175243
-0.18155692886753785
-0.18771140103251985
-0.17540245670252808
-0.13232115154751534
-0.15078456804251686
-0.24925612268253405
-0.26156506701252585
-0.2738740113425453
-0.3108008443325483
-0.31695531649755804
-0.45850817629256013
-0.7046870628925893
-0.47697159278756174
-0.360036621652543
-0.29233742783754685
-0.2554105948475438
-0.2184837618575408
-0.2246382340225228
-0.23079270618753256
-0.21232928969253104
-0.23694717835254234
-0.26771953917753555
-0.23694717835254234
-0.26771953917753555
-0.29233742783754685
-0.2554105948475438
-0.23079270618753256
-0.21232928969253104
-0.2246382340225228
-0.23079270618753256
-0.2184837618575408
-0.24925612268253405
-0.2246382340225228
-0.23694717835254234
-0.2431016505175243
-0.16309351237253633
-0.21232928969253104
-0.26771953917753555
-0.2061748175275213
-0.21232928969253104
-0.07693090206251085
0.04000406907250786
-0.1692479845375183
-0.2000203453625393
-0.2000203453625393
-0.2061748175275213
-0.1938658731975296
-0.32310978866254003
-0.8277765061926179
0.15078456804251686
0.1692479845375183
-0.09539431855751236
-0.1938658731975296
-0.15693904020752658
-0.1384756237125251
-0.26156506701252585
-0.390808982477564
-0.28618295567253704
-0.21232928969253104
0.26771953917753555
-0.1384756237125251
-0.538516314437576
-0.2738740113425453
-0.2000203453625393
-0.18771140103251985
-0.21232928969253104
-0.1938658731975296
-0.11385773505251384
-0.2246382340225228
-0.2061748175275213
-0.08923984639250258
-0.2061748175275213
-0.21232928969253104
-0.1938658731975296
-0.15078456804251686
-0.02769512474251612
-0.18155692886753785
-0.18155692886753785
-0.11385773505251384
-0.13232115154751534
-0.1261666793825056
-0.15078456804251686
-0.1261666793825056
-0.058467485567509365
-0.18771140103251985
-0.02769512474251612
-0.13232115154751534
-0.14463009587750708
-0.08923984639250258
-0.10770326288750408
-0.11385773505251384
-0.07693090206251085
-0.14463009587750708
-0.15078456804251686
-0.1384756237125251
-0.11385773505251384
-0.11385773505251384
-0.10770326288750408
-0.11385773505251384
-0.04615854123751762
0.1015487907225221
0.23079270618753256
0.04000406907250786
-0.02769512474251612
-0.06462195773251911
-0.04000406907250786
0.23694717835254234
0.5262073701075842
-0.7846952010376053
-0.2431016505175243
-0.09539431855751236
-0.009231708247514623
0.003077236082504875
-0.0707764298975011
-0.0707764298975011
-0.10770326288750408
-0.29233742783754685
-0.1200122072175236
-0.0707764298975011
-0.058467485567509365
-0.06462195773251911
-0.02769512474251612
-0.003077236082504875
0.058467485567509365
-0.04615854123751762
0.003077236082504875
-0.033849596907498114
-0.01538618041249662
0.01538618041249662
0.058467485567509365
0.058467485567509365
0.08308537422752059
-0.04000406907250786
0.033849596907498114
0.033849596907498114
0.003077236082504875
0.02769512474251612
0.033849596907498114
0.01538618041249662
0.04615854123751762
-0.09539431855751236
-0.01538618041249662
0.04615854123751762
0.04000406907250786
0.0707764298975011
0.1384756237125251
-0.02154065257750637
0.06462195773251911
-0.02154065257750637
0.003077236082504875
0.033849596907498114
0.02769512474251612
-0.003077236082504875
-0.009231708247514623
0.009231708247514623
0.10770326288750408
0.009231708247514623
0.003077236082504875
-0.02769512474251612
-0.02769512474251612
0.033849596907498114
0.05231301340249961
0.06462195773251911
0.13232115154751534
0.01538618041249662
0.04615854123751762
0.09539431855751236
0.11385773505251384
0.09539431855751236
0.003077236082504875
-0.44619923196256844
0.42158134330255725
0.3415732051575415
0.1384756237125251
0.09539431855751236
0.18771140103251985
0.08923984639250258
0.09539431855751236
0.1200122072175236
0.16309351237253633
0.04615854123751762
0.10770326288750408
0.11385773505251384
0.058467485567509365
0.05231301340249961
0.02769512474251612
0.058467485567509365
0.09539431855751236
-0.033849596907498114
0.009231708247514623
0.11385773505251384
0.10770326288750408
0.003077236082504875
0.01538618041249662
0.06462195773251911
0.02154065257750637
-0.058467485567509365
0.003077236082504875
0.003077236082504875
0.02769512474251612
-0.02154065257750637
-0.02769512474251612
0.02154065257750637
-0.009231708247514623
-0.06462195773251911
-0.01538618041249662
-0.09539431855751236
-0.04615854123751762
0.009231708247514623
0.01538618041249662
0.02154065257750637
-0.003077236082504875
-0.04615854123751762
0.02769512474251612
0.02769512474251612
0.033849596907498114
0.009231708247514623
0.01538618041249662
0.01538618041249662
0.02769512474251612
-0.06462195773251911
0.01538618041249662
0.02154065257750637
-0.01538618041249662
-0.003077236082504875
0.009231708247514623
-0.009231708247514623
0.02769512474251612
0.2738740113425453
0.8216220340276081
-0.26771953917753555
-0.058467485567509365
0.02154065257750637
-0.04000406907250786
-0.02154065257750637
-0.36619109381755277
-0.390808982477564
-0.08308537422752059
-0.003077236082504875
-0.003077236082504875
-0.003077236082504875
-0.033849596907498114
0.009231708247514623
0.033849596907498114
-0.003077236082504875
0.003077236082504875
0.009231708247514623
0.04615854123751762
0.003077236082504875
0.009231708247514623
0.23694717835254234
0.5631342030975872
-0.5877520917575707
0.4892805371175811
0.2246382340225228
0.07693090206251085
0.058467485567509365
0.08308537422752059
0.04000406907250786
-0.37850003814754446
-0.2246382340225228
-0.02769512474251612
0.02154065257750637
0.02769512474251612
0.033849596907498114
-0.02769512474251612
-0.08308537422752059
0.009231708247514623
-0.003077236082504875
0.009231708247514623
0.01538618041249662
0.058467485567509365
0.033849596907498114
0.01538618041249662
0.07693090206251085
-0.02154065257750637
-0.01538618041249662
0.02154065257750637
-0.01538618041249662
0.07693090206251085
0.2431016505175243
0.058467485567509365
0.0707764298975011
-0.02769512474251612
-0.009231708247514623
0.009231708247514623
0.009231708247514623
0.02769512474251612
0.009231708247514623
-0.02154065257750637
-0.003077236082504875
-0.058467485567509365
-0.01538618041249662
-0.003077236082504875
-0.003077236082504875
-0.06462195773251911
-0.1015487907225221
-0.02769512474251612
0.003077236082504875
-0.003077236082504875
0.02769512474251612
0.1200122072175236
0.1384756237125251
0.18771140103251985
0.1261666793825056
0.09539431855751236
0.10770326288750408
0.003077236082504875
-0.07693090206251085
-0.08308537422752059
-0.01538618041249662
-0.0707764298975011
-0.04615854123751762
-0.08923984639250258
-0.46466264845757
0.23079270618753256
0.30464637216753854
0.06462195773251911
0.02769512474251612
0.01538618041249662
0.003077236082504875
0.02154065257750637
0.08308537422752059
-0.0707764298975011
-0.003077236082504875
0.058467485567509365
0.01538618041249662
-0.01538618041249662
-0.01538618041249662
0.02154065257750637
0.08923984639250258
-0.02154065257750637
-0.04000406907250786
-0.02769512474251612
0.009231708247514623
0.009231708247514623
-0.003077236082504875
-0.009231708247514623
0.01538618041249662
-0.07693090206251085
-0.11385773505251384
-0.10770326288750408
-0.05231301340249961
-0.02769512474251612
-0.003077236082504875
0.02154065257750637
0.06462195773251911
-0.033849596907498114
-0.04000406907250786
-0.02769512474251612
0.2800284835075273
0.7539228402126119
-0.2431016505175243
-0.06462195773251911
-0.15078456804251686
-0.4400447597975588
-0.13232115154751534
-0.08308537422752059
-0.04000406907250786
-0.02769512474251612
-0.02154065257750637
0.02154065257750637
0.05231301340249961
-0.02769512474251612
0.01538618041249662
-0.02154065257750637
0.003077236082504875
0.033849596907498114
-0.05231301340249961
-0.02769512474251612
0.04615854123751762
-0.0707764298975011
-0.009231708247514623
0.009231708247514623
0.009231708247514623
0.003077236082504875
0.009231708247514623
0.033849596907498114
0.09539431855751236
-0.08308537422752059
-0.02154065257750637
0.003077236082504875
-0.02769512474251612
-0.02154065257750637
0.058467485567509365
0.04615854123751762
0.04615854123751762
-0.04615854123751762
-0.009231708247514623
0.009231708247514623
0.01538618041249662
0.003077236082504875
-0.04615854123751762
-0.04000406907250786
0.003077236082504875
-0.1261666793825056
-0.08308537422752059
-0.058467485567509365
-0.1200122072175236
-0.033849596907498114
-0.003077236082504875
-0.08923984639250258
-0.009231708247514623
-0.15693904020752658
-0.1200122072175236
-0.07693090206251085
-0.1200122072175236
-0.1200122072175236
-0.1015487907225221
-0.0707764298975011
-0.06462195773251911
-0.18771140103251985
-0.14463009587750708
-0.2800284835075273
-0.6923781185625978
0.1384756237125251
0.05231301340249961
-0.1384756237125251
-0.1200122072175236
-0.2184837618575408
-0.18771140103251985
-0.17540245670252808
-0.1692479845375183
-0.15078456804251686
-0.15078456804251686
-0.1261666793825056
-0.09539431855751236
-0.1938658731975296
-0.2184837618575408
-0.13232115154751534
-0.058467485567509365
-0.1200122072175236
-0.1692479845375183
-0.16309351237253633
-0.15078456804251686
-0.2431016505175243
-0.17540245670252808
-0.17540245670252808
-0.2184837618575408
-0.2000203453625393
-0.17540245670252808
-0.14463009587750708
-0.11385773505251384
-0.23079270618753256
-0.1261666793825056
-0.003077236082504875
-0.1200122072175236
-0.14463009587750708
-0.15693904020752658
-0.16309351237253633
-0.1384756237125251
-0.2246382340225228
-0.16309351237253633
-0.1692479845375183
-0.1938658731975296
-0.21232928969253104
-0.1938658731975296
-0.17540245670252808
-0.15078456804251686
-0.2984919000025288
-0.5015894814475731
-0.3723455659825625
-0.26156506701252585
-0.21232928969253104
-0.2184837618575408
-0.2000203453625393
-0.21232928969253104
-0.29233742783754685
-0.26156506701252585
-0.26156506701252585
-0.2431016505175243
-0.24925612268253405
0.058467485567509365
0.6985325907276074
-0.9693293659876481
-0.7723862567076134
-0.396963454642546
-0.2984919000025288
-0.35388214948756097
-0.26156506701252585
-0.3108008443325483
-0.26771953917753555
-0.26771953917753555
-0.29233742783754685
-0.2800284835075273
-0.3108008443325483
-0.32310978866254003
-0.26771953917753555
-0.29233742783754685
-0.14463009587750708
0.033849596907498114
-0.18155692886753785
-0.23694717835254234
-0.26771953917753555
-0.31695531649755804
-0.2800284835075273
-0.2431016505175243
-0.2554105948475438
-0.2431016505175243
-0.2984919000025288
-0.2800284835075273
-0.2800284835075273
-0.30464637216753854
-0.34772767732255133
-0.2984919000025288
-0.427735815467567
-0.360036621652543
-0.3292642608275498
-0.30464637216753854
-0.23079270618753256
-0.2554105948475438
-0.3292642608275498
-0.26771953917753555
-0.2000203453625393
-0.26156506701252585
-0.35388214948756097
-0.2984919000025288
-0.26156506701252585
-0.2738740113425453
-0.2246382340225228
-0.26156506701252585
-0.24925612268253405
-0.3292642608275498
-0.28618295567253704
-0.2554105948475438
-0.29233742783754685
-0.2800284835075273
-0.28618295567253704
-0.29233742783754685
-0.24925612268253405
-0.30464637216753854
-0.30464637216753854
-0.26771953917753555
-0.29233742783754685
-0.23694717835254234
-0.40927239897256545
-0.9754838381526297
0.4708171206225797
0.08923984639250258
-0.5631342030975872
-0.3846545103125543
-0.26771953917753555
-0.2800284835075273
-0.3108008443325483
-0.2738740113425453
-0.2061748175275213
-0.2984919000025288
-0.3723455659825625
-0.35388214948756097
-0.26156506701252585
-0.34772767732255133
-0.32310978866254003
-0.3108008443325483
-0.26156506701252585
-0.36619109381755277
-0.31695531649755804
-0.28618295567253704
-0.29233742783754685
-0.29233742783754685
-0.2984919000025288
-0.29233742783754685
-0.2184837618575408
-0.3108008443325483
-0.3108008443325483
-0.18771140103251985
-0.2000203453625393
-0.28618295567253704
-0.28618295567253704
-0.2738740113425453
0.2246382340225228
0.6123699804175821
-0.47697159278756174
-0.2984919000025288
-0.21232928969253104
-0.2184837618575408
-0.23079270618753256
-0.2554105948475438
-0.40311792680755576
-0.8708578113476306
-0.47697159278756174
-0.2984919000025288
-0.2984919000025288
-0.2738740113425453
-0.2738740113425453
-0.2738740113425453
-0.18771140103251985
-0.2184837618575408
-0.15693904020752658
-0.18155692886753785
-0.1938658731975296
-0.1938658731975296
-0.1938658731975296
-0.28618295567253704
-0.23694717835254234
-0.02154065257750637
0.6308333969125834
-0.6369878690775933
-0.4154268711375475
-0.29233742783754685
-0.2431016505175243
-0.18155692886753785
-0.3292642608275498
-0.7908496732026148
-0.45850817629256013
-0.29233742783754685
-0.23079270618753256
-0.2554105948475438
-0.2984919000025288
-0.26156506701252585
0.033849596907498114
-0.13232115154751534
-0.2738740113425453
-0.2431016505175243
-0.24925612268253405
-0.2431016505175243
-0.2184837618575408
-0.18155692886753785
-0.1261666793825056
-0.3108008443325483
-0.2184837618575408
-0.2000203453625393
-0.23694717835254234
-0.2738740113425453
-0.2800284835075273
-0.3415732051575415
-0.40927239897256545
-0.4154268711375475
-0.3723455659825625
-0.2984919000025288
-0.28618295567253704
-0.2738740113425453
-0.30464637216753854
-0.3108008443325483
-0.23694717835254234
-0.3292642608275498
-0.3108008443325483
-0.28618295567253704
-0.2984919000025288
-0.29233742783754685
-0.1261666793825056
-0.15078456804251686
-0.18771140103251985
-0.28618295567253704
-0.3108008443325483
-0.26771953917753555
-0.26771953917753555
-0.26771953917753555
-0.2431016505175243
-0.2246382340225228
-0.15078456804251686
-0.2984919000025288
-0.23079270618753256
-0.23079270618753256
-0.23694717835254234
-0.2184837618575408
-0.2184837618575408
-0.18155692886753785
-0.3108008443325483
-0.9262480608326351
0.1015487907225221
0.06462195773251911
-0.17540245670252808
-0.18771140103251985
-0.16309351237253633
-0.18155692886753785
-0.17540245670252808
-0.28618295567253704
-0.28618295567253704
-0.2554105948475438
-0.1938658731975296
-0.30464637216753854
-0.2554105948475438
-0.26156506701252585
-0.21232928969253104
-0.2984919000025288
-0.2800284835075273
-0.26156506701252585
-0.26156506701252585
-0.2554105948475438
-0.2738740113425453
-0.2554105948475438
-0.18771140103251985
-0.26156506701252585
-0.2554105948475438
-0.1938658731975296
-0.2431016505175243
-0.29233742783754685
-0.29233742783754685
-0.23694717835254234
-0.2246382340225228
-0.3292642608275498
-0.26156506701252585
-0.24925612268253405
-0.24925612268253405
-0.2431016505175243
-0.23694717835254234
-0.23079270618753256
-0.2738740113425453
-0.29233742783754685
-0.2738740113425453
-0.2984919000025288
-0.2554105948475438
-0.28618295567253704
-0.2984919000025288
-0.2431016505175243
-0.2184837618575408
-0.3108008443325483
-0.2984919000025288
-0.26156506701252585
-0.26771953917753555
-0.2738740113425453
-0.24925612268253405
-0.2431016505175243
-0.17540245670252808
-0.23694717835254234
-0.2061748175275213
0.1015487907225221
0.6800691742326058
-0.3354187329925596
-0.2000203453625393
-0.2184837618575408
-0.6862236463975879
-0.6062155082525723
-0.3108008443325483
-0.2800284835075273
-0.28618295567253704
-0.2431016505175243
-0.26156506701252585
-0.2246382340225228
0.003077236082504875
-0.14463009587750708
-0.2184837618575408
-0.2000203453625393
-0.24925612268253405
-0.3354187329925596
-0.1938658731975296
-0.13232115154751534
-0.1938658731975296
-0.2554105948475438
-0.26771953917753555
-0.24925612268253405
-0.1938658731975296
-0.2738740113425453
-0.28618295567253704
-0.3723455659825625
-0.4154268711375475
-0.3292642608275498
-0.2800284835075273
-0.2984919000025288
-0.3108008443325483
-0.29233742783754685
-0.28618295567253704
-0.2431016505175243
-0.2738740113425453
-0.3108008443325483
-0.2431016505175243
-0.26771953917753555
-0.28618295567253704
-0.21232928969253104
-0.15693904020752658
-0.15693904020752658
-0.2184837618575408
-0.2554105948475438
-0.21232928969253104
-0.18155692886753785
-0.2246382340225228
-0.21232928969253104
-0.23694717835254234
-0.2184837618575408
-0.23079270618753256
-0.26771953917753555
-0.26156506701252585
-0.28618295567253704
-0.26156506701252585
-0.21232928969253104
-0.24925612268253405
0.16309351237253633
-0.30464637216753854
-0.6431423412426028
-0.45850817629256013
-0.9324025329976448
0.07693090206251085
0.0707764298975011
-0.14463009587750708
-0.1384756237125251
-0.26156506701252585
-0.21232928969253104
-0.2184837618575408
-0.17540245670252808
-0.1261666793825056
-0.23079270618753256
-0.2061748175275213
-0.17540245670252808
-0.2184837618575408
-0.2061748175275213
-0.1938658731975296
-0.16309351237253633
-0.1938658731975296
-0.21232928969253104
-0.18155692886753785
-0.1200122072175236
-0.2554105948475438
-0.29233742783754685
-0.23694717835254234
-0.1692479845375183
-0.24925612268253405
-0.2431016505175243
-0.2061748175275213
-0.1384756237125251
-0.2738740113425453
-0.2800284835075273
-0.23079270618753256
-0.2061748175275213
-0.2184837618575408
-0.21232928969253104
-0.2554105948475438
-0.14463009587750708
-0.24925612268253405
-0.2431016505175243
-0.2061748175275213
-0.2061748175275213
-0.2000203453625393
-0.2061748175275213
-0.2184837618575408
-0.16309351237253633
-0.2984919000025288
-0.2431016505175243
-0.2246382340225228
-0.1938658731975296
-0.1938658731975296
-0.1938658731975296
-0.1938658731975296
-0.2000203453625393
-0.21232928969253104
-0.1938658731975296
-0.24925612268253405
-0.2184837618575408
-0.15078456804251686
0.1200122072175236
0.8154675618626261
-0.6923781185625978
-0.9077846443376336
-0.427735815467567
-0.3108008443325483
-0.26771953917753555
-0.2738740113425453
-0.26156506701252585
-0.2738740113425453
-0.14463009587750708
-0.16309351237253633
-0.23079270618753256
-0.23694717835254234
-0.23694717835254234
-0.23079270618753256
-0.2431016505175243
-0.2246382340225228
-0.14463009587750708
-0.2554105948475438
-0.2431016505175243
-0.23079270618753256
-0.23079270618753256
-0.2000203453625393
-0.2246382340225228
-0.15693904020752658
0.02154065257750637
-0.24925612268253405
-0.2431016505175243
-0.2554105948475438
-0.26771953917753555
-0.2800284835075273
-0.23079270618753256
-0.1692479845375183
-0.15078456804251686
-0.24925612268253405
-0.1384756237125251
-0.1200122072175236
-0.18155692886753785
-0.26156506701252585
-0.2184837618575408
-0.1200122072175236
-0.17540245670252808
-0.32310978866254003
-0.31695531649755804
-0.2738740113425453
-0.23079270618753256
-0.2184837618575408
-0.21232928969253104
-0.17540245670252808
0.5323618422725662
-0.8831667556776225
0.04615854123751762
0.1015487907225221
-0.16309351237253633
-0.23079270618753256
-0.37850003814754446
-0.2738740113425453
-0.5939065639225805
-0.7662317845426038
-0.4154268711375475
-0.3108008443325483
-0.24925612268253405
-0.21232928969253104
-0.24925612268253405
-0.21232928969253104
-0.15693904020752658
-0.3108008443325483
-0.2738740113425453
-0.24925612268253405
-0.2431016505175243
-0.31695531649755804
-0.3108008443325483
-0.24925612268253405
-0.18771140103251985
-0.26771953917753555
-0.23694717835254234
-0.2246382340225228
-0.2061748175275213
-0.21232928969253104
-0.23694717835254234
-0.2000203453625393
-0.15693904020752658
-0.2431016505175243
-0.2184837618575408
-0.17540245670252808
-0.1200122072175236
-0.13232115154751534
-0.14463009587750708
-0.16309351237253633
-0.1261666793825056
-0.1938658731975296
-0.15078456804251686
-0.11385773505251384
-0.1384756237125251
-0.1200122072175236
-0.1200122072175236
-0.09539431855751236
-0.09539431855751236
-0.14463009587750708
-0.09539431855751236
-0.09539431855751236
-0.08923984639250258
-0.09539431855751236
-0.08308537422752059
-0.0707764298975011
-0.08308537422752059
-0.1015487907225221
-0.07693090206251085
-0.08923984639250258
-0.07693090206251085
-0.11385773505251384
-0.1384756237125251
-0.5631342030975872
-0.2431016505175243
0.390808982477564
-0.21232928969253104
-0.08308537422752059
-0.003077236082504875
-0.0707764298975011
-0.08308537422752059
0.09539431855751236
0.17540245670252808
0.5077439536125827
-0.3292642608275498
-0.08308537422752059
-0.07693090206251085
-0.10770326288750408
-0.1261666793825056
-0.15693904020752658
-0.5323618422725662
-0.433890287632549
-0.18771140103251985
-0.10770326288750408
-0.13232115154751534
-0.1200122072175236
-0.08923984639250258
-0.033849596907498114
-0.07693090206251085
-0.15078456804251686
-0.13232115154751534
-0.1200122072175236
-0.06462195773251911
-0.08308537422752059
-0.09539431855751236
0.01538618041249662
-0.15693904020752658
-0.1692479845375183
-0.07693090206251085
-0.04615854123751762
-0.08923984639250258
-0.08923984639250258
-0.1261666793825056
-0.05231301340249961
-0.08308537422752059
-0.11385773505251384
-0.08308537422752059
-0.0707764298975011
-0.1015487907225221
-0.09539431855751236
-0.15078456804251686
-0.2061748175275213
0.04615854123751762
-0.05231301340249961
-0.09539431855751236
-0.04000406907250786
-0.003077236082504875
-0.2246382340225228
-0.1261666793825056
-0.06462195773251911
-0.18155692886753785
-0.11385773505251384
-0.1015487907225221
-0.1384756237125251
-0.10770326288750408
-0.05231301340249961
-0.05231301340249961
0.7723862567076134
-0.14463009587750708
-0.7354594237176103
-0.2246382340225228
-0.1200122072175236
-0.058467485567509365
-0.058467485567509365
-0.058467485567509365
-0.02154065257750637
-0.1200122072175236
-0.1200122072175236
-0.1200122072175236
-0.07693090206251085
-0.04000406907250786
-0.09539431855751236
-0.06462195773251911
-0.033849596907498114
-0.1261666793825056
-0.08308537422752059
-0.06462195773251911
-0.09539431855751236
-0.09539431855751236
-0.09539431855751236
-0.08308537422752059
-0.04615854123751762
-0.1200122072175236
-0.11385773505251384
-0.09539431855751236
-0.04615854123751762
-0.08923984639250258
-0.07693090206251085
-0.05231301340249961
-0.003077236082504875
-0.06462195773251911
-0.033849596907498114
-0.033849596907498114
0.009231708247514623
0.01538618041249662
-0.003077236082504875
-0.02154065257750637
0.033849596907498114
-0.08923984639250258
-0.04615854123751762
0.003077236082504875
-0.009231708247514623
-0.02154065257750637
-0.04000406907250786
-0.04000406907250786
0.003077236082504875
-0.1015487907225221
-0.07693090206251085
-0.4154268711375475
-0.32310978866254003
0.4154268711375475
0.04000406907250786
-0.01538618041249662
0.02769512474251612
-0.1261666793825056
0.02154065257750637
-0.08923984639250258
-0.08308537422752059
-0.08923984639250258
-0.05231301340249961
-0.0707764298975011
0.033849596907498114
-0.07693090206251085
-0.08923984639250258
0.18771140103251985
0.5508252587675677
-0.2738740113425453
-0.058467485567509365
-0.04615854123751762
-0.23694717835254234
-0.5138984257775646
-0.17540245670252808
-0.06462195773251911
-0.04000406907250786
-0.06462195773251911
-0.08308537422752059
-0.04615854123751762
-0.003077236082504875
-0.1261666793825056
-0.08308537422752059
-0.04615854123751762
-0.01538618041249662
-0.033849596907498114
-0.07693090206251085
0.009231708247514623
0.0707764298975011
-0.08308537422752059
-0.04000406907250786
-0.04000406907250786
-0.058467485567509365
-0.05231301340249961
-0.04615854123751762
-0.08308537422752059
-0.033849596907498114
-0.0707764298975011
-0.033849596907498114
-0.058467485567509365
-0.07693090206251085
-0.08308537422752059
-0.02769512474251612
0.02154065257750637
-0.08308537422752059
-0.1384756237125251
-0.11385773505251384
-0.11385773505251384
-0.08923984639250258
-0.08923984639250258
-0.07693090206251085
-0.0707764298975011
-0.1015487907225221
-0.15693904020752658
-0.058467485567509365
-0.04000406907250786
-0.07693090206251085
-0.033849596907498114
-0.04000406907250786
-0.0707764298975011
-0.058467485567509365
-0.14463009587750708
-0.1015487907225221
-0.08923984639250258
-0.1015487907225221
-0.08923984639250258
-0.04615854123751762
-0.04000406907250786
-0.003077236082504875
-0.1200122072175236
-0.18155692886753785
-0.5569797309325776
0.2431016505175243
0.2184837618575408
0.02769512474251612
-0.009231708247514623
-0.04000406907250786
-0.1200122072175236
-0.07693090206251085
-0.058467485567509365
-0.0707764298975011
-0.06462195773251911
-0.0707764298975011
-0.0707764298975011
-0.07693090206251085
-0.11385773505251384
-0.05231301340249961
-0.06462195773251911
-0.14463009587750708
-0.1261666793825056
-0.06462195773251911
-0.06462195773251911
-0.02769512474251612
-0.009231708247514623
0.07693090206251085
0.13232115154751534
0.14463009587750708
0.15078456804251686
0.14463009587750708
0.08308537422752059
0.04000406907250786
-0.08923984639250258
-0.15693904020752658
-0.2000203453625393
-0.2184837618575408
-0.2061748175275213
-0.16309351237253633
-0.1015487907225221
-0.09539431855751236
-0.1384756237125251
-0.1200122072175236
-0.09539431855751236
-0.09539431855751236
-0.1200122072175236
-0.1200122072175236
-0.1015487907225221
-0.08308537422752059
-0.09539431855751236
0.1200122072175236
0.02154065257750637
-0.08923984639250258
-0.10770326288750408
-0.1200122072175236
-0.10770326288750408
-0.09539431855751236
-0.1261666793825056
-0.11385773505251384
-0.1015487907225221
-0.1261666793825056
0.1384756237125251
0.44619923196256844
-0.2184837618575408
0.058467485567509365
-0.7723862567076134
-0.29233742783754685
-0.2000203453625393
-0.15078456804251686
-0.11385773505251384
-0.13232115154751534
-0.1938658731975296
-0.5569797309325776
-0.35388214948756097
-0.1938658731975296
-0.1692479845375183
-0.17540245670252808
-0.17540245670252808
-0.14463009587750708
-0.1261666793825056
-0.18771140103251985
-0.2000203453625393
-0.15693904020752658
-0.17540245670252808
-0.1692479845375183
-0.15693904020752658
-0.14463009587750708
-0.13232115154751534
-0.16309351237253633
-0.1692479845375183
-0.13232115154751534
-0.1384756237125251
-0.13232115154751534
-0.14463009587750708
-0.15078456804251686
-0.02769512474251612
-0.1261666793825056
-0.16309351237253633
-0.11385773505251384
-0.11385773505251384
-0.1384756237125251
-0.1692479845375183
-0.16309351237253633
-0.1015487907225221
-0.1384756237125251
-0.2184837618575408
-0.11385773505251384
-0.10770326288750408
-0.11385773505251384
-0.1692479845375183
-0.23694717835254234
0.6677602299025863
-0.2431016505175243
-0.8154675618626261
-0.2800284835075273
-0.21232928969253104
-0.17540245670252808
-0.1692479845375183
-0.16309351237253633
-0.1261666793825056
-0.21232928969253104
-0.1938658731975296
-0.18155692886753785
-0.2000203453625393
-0.15078456804251686
-0.1200122072175236
-0.24925612268253405
-0.6554512855725947
0.02154065257750637
0.05231301340249961
-0.18771140103251985
-0.2184837618575408
-0.21232928969253104
-0.18771140103251985
-0.16309351237253633
-0.11385773505251384
-0.21232928969253104
-0.2000203453625393
-0.23079270618753256
-0.18155692886753785
-0.1692479845375183
-0.2184837618575408
-0.2184837618575408
-0.14463009587750708
-0.23079270618753256
-0.2246382340225228
-0.18155692886753785
-0.17540245670252808
-0.21232928969253104
-0.18771140103251985
-0.1938658731975296
-0.13232115154751534
-0.23079270618753256
-0.24925612268253405
-0.18771140103251985
-0.2000203453625393
-0.23079270618753256
-0.21232928969253104
-0.2246382340225228
-0.17540245670252808
-0.28618295567253704
-0.23694717835254234
-0.2000203453625393
-0.2061748175275213
-0.2000203453625393
-0.2000203453625393
-0.23694717835254234
-0.17540245670252808
-0.23694717835254234
-0.10770326288750408
0.07693090206251085
-0.1384756237125251
-0.2061748175275213
-0.18155692886753785
-0.2061748175275213
-0.1692479845375183
-0.3108008443325483
-0.23079270618753256
-0.2246382340225228
-0.24925612268253405
-0.24925612268253405
-0.23694717835254234
-0.24925612268253405
0.1015487907225221
0.40927239897256545
-0.35388214948756097
-0.23079270618753256
-0.2000203453625393
-0.2184837618575408
-0.2738740113425453
-0.2554105948475438
-0.36619109381755277
-0.7970041453676248
-0.46466264845757
-0.3108008443325483
-0.24925612268253405
-0.26771953917753555
-0.30464637216753854
-0.26156506701252585
-0.1938658731975296
-0.2061748175275213
-0.2061748175275213
-0.24925612268253405
-0.28618295567253704
-0.2431016505175243
-0.23694717835254234
-0.23694717835254234
-0.21232928969253104
-0.34772767732255133
-0.2431016505175243
-0.2431016505175243
-0.23079270618753256
-0.23079270618753256
-0.2984919000025288
-0.46466264845757
-0.7231504793875909
-0.5262073701075842
-0.3846545103125543
-0.3354187329925596
-0.31695531649755804
-0.2984919000025288
-0.3292642608275498
-0.30464637216753854
-0.2246382340225228
-0.29233742783754685
-0.29233742783754685
-0.2800284835075273
-0.2984919000025288
-0.32310978866254003
-0.2246382340225228
-0.18771140103251985
-0.2000203453625393
-0.2800284835075273
-0.26771953917753555
-0.2738740113425453
-0.26771953917753555
-0.2431016505175243
-0.21232928969253104
-0.1938658731975296
-0.17540245670252808
-0.26156506701252585
-0.24925612268253405
-0.2554105948475438
-0.26771953917753555
-0.26771953917753555
-0.3723455659825625
-0.40927239897256545
-0.8647033391826209
0.009231708247514623
0.02154065257750637
-0.21232928969253104
-0.26156506701252585
-0.2738740113425453
-0.2554105948475438
-0.26156506701252585
-0.24925612268253405
-0.32310978866254003
-0.30464637216753854
-0.29233742783754685
-0.058467485567509365
-0.17540245670252808
-0.2738740113425453
-0.2738740113425453
-0.23079270618753256
-0.24925612268253405
-0.2246382340225228
-0.23079270618753256
-0.2246382340225228
-0.2184837618575408
-0.21232928969253104
-0.2000203453625393
-0.2184837618575408
-0.28618295567253704
-0.2554105948475438
-0.15078456804251686
-0.2800284835075273
-0.2554105948475438
-0.23079270618753256
-0.2431016505175243
-0.23694717835254234
-0.26771953917753555
-0.2431016505175243
-0.24925612268253405
-0.2554105948475438
-0.2738740113425453
-0.23694717835254234
-0.21232928969253104
-0.21232928969253104
-0.2800284835075273
-0.18771140103251985
-0.28618295567253704
-0.2984919000025288
-0.28618295567253704
-0.2554105948475438
-0.2000203453625393
-0.23079270618753256
-0.2800284835075273
-0.26771953917753555
-0.23694717835254234
-0.2800284835075273
-0.26771953917753555
-0.2554105948475438
-0.2184837618575408
-0.2061748175275213
-0.23079270618753256
0.04000406907250786
0.5569797309325776
-0.4523537041275505
-0.26771953917753555
-0.23694717835254234
-0.23079270618753256
-0.6800691742326058
-0.5262073701075842
-0.26771953917753555
-0.18771140103251985
-0.1692479845375183
-0.21232928969253104
-0.29233742783754685
-0.23079270618753256
-0.2184837618575408
-0.30464637216753854
-0.30464637216753854
-0.26771953917753555
-0.2246382340225228
-0.23079270618753256
-0.18155692886753785
-0.15693904020752658
-0.2061748175275213
-0.2000203453625393
-0.21232928969253104
-0.2061748175275213
-0.1692479845375183
-0.2061748175275213
-0.2431016505175243
-0.1015487907225221
-0.17540245670252808
-0.17540245670252808
-0.17540245670252808
-0.15078456804251686
-0.15693904020752658
-0.15078456804251686
-0.1384756237125251
-0.15693904020752658
-0.17540245670252808
-0.16309351237253633
-0.15693904020752658
-0.14463009587750708
-0.14463009587750708
-0.11385773505251384
-0.15693904020752658
0.23079270618753256
-0.1692479845375183
-0.49543500928256323
-0.26771953917753555
-0.2000203453625393
-0.16309351237253633
-0.14463009587750708
-0.1384756237125251
-0.08308537422752059
-0.1200122072175236
-0.04000406907250786
-0.08308537422752059
-0.0707764298975011
-0.033849596907498114
0.0707764298975011
0.08308537422752059
0.10770326288750408
-0.009231708247514623
-0.06462195773251911
-0.5262073701075842
0.40927239897256545
0.427735815467567
0.1692479845375183
0.14463009587750708
0.2184837618575408
0.1261666793825056
0.14463009587750708
0.18155692886753785
0.2061748175275213
0.2061748175275213
0.18771140103251985
0.23079270618753256
0.6554512855725947
0.8216220340276081
0.06462195773251911
0.15693904020752658
0.1261666793825056
0.09539431855751236
0.009231708247514623
-0.05231301340249961
-0.2738740113425453
-0.8462399226876194
-0.5508252587675677
-0.4523537041275505
-0.40311792680755576
-0.45850817629256013
-0.538516314437576
-0.5569797309325776
-0.427735815467567
-0.5262073701075842
-0.5323618422725662
-0.4831260649525715
-0.427735815467567
-0.47697159278756174
-0.5692886752625692
-0.45850817629256013
-0.23079270618753256
-0.45850817629256013
-0.5323618422725662
-0.5446707866025856
-0.5200528979425745
-0.5077439536125827
-0.6000610360875902
-0.5939065639225805
-0.5015894814475731
-0.6554512855725947
-0.6431423412426028
-0.6308333969125834
-0.6369878690775933
-0.6616057577376044
-0.6800691742326058
-0.6616057577376044
-0.6000610360875902
-0.7046870628925893
-0.6123699804175821
-0.6246789247476013
-0.5877520917575707
-0.2431016505175243
0.427735815467567
-0.7108415350575992
-0.7539228402126119
-1.0985732814526583
-0.7108415350575992
-0.5569797309325776
-0.47697159278756174
-0.433890287632549
-0.42158134330255725
-0.4708171206225797
-0.360036621652543
-0.3415732051575415
-0.42158134330255725
-0.396963454642546
-0.34772767732255133
-0.29233742783754685
-0.29233742783754685
-0.26156506701252585
-0.2000203453625393
-0.32310978866254003
-0.28618295567253704
-0.2554105948475438
-0.26771953917753555
-0.2738740113425453
-0.2800284835075273
-0.2431016505175243
-0.30464637216753854
-0.4523537041275505
-0.3108008443325483
-0.2738740113425453
-0.2738740113425453
-0.28618295567253704
-0.26771953917753555
-0.26771953917753555
-0.21232928969253104
-0.29233742783754685
-0.2800284835075273
-0.24925612268253405
-0.2554105948475438
-0.28618295567253704
-0.2184837618575408
0.3723455659825625
0.23694717835254234
-0.16309351237253633
-0.21232928969253104
-0.2554105948475438
-0.23694717835254234
-0.2554105948475438
-0.23079270618753256
-0.2246382340225228
-0.23079270618753256
-0.28618295567253704
-0.2738740113425453
-0.26156506701252585
-0.28618295567253704
-0.3354187329925596
-0.6677602299025863
-0.5631342030975872
-0.31695531649755804
-0.36619109381755277
-0.3108008443325483
-0.3415732051575415
-0.44619923196256844
-0.9139391165026156
0.02769512474251612
0.05231301340249961
-0.16309351237253633
-0.2738740113425453
-0.29233742783754685
-0.2800284835075273
-0.29233742783754685
-0.29233742783754685
-0.2984919000025288
-0.28618295567253704
-0.29233742783754685
-0.34772767732255133
-0.30464637216753854
-0.30464637216753854
-0.3108008443325483
-0.3108008443325483
-0.2738740113425453
-0.26156506701252585
-0.23079270618753256
-0.2800284835075273
-0.3108008443325483
-0.26771953917753555
-0.2000203453625393
-0.23079270618753256
-0.23694717835254234
-0.2554105948475438
-0.2431016505175243
-0.29233742783754685
-0.28618295567253704
-0.2800284835075273
-0.26156506701252585
-0.23079270618753256
-0.2738740113425453
-0.2554105948475438
-0.2554105948475438
-0.3292642608275498
-0.2554105948475438
-0.28618295567253704
-0.32310978866254003
-0.24925612268253405
-0.2554105948475438
-0.2554105948475438
-0.2554105948475438
-0.2984919000025288
-0.29233742783754685
-0.26156506701252585
-0.26156506701252585
-0.2738740113425453
-0.2738740113425453
-0.23079270618753256
-0.26156506701252585
-0.28618295567253704
-0.3108008443325483
-0.3108008443325483
-0.29233742783754685
-0.29233742783754685
-0.23079270618753256
0.033849596907498114
0.47697159278756174
-0.42158134330255725
-0.29233742783754685
-0.2800284835075273
-0.26156506701252585
-0.29233742783754685
-0.2738740113425453
-0.32310978866254003
-0.7539228402126119
-0.37850003814754446
-0.2738740113425453
-0.32310978866254003
-0.3108008443325483
-0.28618295567253704
-0.28618295567253704
-0.26156506701252585
-0.3108008443325483
-0.3415732051575415
-0.3108008443325483
-0.29233742783754685
-0.3354187329925596
-0.30464637216753854
-0.37850003814754446
-0.37850003814754446
-0.5200528979425745
-0.47697159278756174
-0.3723455659825625
-0.3415732051575415
-0.3354187329925596
-0.3354187329925596
-0.31695531649755804
-0.2554105948475438
-0.2738740113425453
-0.2554105948475438
-0.21232928969253104
-0.17540245670252808
-0.21232928969253104
-0.30464637216753854
-0.29233742783754685
0.18771140103251985
-0.31695531649755804
-0.6800691742326058
-0.433890287632549
-0.3723455659825625
-0.3108008443325483
-0.26771953917753555
-0.26771953917753555
-0.2246382340225228
-0.28618295567253704
-0.28618295567253704
-0.29233742783754685
-0.2554105948475438
-0.30464637216753854
-0.26771953917753555
-0.2431016505175243
-0.23079270618753256
-0.28618295567253704
-0.2738740113425453
-0.2800284835075273
-0.2738740113425453
-0.2431016505175243
-0.24925612268253405
-0.3723455659825625
-0.7970041453676248
0.058467485567509365
0.003077236082504875
-0.2000203453625393
-0.23694717835254234
-0.26771953917753555
-0.3292642608275498
-0.3292642608275498
-0.24925612268253405
-0.32310978866254003
-0.2984919000025288
-0.24925612268253405
-0.23079270618753256
-0.24925612268253405
-0.2554105948475438
-0.2431016505175243
-0.14463009587750708
-0.26156506701252585
-0.23694717835254234
-0.24925612268253405
-0.1384756237125251
-0.10770326288750408
-0.18771140103251985
-0.18155692886753785
-0.1200122072175236
-0.26156506701252585
-0.2554105948475438
-0.2000203453625393
-0.2000203453625393
-0.2000203453625393
-0.2184837618575408
-0.2246382340225228
-0.14463009587750708
-0.26771953917753555
-0.26771953917753555
-0.1384756237125251
-0.01538618041249662
-0.14463009587750708
-0.18771140103251985
-0.18155692886753785
-0.1261666793825056
-0.2738740113425453
-0.23079270618753256
-0.1692479845375183
-0.1692479845375183
-0.23694717835254234
-0.21232928969253104
-0.14463009587750708
-0.1384756237125251
-0.2431016505175243
-0.26156506701252585
-0.3846545103125543
-0.29233742783754685
-0.2431016505175243
-0.2000203453625393
-0.18155692886753785
-0.1200122072175236
-0.2984919000025288
0.05231301340249961
0.6246789247476013
-0.5138984257775646
-0.23079270618753256
-0.16309351237253633
-0.1692479845375183
-0.40311792680755576
-0.7416138958825924
-0.396963454642546
-0.26771953917753555
-0.2184837618575408
-0.17540245670252808
-0.18155692886753785
-0.18155692886753785
-0.17540245670252808
-0.2431016505175243
-0.2061748175275213
-0.1938658731975296
-0.2061748175275213
-0.2061748175275213
-0.1692479845375183
-0.1938658731975296
-0.08923984639250258
-0.2246382340225228
-0.2184837618575408
-0.23079270618753256
-0.18155692886753785
-0.1938658731975296
-0.2000203453625393
-0.18771140103251985
0.5939065639225805
-0.7169960072226089
-0.06462195773251911
0.0707764298975011
-0.1200122072175236
-0.17540245670252808
-0.21232928969253104
-0.1261666793825056
-0.5569797309325776
-0.7231504793875909
-0.360036621652543
-0.2554105948475438
-0.2246382340225228
-0.2554105948475438
-0.2554105948475438
-0.2000203453625393
-0.17540245670252808
-0.2738740113425453
-0.23079270618753256
-0.2246382340225228
-0.2431016505175243
-0.23079270618753256
-0.13232115154751534
-0.10770326288750408
-0.13232115154751534
-0.23079270618753256
-0.2554105948475438
-0.21232928969253104
-0.2000203453625393
-0.1938658731975296
-0.18155692886753785
-0.17540245670252808
-0.16309351237253633
-0.2246382340225228
-0.24925612268253405
-0.24925612268253405
-0.2246382340225228
-0.17540245670252808
-0.2984919000025288
-0.23694717835254234
-0.2061748175275213
-0.23694717835254234
-0.2061748175275213
-0.21232928969253104
-0.1938658731975296
-0.2000203453625393
-0.21232928969253104
-0.2061748175275213
-0.18771140103251985
-0.23694717835254234
-0.21232928969253104
-0.18771140103251985
-0.1261666793825056
-0.21232928969253104
-0.2184837618575408
-0.1692479845375183
-0.1692479845375183
-0.2554105948475438
-0.2000203453625393
-0.18771140103251985
-0.2246382340225228
-0.2061748175275213
-0.2184837618575408
-0.6185244525825918
-0.34772767732255133
0.15078456804251686
-0.15693904020752658
-0.08923984639250258
-0.2554105948475438
-0.2554105948475438
-0.26771953917753555
-0.2554105948475438
-0.24925612268253405
-0.3292642608275498
-0.30464637216753854
-0.28618295567253704
-0.30464637216753854
-0.29233742783754685
-0.29233742783754685
-0.31695531649755804
-0.360036621652543
-0.390808982477564
-0.3108008443325483
-0.40927239897256545
-0.4400447597975588
-0.42158134330255725
-0.396963454642546
-0.390808982477564
-0.40927239897256545
-0.4154268711375475
-0.396963454642546
-0.4154268711375475
-0.1200122072175236
0.36619109381755277
-0.6123699804175821
-0.47697159278756174
-0.8647033391826209
-0.47697159278756174
-0.2061748175275213
-0.31695531649755804
-0.3292642608275498
-0.360036621652543
-0.30464637216753854
-0.2554105948475438
-0.32310978866254003
-0.34772767732255133
-0.2431016505175243
-0.21232928969253104
-0.2431016505175243
-0.24925612268253405
-0.2738740113425453
-0.23079270618753256
-0.396963454642546
-0.45850817629256013
-0.3108008443325483
-0.26771953917753555
-0.2554105948475438
-0.26156506701252585
-0.2246382340225228
-0.21232928969253104
-0.26771953917753555
-0.26771953917753555
-0.24925612268253405
-0.2738740113425453
-0.2738740113425453
-0.29233742783754685
-0.2800284835075273
0.2184837618575408
-0.23079270618753256
-0.5262073701075842
-0.3108008443325483
-0.26771953917753555
-0.23079270618753256
-0.2431016505175243
-0.26156506701252585
-0.18155692886753785
-0.26771953917753555
-0.2554105948475438
-0.21232928969253104
-0.18155692886753785
-0.18771140103251985
-0.1692479845375183
-0.01538618041249662
0.009231708247514623
-0.16309351237253633
-0.2000203453625393
-0.18155692886753785
-0.18155692886753785
-0.18771140103251985
-0.21232928969253104
-0.21232928969253104
-0.07693090206251085
-0.21232928969253104
-0.21232928969253104
-0.18771140103251985
-0.29233742783754685
-0.6985325907276074
0.1200122072175236
-0.08923984639250258
-0.10770326288750408
-0.21232928969253104
-0.21232928969253104
-0.18771140103251985
-0.18155692886753785
-0.1692479845375183
-0.17540245670252808
-0.1692479845375183
-0.11385773505251384
-0.21232928969253104
-0.17540245670252808
-0.18155692886753785
-0.1938658731975296
-0.2061748175275213
-0.15693904020752658
-0.14463009587750708
-0.04000406907250786
-0.1015487907225221
-0.0707764298975011
-0.033849596907498114
-0.02154065257750637
-0.0707764298975011
-0.1200122072175236
-0.15693904020752658
-0.15078456804251686
-0.30464637216753854
-0.3108008443325483
-0.28618295567253704
-0.2554105948475438
-0.2738740113425453
-0.2000203453625393
-0.16309351237253633
-0.1384756237125251
-0.2431016505175243
-0.18155692886753785
-0.1692479845375183
-0.2061748175275213
-0.2000203453625393
-0.18155692886753785
-0.18155692886753785
-0.13232115154751534
-0.26771953917753555
-0.2061748175275213
-0.13232115154751534
-0.1938658731975296
-0.1938658731975296
-0.2000203453625393
-0.16309351237253633
-0.09539431855751236
-0.26156506701252585
-0.2061748175275213
-0.1938658731975296
-0.18155692886753785
-0.18771140103251985
-0.18155692886753785
0.1200122072175236
0.5262073701075842
-0.40311792680755576
-0.10770326288750408
-0.15693904020752658
-0.14463009587750708
-0.1261666793825056
-0.1015487907225221
-0.1015487907225221
-0.34772767732255133
-0.5877520917575707
-0.2800284835075273
-0.2246382340225228
-0.18771140103251985
-0.18771140103251985
-0.1938658731975296
-0.2000203453625393
-0.15078456804251686
-0.2554105948475438
-0.2061748175275213
-0.18155692886753785
-0.1938658731975296
-0.18155692886753785
-0.15693904020752658
-0.14463009587750708
-0.1261666793825056
-0.2061748175275213
-0.18771140103251985
-0.1384756237125251
-0.1261666793825056
-0.13232115154751534
-0.16309351237253633
-0.10770326288750408
0.02154065257750637
-0.16309351237253633
-0.15078456804251686
-0.15693904020752658
-0.1261666793825056
-0.15078456804251686
-0.15693904020752658
-0.13232115154751534
-0.1015487907225221
-0.16309351237253633
-0.1384756237125251
-0.11385773505251384
-0.1261666793825056
-0.17540245670252808
-0.13232115154751534
0.30464637216753854
0.14463009587750708
-0.11385773505251384
-0.1200122072175236
-0.10770326288750408
-0.13232115154751534
-0.16309351237253633
-0.16309351237253633
-0.1261666793825056
-0.09539431855751236
-0.2184837618575408
-0.17540245670252808
-0.15693904020752658
-0.2184837618575408
-0.2738740113425453
-0.7662317845426038
-0.9385570051626267
0.1015487907225221
-0.0707764298975011
-0.2000203453625393
-0.17540245670252808
-0.2061748175275213
-0.2184837618575408
-0.18155692886753785
-0.18155692886753785
-0.2000203453625393
-0.23079270618753256
-0.2000203453625393
-0.23079270618753256
-0.17540245670252808
-0.06462195773251911
-0.15078456804251686
-0.1938658731975296
-0.18155692886753785
-0.21232928969253104
-0.18771140103251985
-0.2000203453625393
-0.2184837618575408
-0.2184837618575408
-0.18771140103251985
-0.15693904020752658
-0.17540245670252808
-0.21232928969253104
-0.2061748175275213
-0.1384756237125251
-0.1261666793825056
-0.18771140103251985
-0.18155692886753785
-0.14463009587750708
-0.14463009587750708
-0.15078456804251686
-0.1384756237125251
-0.15693904020752658
-0.15693904020752658
-0.13232115154751534
-0.11385773505251384
0.08923984639250258
0.5200528979425745
-0.360036621652543
-0.1015487907225221
-0.10770326288750408
-0.14463009587750708
-0.11385773505251384
-0.10770326288750408
-0.14463009587750708
-0.5508252587675677
-0.3846545103125543
-0.2246382340225228
-0.15078456804251686
-0.1200122072175236
-0.14463009587750708
-0.15078456804251686
-0.1015487907225221
-0.13232115154751534
0.17540245670252808
0.6677602299025863
-0.2984919000025288
-0.1200122072175236
-0.08308537422752059
-0.06462195773251911
-0.15693904020752658
-0.5877520917575707
-0.3723455659825625
-0.2061748175275213
-0.15693904020752658
-0.13232115154751534
-0.11385773505251384
-0.1015487907225221
-0.1015487907225221
-0.14463009587750708
-0.18155692886753785
-0.1384756237125251
-0.0707764298975011
-0.0707764298975011
-0.09539431855751236
-0.07693090206251085
-0.033849596907498114
-0.11385773505251384
-0.11385773505251384
-0.06462195773251911
-0.058467485567509365
-0.058467485567509365
-0.0707764298975011
-0.10770326288750408
0.40927239897256545
0.04000406907250786
-0.34772767732255133
-0.1261666793825056
-0.058467485567509365
-0.05231301340249961
-0.033849596907498114
-0.058467485567509365
-0.02154065257750637
-0.09539431855751236
-0.07693090206251085
-0.07693090206251085
-0.1015487907225221
-0.07693090206251085
-0.11385773505251384
-0.09539431855751236
-0.1261666793825056
-0.2554105948475438
-0.1938658731975296
-0.13232115154751534
-0.15693904020752658
-0.1692479845375183
-0.16309351237253633
-0.18155692886753785
-0.1261666793825056
-0.2800284835075273
-0.29233742783754685
-0.2431016505175243
-0.26771953917753555
-0.360036621652543
-0.28618295567253704
-0.26156506701252585
-0.28618295567253704
-0.5015894814475731
-1.0124106711426328
-0.06462195773251911
-0.09539431855751236
-0.3415732051575415
-0.36619109381755277
-0.390808982477564
-0.3108008443325483
-0.4708171206225797
-0.4523537041275505
-0.40927239897256545
-0.45850817629256013
-0.36619109381755277
-0.26156506701252585
-0.40927239897256545
-0.36619109381755277
-0.49543500928256323
-0.4831260649525715
-0.4523537041275505
-0.45850817629256013
-0.47697159278756174
-0.5077439536125827
-0.5077439536125827
-0.3846545103125543
-0.49543500928256323
-0.5138984257775646
-0.4831260649525715
-0.4892805371175811
-0.6246789247476013
-0.5631342030975872
-0.5262073701075842
-0.47697159278756174
-0.5323618422725662
-0.5631342030975872
-0.5508252587675677
-0.5015894814475731
-0.4892805371175811
-0.49543500928256323
-0.45850817629256013
-0.35388214948756097
-0.5508252587675677
-0.4892805371175811
-0.44619923196256844
-0.433890287632549
-0.45850817629256013
-0.4708171206225797
-0.47697159278756174
-0.390808982477564
-0.45850817629256013
-0.433890287632549
-0.4400447597975588
-0.4523537041275505
-0.433890287632549
-0.4400447597975588
-0.42158134330255725
-0.3723455659825625
-0.5446707866025856
-0.433890287632549
-0.44619923196256844
-0.06462195773251911
0.6739147020675963
-0.6000610360875902
-0.360036621652543
-0.5138984257775646
-0.901630172172624
-0.5446707866025856
-0.44619923196256844
-0.49543500928256323
-0.5200528979425745
-0.4831260649525715
-0.4892805371175811
-0.433890287632549
-0.4523537041275505
-0.396963454642546
-0.42158134330255725
-0.37850003814754446
-0.3846545103125543
-0.40311792680755576
-0.390808982477564
-0.34772767732255133
-0.4400447597975588
-0.427735815467567
-0.427735815467567
-0.40927239897256545
-0.3846545103125543
-0.40927239897256545
-0.3846545103125543
-0.31695531649755804
-0.46466264845757
-0.40311792680755576
-0.3723455659825625
-0.34772767732255133
-0.35388214948756097
-0.3415732051575415
-0.360036621652543
-0.3415732051575415
-0.3846545103125543
-0.35388214948756097
-0.37850003814754446
-0.3846545103125543
-0.396963454642546
-0.42158134330255725
-0.37850003814754446
-0.36619109381755277
-0.4708171206225797
-0.4154268711375475
-0.3723455659825625
-0.3723455659825625
-0.360036621652543
-0.36619109381755277
-0.3354187329925596
-0.3108008443325483
-0.37850003814754446
-0.3354187329925596
-0.3354187329925596
-0.360036621652543
-0.36619109381755277
-0.2800284835075273
-0.40311792680755576
-0.3108008443325483
-0.360036621652543
-0.35388214948756097
-0.47697159278756174
-1.000101726812641
-0.058467485567509365
-0.009231708247514623
-0.23079270618753256
-0.2800284835075273
-0.35388214948756097
-0.3108008443325483
-0.31695531649755804
-0.35388214948756097
-0.3415732051575415
-0.28618295567253704
-0.2738740113425453
-0.26771953917753555
-0.31695531649755804
-0.3108008443325483
-0.31695531649755804
-0.30464637216753854
-0.29233742783754685
-0.2738740113425453
-0.29233742783754685
-0.3354187329925596
-0.36619109381755277
-0.3292642608275498
-0.31695531649755804
-0.32310978866254003
-0.45850817629256013
-0.36619109381755277
-0.31695531649755804
-0.30464637216753854
-0.35388214948756097
-0.34772767732255133
-0.32310978866254003
-0.29233742783754685
-0.3108008443325483
-0.32310978866254003
-0.2984919000025288
-0.2984919000025288
-0.31695531649755804
-0.2984919000025288
-0.1938658731975296
-0.18155692886753785
-0.2431016505175243
-0.26156506701252585
-0.2246382340225228
-0.3108008443325483
-0.31695531649755804
-0.2800284835075273
-0.32310978866254003
-0.32310978866254003
-0.30464637216753854
-0.32310978866254003
-0.29233742783754685
-0.360036621652543
-0.3846545103125543
-0.2738740113425453
-0.28618295567253704
-0.3354187329925596
-0.3292642608275498
-0.003077236082504875
0.433890287632549
-1.0370285598026439
-0.6492968134075848
-0.40311792680755576
-0.34772767732255133
-0.35388214948756097
-0.3292642608275498
-0.3354187329925596
-0.35388214948756097
-0.3846545103125543
-0.23694717835254234
-0.2431016505175243
-0.3108008443325483
-0.3292642608275498
-0.3292642608275498
-0.31695531649755804
-0.2738740113425453
-0.3292642608275498
-0.360036621652543
-0.31695531649755804
-0.31695531649755804
-0.34772767732255133
-0.3292642608275498
-0.36619109381755277
-0.3108008443325483
-0.2738740113425453
-0.3723455659825625
-0.3723455659825625
-0.3415732051575415
-0.32310978866254003
-0.31695531649755804
-0.34772767732255133
-0.31695531649755804
-0.360036621652543
-0.37850003814754446
-0.3292642608275498
-0.3108008443325483
-0.3292642608275498
-0.34772767732255133
-0.3415732051575415
-0.23694717835254234
-0.396963454642546
-0.3723455659825625
-0.31695531649755804
-0.3415732051575415
-0.37850003814754446
-0.360036621652543
-0.3354187329925596
-0.2738740113425453
-0.360036621652543
-0.390808982477564
-0.3846545103125543
-0.3292642608275498
-0.36619109381755277
-0.3415732051575415
-0.2000203453625393
0.14463009587750708
-0.13232115154751534
-0.7231504793875909
0.1938658731975296
-0.18155692886753785
-0.26771953917753555
-0.2738740113425453
-0.2984919000025288
-0.427735815467567
-0.9200935886676254
-0.575443147427579
-0.3846545103125543
-0.42158134330255725
-0.37850003814754446
-0.3723455659825625
-0.5077439536125827
-0.31695531649755804
-0.46466264845757
-0.390808982477564
-0.3108008443325483
-0.31695531649755804
-0.35388214948756097
-0.360036621652543
-0.29233742783754685
-0.2246382340225228
-0.396963454642546
-0.34772767732255133
-0.29233742783754685
-0.28618295567253704
-0.24925612268253405
-0.29233742783754685
-0.29233742783754685
-0.23694717835254234
-0.32310978866254003
-0.3108008443325483
-0.29233742783754685
-0.24925612268253405
-0.26771953917753555
-0.2554105948475438
-0.23694717835254234
-0.1692479845375183
-0.3292642608275498
-0.32310978866254003
-0.2738740113425453
-0.26771953917753555
-0.3108008443325483
-0.30464637216753854
-0.2984919000025288
-0.34772767732255133
-0.3108008443325483
-0.2738740113425453
-0.28618295567253704
-0.2984919000025288
-0.31695531649755804
-0.3292642608275498
-0.31695531649755804
-0.2246382340225228
-0.36619109381755277
-0.28618295567253704
0.07693090206251085
-0.10770326288750408
-0.21232928969253104
-0.21232928969253104
-0.4708171206225797
-0.8462399226876194
0.47697159278756174
0.9816383103176396
-0.49543500928256323
-0.2984919000025288
-0.23694717835254234
-0.28618295567253704
-0.23694717835254234
-0.5692886752625692
-0.8770122835126126
-0.3108008443325483
-0.21232928969253104
-0.2000203453625393
-0.21232928969253104
-0.2431016505175243
-0.23079270618753256
-0.1938658731975296
-0.30464637216753854
-0.31695531649755804
-0.31695531649755804
-0.2984919000025288
-0.26771953917753555
-0.2984919000025288
-0.31695531649755804
-0.21232928969253104
-0.7662317845426038
-0.6431423412426028
-0.4154268711375475
-0.35388214948756097
-0.31695531649755804
-0.26771953917753555
-0.23694717835254234
-0.17540245670252808
-0.23079270618753256
-0.2061748175275213
-0.18771140103251985
-0.2431016505175243
-0.28618295567253704
-0.3108008443325483
-0.30464637216753854
-0.17540245670252808
-0.3723455659825625
-0.36619109381755277
-0.32310978866254003
-0.31695531649755804
-0.26156506701252585
-0.2246382340225228
-0.2246382340225228
-0.2061748175275213
-0.29233742783754685
-0.29233742783754685
-0.28618295567253704
-0.29233742783754685
-0.31695531649755804
-0.23079270618753256
-0.06462195773251911
-0.14463009587750708
-0.2431016505175243
-0.23079270618753256
-0.23694717835254234
-0.2184837618575408
-0.2431016505175243
-0.1938658731975296
-0.2184837618575408
-0.3723455659825625
-0.9385570051626267
0.058467485567509365
0.02769512474251612
-0.2184837618575408
-0.2431016505175243
-0.35388214948756097
-0.360036621652543
-0.2800284835075273
-0.3292642608275498
-0.2738740113425453
-0.26156506701252585
-0.2431016505175243
-0.26771953917753555
-0.2061748175275213
-0.18771140103251985
-0.21232928969253104
-0.26156506701252585
-0.26156506701252585
-0.23079270618753256
-0.2000203453625393
-0.15693904020752658
-0.2184837618575408
-0.2000203453625393
-0.23079270618753256
-0.24925612268253405
-0.2431016505175243
-0.2246382340225228
-0.18771140103251985
-0.23694717835254234
-0.2246382340225228
-0.13232115154751534
-0.1938658731975296
-0.21232928969253104
-0.24925612268253405
-0.21232928969253104
-0.15693904020752658
-0.18155692886753785
-0.18155692886753785
-0.11385773505251384
-0.14463009587750708
-0.23079270618753256
-0.18155692886753785
-0.1938658731975296
-0.17540245670252808
-0.15693904020752658
-0.1692479845375183
-0.1261666793825056
-0.16309351237253633
-0.2061748175275213
-0.17540245670252808
-0.1938658731975296
-0.2000203453625393
-0.2000203453625393
-0.1692479845375183
-0.18155692886753785
-0.2000203453625393
-0.1938658731975296
-0.2061748175275213
0.11385773505251384
0.7416138958825924
-0.46466264845757
-0.23694717835254234
-0.2554105948475438
-0.6800691742326058
-0.433890287632549
-0.18155692886753785
-0.18771140103251985
-0.18155692886753785
-0.1938658731975296
-0.16309351237253633
-0.1384756237125251
-0.1692479845375183
-0.15078456804251686
-0.18155692886753785
-0.18771140103251985
-0.13232115154751534
-0.1261666793825056
-0.17540245670252808
-0.1384756237125251
-0.14463009587750708
-0.1384756237125251
-0.18771140103251985
-0.1692479845375183
-0.17540245670252808
-0.1938658731975296
-0.18155692886753785
-0.08923984639250258
-0.15693904020752658
-0.21232928969253104
-0.2246382340225228
-0.18771140103251985
-0.1692479845375183
-0.17540245670252808
-0.2061748175275213
-0.05231301340249961
-0.009231708247514623
-0.15078456804251686
-0.1692479845375183
-0.18771140103251985
-0.2061748175275213
-0.17540245670252808
-0.15078456804251686
-0.1384756237125251
-0.26771953917753555
-0.21232928969253104
-0.21232928969253104
-0.18155692886753785
-0.2061748175275213
-0.24925612268253405
-0.15693904020752658
0.10770326288750408
-0.13232115154751534
-0.18155692886753785
-0.18155692886753785
-0.18155692886753785
-0.1692479845375183
-0.1692479845375183
-0.1692479845375183
-0.09539431855751236
-0.23079270618753256
-0.2061748175275213
-0.29233742783754685
-0.7416138958825924
0.15078456804251686
-0.05231301340249961
-0.45850817629256013
-0.1938658731975296
-0.26156506701252585
-0.2184837618575408
-0.1938658731975296
-0.1938658731975296
-0.1692479845375183
-0.16309351237253633
-0.16309351237253633
-0.09539431855751236
-0.2184837618575408
-0.17540245670252808
-0.17540245670252808
-0.15078456804251686
-0.1261666793825056
-0.15693904020752658
-0.13232115154751534
-0.07693090206251085
-0.18771140103251985
-0.15693904020752658
-0.16309351237253633
-0.16309351237253633
-0.14463009587750708
-0.1261666793825056
-0.1200122072175236
-0.07693090206251085
-0.18771140103251985
-0.17540245670252808
-0.1938658731975296
-0.1692479845375183
-0.15693904020752658
-0.13232115154751534
-0.10770326288750408
-0.1015487907225221
-0.18155692886753785
-0.13232115154751534
-0.15078456804251686
-0.15693904020752658
-0.16309351237253633
-0.11385773505251384
-0.10770326288750408
-0.08923984639250258
-0.18771140103251985
-0.18771140103251985
-0.13232115154751534
-0.1261666793825056
-0.15078456804251686
-0.1261666793825056
-0.14463009587750708
-0.06462195773251911
-0.2246382340225228
-0.13232115154751534
-0.09539431855751236
-0.08308537422752059
-0.11385773505251384
0.15693904020752658
0.6800691742326058
-0.6862236463975879
-0.6554512855725947
-0.15693904020752658
-0.15693904020752658
-0.13232115154751534
-0.1384756237125251
-0.16309351237253633
-0.09539431855751236
0.6062155082525723
-0.7600773123775938
0.09539431855751236
0.1692479845375183
-0.02154065257750637
-0.0707764298975011
-0.09539431855751236
-0.0707764298975011
-0.390808982477564
-0.5138984257775646
-0.24925612268253405
-0.15693904020752658
-0.13232115154751534
-0.15078456804251686
-0.1384756237125251
-0.1200122072175236
-0.09539431855751236
-0.18771140103251985
-0.17540245670252808
-0.18771140103251985
-0.15078456804251686
-0.15078456804251686
-0.15693904020752658
-0.16309351237253633
-0.1015487907225221
-0.18155692886753785
-0.13232115154751534
-0.1261666793825056
-0.15693904020752658
-0.15693904020752658
-0.13232115154751534
-0.11385773505251384
-0.1200122072175236
-0.16309351237253633
-0.1261666793825056
-0.1200122072175236
-0.13232115154751534
-0.14463009587750708
-0.1261666793825056
-0.01538618041249662
-0.07693090206251085
-0.15078456804251686
-0.1384756237125251
-0.15693904020752658
-0.13232115154751534
-0.1200122072175236
-0.1200122072175236
-0.13232115154751534
-0.13232115154751534
-0.15078456804251686
-0.1200122072175236
-0.1261666793825056
-0.15078456804251686
-0.13232115154751534
-0.0707764298975011
-0.13232115154751534
-0.1261666793825056
-0.1384756237125251
-0.1200122072175236
-0.14463009587750708
-0.1384756237125251
-0.1261666793825056
-0.15693904020752658
-0.538516314437576
-0.1938658731975296
0.24925612268253405
-0.09539431855751236
-0.17540245670252808
-0.1692479845375183
-0.04000406907250786
-0.01538618041249662
-0.003077236082504875
-0.003077236082504875
-0.02154065257750637
0.009231708247514623
-0.033849596907498114
-0.08923984639250258
-0.1384756237125251
-0.14463009587750708
-0.21232928969253104
-0.30464637216753854
-0.28618295567253704
-0.26156506701252585
-0.1938658731975296
-0.16309351237253633
-0.18155692886753785
-0.1384756237125251
-0.1261666793825056
-0.2061748175275213
-0.1692479845375183
-0.13232115154751534
-0.13232115154751534
-0.1384756237125251
-0.16309351237253633
-0.16309351237253633
-0.1200122072175236
-0.15078456804251686
-0.15693904020752658
-0.18155692886753785
-0.15078456804251686
-0.15693904020752658
-0.16309351237253633
-0.15078456804251686
-0.14463009587750708
-0.18771140103251985
-0.21232928969253104
-0.18155692886753785
-0.15693904020752658
-0.1692479845375183
-0.18155692886753785
-0.1938658731975296
-0.17540245670252808
0.1200122072175236
0.4831260649525715
-0.390808982477564
-0.16309351237253633
-0.11385773505251384
-0.10770326288750408
-0.1015487907225221
-0.1692479845375183
-0.6185244525825918
-0.360036621652543
-0.2184837618575408
-0.1692479845375183
-0.14463009587750708
-0.18771140103251985
-0.18771140103251985
-0.1384756237125251
-0.1938658731975296
-0.11385773505251384
-0.13232115154751534
-0.13232115154751534
-0.1384756237125251
-0.14463009587750708
-0.1015487907225221
-0.0707764298975011
-0.14463009587750708
-0.08308537422752059
-0.13232115154751534
-0.11385773505251384
-0.08308537422752059
-0.11385773505251384
-0.13232115154751534
-0.04615854123751762
-0.1261666793825056
-0.1384756237125251
-0.1261666793825056
-0.1261666793825056
-0.1384756237125251
-0.1261666793825056
-0.1200122072175236
-0.07693090206251085
-0.18155692886753785
-0.1261666793825056
-0.15693904020752658
-0.14463009587750708
-0.10770326288750408
-0.11385773505251384
-0.10770326288750408
0.01538618041249662
-0.2000203453625393
-0.17540245670252808
-0.15078456804251686
-0.1384756237125251
-0.1015487907225221
-0.11385773505251384
-0.1200122072175236
-0.08923984639250258
-0.18155692886753785
-0.14463009587750708
-0.14463009587750708
-0.13232115154751534
-0.1692479845375183
-0.18155692886753785
-0.11385773505251384
-0.1938658731975296
-0.7231504793875909
0.16309351237253633
0.1384756237125251
-0.04615854123751762
-0.13232115154751534
-0.11385773505251384
-0.08923984639250258
-0.04615854123751762
-0.15693904020752658
-0.1200122072175236
-0.13232115154751534
-0.17540245670252808
-0.15693904020752658
-0.16309351237253633
-0.15693904020752658
-0.09539431855751236
-0.2000203453625393
-0.18155692886753785
-0.16309351237253633
-0.14463009587750708
-0.1384756237125251
-0.13232115154751534
-0.14463009587750708
-0.08923984639250258
-0.2061748175275213
-0.16309351237253633
-0.1692479845375183
-0.1261666793825056
-0.02769512474251612
-0.16309351237253633
-0.1384756237125251
-0.08923984639250258
-0.1938658731975296
-0.15693904020752658
-0.15693904020752658
-0.14463009587750708
-0.14463009587750708
-0.16309351237253633
-0.15693904020752658
-0.10770326288750408
-0.2246382340225228
-0.2061748175275213
-0.18771140103251985
0.04615854123751762
-0.09539431855751236
-0.1938658731975296
-0.14463009587750708
-0.1261666793825056
-0.2431016505175243
-0.1938658731975296
-0.2000203453625393
-0.2061748175275213
-0.2184837618575408
-0.2184837618575408
-0.1938658731975296
-0.15078456804251686
-0.2800284835075273
-0.2554105948475438
-0.08923984639250258
0.46466264845757
-0.5569797309325776
-0.30464637216753854
-0.2431016505175243
-0.5508252587675677
-0.7169960072226089
-0.3846545103125543
-0.23694717835254234
-0.23694717835254234
-0.23079270618753256
-0.24925612268253405
-0.2184837618575408
-0.1938658731975296
-0.23079270618753256
0.15078456804251686
-0.02769512474251612
-0.18771140103251985
-0.18155692886753785
-0.21232928969253104
-0.16309351237253633
-0.15693904020752658
-0.23079270618753256
-0.2246382340225228
-0.21232928969253104
-0.1938658731975296
-0.2000203453625393
-0.1938658731975296
-0.23694717835254234
-0.2246382340225228
-0.6000610360875902
-0.47697159278756174
-0.32310978866254003
-0.28618295567253704
-0.29233742783754685
-0.28618295567253704
-0.26771953917753555
-0.23079270618753256
-0.31695531649755804
-0.2738740113425453
-0.23694717835254234
-0.2431016505175243
-0.24925612268253405
-0.28618295567253704
-0.2061748175275213
0.07693090206251085
-0.13232115154751534
-0.2246382340225228
-0.26771953917753555
-0.18771140103251985
-0.1938658731975296
-0.2246382340225228
-0.21232928969253104
-0.23694717835254234
-0.29233742783754685
-0.2800284835075273
-0.2431016505175243
-0.1938658731975296
-0.26156506701252585
-0.2984919000025288
-0.4892805371175811
-0.40927239897256545
-0.360036621652543
-0.4523537041275505
-0.9139391165026156
0.01538618041249662
0.04615854123751762
-0.18771140103251985
-0.21232928969253104
-0.21232928969253104
-0.24925612268253405
-0.26156506701252585
-0.23079270618753256
-0.26771953917753555
-0.21232928969253104
-0.11385773505251384
-0.21232928969253104
-0.2184837618575408
-0.28618295567253704
-0.28618295567253704
-0.26156506701252585
-0.2431016505175243
-0.2554105948475438
-0.2554105948475438
-0.033849596907498114
0.6185244525825918
-0.3723455659825625
-0.18771140103251985
-0.2184837618575408
-0.1938658731975296
-0.02769512474251612
-0.14463009587750708
-0.26771953917753555
-0.7723862567076134
-0.6185244525825918
-0.396963454642546
-0.35388214948756097
-0.30464637216753854
-0.26156506701252585
-0.2738740113425453
-0.24925612268253405
-0.2984919000025288
-0.31695531649755804
-0.3354187329925596
-0.3415732051575415
-0.45850817629256013
-0.40927239897256545
-0.28618295567253704
-0.23694717835254234
-0.28618295567253704
-0.3292642608275498
-0.29233742783754685
-0.2738740113425453
-0.26156506701252585
-0.26156506701252585
-0.30464637216753854
-0.2738740113425453
-0.30464637216753854
-0.36619109381755277
-0.26771953917753555
-0.17540245670252808
-0.2246382340225228
0.1261666793825056
0.8523943948526291
-0.06462195773251911
-0.8093130896976164
-0.8770122835126126
-0.433890287632549
-0.3292642608275498
-0.32310978866254003
-0.35388214948756097
-0.36619109381755277
-0.3108008443325483
-0.40311792680755576
-0.29233742783754685
-0.29233742783754685
-0.2984919000025288
-0.2738740113425453
-0.26771953917753555
-0.2431016505175243
-0.15078456804251686
-0.29233742783754685
-0.26771953917753555
-0.2431016505175243
-0.24925612268253405
-0.23079270618753256
-0.23079270618753256
-0.21232928969253104
-0.16309351237253633
-0.15693904020752658
0.07693090206251085
-0.10770326288750408
-0.15078456804251686
-0.1938658731975296
-0.16309351237253633
-0.1938658731975296
-0.09539431855751236
-0.2554105948475438
-0.2984919000025288
-0.28618295567253704
-0.2554105948475438
-0.2246382340225228
-0.2554105948475438
-0.2984919000025288
-0.26771953917753555
-0.427735815467567
-0.32310978866254003
-0.30464637216753854
-0.2554105948475438
-0.26771953917753555
-0.24925612268253405
-0.2061748175275213
-0.11385773505251384
-0.26156506701252585
-0.2800284835075273
-0.23079270618753256
-0.2554105948475438
-0.2184837618575408
-0.2984919000025288
-0.15693904020752658
0.3108008443325483
-0.1261666793825056
-0.24925612268253405
-0.30464637216753854
-0.2431016505175243
-0.3108008443325483
-0.8770122835126126
0.0707764298975011
0.1692479845375183
-0.2000203453625393
-0.31695531649755804
-0.28618295567253704
-0.26156506701252585
-0.3292642608275498
-0.5200528979425745
-0.8585488670176111
-0.4892805371175811
-0.538516314437576
-0.3846545103125543
-0.3292642608275498
-0.37850003814754446
-0.3846545103125543
-0.3415732051575415
-0.28618295567253704
-0.2431016505175243
-0.390808982477564
-0.360036621652543
-0.35388214948756097
-0.3723455659825625
-0.26156506701252585
-0.2184837618575408
-0.3292642608275498
-0.2554105948475438
-0.360036621652543
-0.3415732051575415
-0.31695531649755804
-0.31695531649755804
-0.30464637216753854
-0.28618295567253704
-0.29233742783754685
-0.26156506701252585
-0.360036621652543
-0.3354187329925596
-0.3723455659825625
-0.30464637216753854
-0.29233742783754685
-0.3292642608275498
-0.26771953917753555
-0.1938658731975296
-0.3354187329925596
-0.3415732051575415
-0.32310978866254003
-0.2738740113425453
-0.2984919000025288
-0.36619109381755277
-0.31695531649755804
-0.30464637216753854
-0.45850817629256013
-0.396963454642546
-0.32310978866254003
-0.28618295567253704
-0.28618295567253704
-0.2738740113425453
-0.2984919000025288
0.01538618041249662
0.6062155082525723
-0.6431423412426028
-0.427735815467567
-0.3354187329925596
-0.35388214948756097
-0.3108008443325483
-0.30464637216753854
-0.7169960072226089
-0.8831667556776225
-0.4523537041275505
-0.46466264845757
-0.4154268711375475
-0.396963454642546
-0.37850003814754446
-0.35388214948756097
-0.35388214948756097
-0.4523537041275505
-0.390808982477564
-0.3354187329925596
-0.3292642608275498
-0.37850003814754446
-0.3292642608275498
-0.34772767732255133
-0.28618295567253704
-0.37850003814754446
-0.3354187329925596
-0.34772767732255133
-0.3415732051575415
-0.31695531649755804
-0.3108008443325483
-0.2984919000025288
-0.30464637216753854
-0.3354187329925596
-0.29233742783754685
-0.3292642608275498
-0.30464637216753854
-0.29233742783754685
-0.37850003814754446
-0.360036621652543
-0.2800284835075273
-0.40311792680755576
-0.3846545103125543
-0.3723455659825625
-0.3846545103125543
-0.396963454642546
-0.396963454642546
-0.34772767732255133
-0.3723455659825625
-0.4708171206225797
-0.40927239897256545
-0.34772767732255133
-0.34772767732255133
-0.36619109381755277
-0.36619109381755277
-0.26771953917753555
-0.34772767732255133
-0.44619923196256844
-0.390808982477564
-0.360036621652543
-0.34772767732255133
-0.36619109381755277
-0.35388214948756097
-0.37850003814754446
-0.9262480608326351
-0.16309351237253633
0.02769512474251612
-0.2000203453625393
-0.2800284835075273
-0.3108008443325483
-0.033849596907498114
0.16309351237253633
-0.07693090206251085
-0.26156506701252585
-0.23079270618753256
-0.26156506701252585
-0.29233742783754685
-0.26156506701252585
-0.2246382340225228
-0.2000203453625393
-0.30464637216753854
-0.3415732051575415
-0.2984919000025288
-0.26771953917753555
-0.29233742783754685
-0.5569797309325776
-0.7169960072226089
-0.4154268711375475
-0.3354187329925596
-0.34772767732255133
-0.31695531649755804
-0.2984919000025288
-0.2800284835075273
-0.28618295567253704
-0.2800284835075273
-0.2184837618575408
-0.23079270618753256
-0.3108008443325483
-0.31695531649755804
-0.26771953917753555
-0.05231301340249961
-0.18771140103251985
-0.2554105948475438
-0.2246382340225228
-0.23694717835254234
-0.26771953917753555
-0.24925612268253405
-0.24925612268253405
-0.2554105948475438
-0.2554105948475438
-0.24925612268253405
-0.23079270618753256
-0.26771953917753555
-0.3354187329925596
-0.30464637216753854
-0.18771140103251985
-0.28618295567253704
-0.28618295567253704
-0.2800284835075273
0.2000203453625393
-0.28618295567253704
-0.6554512855725947
-0.11385773505251384
0.5323618422725662
-0.5015894814475731
-0.2800284835075273
-0.2738740113425453
-0.36619109381755277
-0.9200935886676254
-0.6431423412426028
-0.40927239897256545
-0.4154268711375475
-0.390808982477564
-0.360036621652543
-0.34772767732255133
-0.2554105948475438
-0.3723455659825625
-0.3415732051575415
-0.23694717835254234
-0.2184837618575408
-0.2061748175275213
-0.2431016505175243
-0.2554105948475438
-0.2554105948475438
-0.396963454642546
-0.31695531649755804
-0.42158134330255725
-0.427735815467567
-0.396963454642546
-0.3354187329925596
-0.26156506701252585
-0.1938658731975296
-0.3354187329925596
-0.29233742783754685
-0.28618295567253704
-0.2800284835075273
-0.29233742783754685
-0.3415732051575415
-0.36619109381755277
0.16309351237253633
-0.31695531649755804
-0.6554512855725947
0.2184837618575408
-0.2000203453625393
-0.3108008443325483
-0.3292642608275498
-0.29233742783754685
-0.3846545103125543
-0.8708578113476306
-0.5323618422725662
-0.40927239897256545
-0.35388214948756097
-0.2984919000025288
-0.30464637216753854
-0.23694717835254234
0.45850817629256013
0.23079270618753256
-0.16309351237253633
-0.1938658731975296
-0.2061748175275213
-0.2061748175275213
-0.23079270618753256
-0.2061748175275213
-0.1261666793825056
-0.2246382340225228
-0.24925612268253405
-0.29233742783754685
-0.24925612268253405
-0.2554105948475438
-0.26156506701252585
-0.7169960072226089
-0.7108415350575992
-0.5262073701075842
-0.3723455659825625
-0.3354187329925596
-0.3108008443325483
-0.31695531649755804
-0.3354187329925596
-0.2738740113425453
-0.18771140103251985
-0.29233742783754685
-0.2554105948475438
-0.2431016505175243
-0.23079270618753256
-0.21232928969253104
-0.15078456804251686
-0.18771140103251985
-0.2246382340225228
-0.3292642608275498
-0.29233742783754685
-0.29233742783754685
-0.29233742783754685
-0.2738740113425453
-0.2431016505175243
-0.2984919000025288
-0.2184837618575408
-0.3108008443325483
-0.24925612268253405
-0.28618295567253704
-0.26771953917753555
-0.2061748175275213
-0.23694717835254234
-0.4523537041275505
-0.8154675618626261
0.15693904020752658
-0.02769512474251612
-0.2000203453625393
-0.2000203453625393
-0.2246382340225228
-0.23694717835254234
-0.2554105948475438
-0.21232928969253104
-0.31695531649755804
-0.3108008443325483
-0.26156506701252585
-0.23079270618753256
-0.30464637216753854
-0.2800284835075273
-0.26771953917753555
-0.24925612268253405
-0.35388214948756097
-0.3108008443325483
-0.26156506701252585
-0.29233742783754685
0.01538618041249662
0.6616057577376044
-0.36619109381755277
-0.6123699804175821
-0.8031586175326066
-0.396963454642546
-0.3723455659825625
-0.433890287632549
-0.30464637216753854
-0.28618295567253704
-0.2431016505175243
-0.21232928969253104
-0.3292642608275498
-0.2738740113425453
-0.2431016505175243
-0.23694717835254234
-0.2738740113425453
-0.30464637216753854
-0.24925612268253405
-0.18155692886753785
-0.21232928969253104
-0.04615854123751762
-0.1015487907225221
-0.2000203453625393
-0.2431016505175243
-0.1938658731975296
-0.21232928969253104
-0.23079270618753256
-0.26771953917753555
-0.2431016505175243
-0.2431016505175243
-0.2061748175275213
-0.21232928969253104
-0.2431016505175243
-0.26771953917753555
-0.10770326288750408
-0.2800284835075273
-0.3415732051575415
-0.29233742783754685
-0.2984919000025288
-0.2984919000025288
-0.31695531649755804
-0.26771953917753555
-0.26156506701252585
-0.3292642608275498
-0.29233742783754685
-0.2554105948475438
-0.2554105948475438
-0.30464637216753854
-0.34772767732255133
-0.24925612268253405
-0.08308537422752059
-0.2246382340225228
-0.2246382340225228
-0.2984919000025288
-0.3108008443325483
-0.2800284835075273
-0.29233742783754685
-0.26771953917753555
-0.2738740113425453
-0.30464637216753854
-0.30464637216753854
-0.29233742783754685
-0.45850817629256013
-1.0185651433076426
-0.02769512474251612
-0.1015487907225221
-0.30464637216753854
-0.32310978866254003
-0.2738740113425453
-0.31695531649755804
-0.3292642608275498
-0.3108008443325483
-0.2800284835075273
-0.2738740113425453
-0.2984919000025288
-0.2984919000025288
-0.2738740113425453
-0.26156506701252585
-0.28618295567253704
-0.30464637216753854
-0.3292642608275498
-0.2554105948475438
-0.2738740113425453
-0.3292642608275498
-0.28618295567253704
-0.26771953917753555
-0.26771953917753555
-0.23694717835254234
-0.2431016505175243
-0.23694717835254234
-0.26156506701252585
-0.26771953917753555
-0.2554105948475438
-0.24925612268253405
-0.1938658731975296
-0.1692479845375183
-0.2061748175275213
-0.16309351237253633
-0.26771953917753555
-0.2800284835075273
-0.2554105948475438
-0.26771953917753555
-0.26156506701252585
-0.24925612268253405
-0.26156506701252585
-0.2431016505175243
-0.2554105948475438
-0.2554105948475438
-0.26156506701252585
-0.23079270618753256
-0.2061748175275213
-0.26156506701252585
-0.2554105948475438
-0.18155692886753785
-0.2184837618575408
-0.2246382340225228
-0.2184837618575408
-0.2184837618575408
-0.2431016505175243
-0.2554105948475438
-0.23079270618753256
0.16309351237253633
0.538516314437576
-0.47697159278756174
-0.23079270618753256
-0.1261666793825056
-0.18771140103251985
-0.21232928969253104
-0.2246382340225228
-0.2984919000025288
-0.7723862567076134
-0.44619923196256844
-0.2800284835075273
-0.26156506701252585
-0.2184837618575408
-0.2061748175275213
-0.2000203453625393
-0.18155692886753785
-0.28618295567253704
-0.2184837618575408
-0.1692479845375183
-0.2000203453625393
-0.2061748175275213
-0.2061748175275213
-0.2000203453625393
-0.1200122072175236
-0.2554105948475438
-0.23694717835254234
-0.2061748175275213
-0.2061748175275213
-0.2061748175275213
-0.21232928969253104
-0.21232928969253104
-0.1384756237125251
-0.23079270618753256
-0.1938658731975296
-0.18155692886753785
-0.17540245670252808
-0.2000203453625393
-0.1938658731975296
-0.1692479845375183
-0.1200122072175236
-0.21232928969253104
-0.1938658731975296
-0.16309351237253633
-0.1692479845375183
-0.1692479845375183
-0.1692479845375183
-0.17540245670252808
-0.02154065257750637
0.1015487907225221
-0.058467485567509365
-0.1015487907225221
-0.14463009587750708
-0.18771140103251985
-0.13232115154751534
-0.04615854123751762
0.04000406907250786
-0.15693904020752658
-0.1261666793825056
-0.13232115154751534
-0.1261666793825056
-0.17540245670252808
-0.21232928969253104
-0.5015894814475731
-1.2585895577426898
-0.16309351237253633
-0.04615854123751762
-0.15693904020752658
-0.1692479845375183
-0.1938658731975296
-0.2184837618575408
-0.2000203453625393
-0.16309351237253633
-0.2984919000025288
-0.24925612268253405
-0.2184837618575408
-0.2246382340225228
-0.2738740113425453
-0.1692479845375183
-0.1938658731975296
-0.18155692886753785
-0.26156506701252585
-0.18155692886753785
-0.1938658731975296
-0.14463009587750708
-0.1692479845375183
-0.18771140103251985
-0.1200122072175236
-0.09539431855751236
-0.2246382340225228
-0.2061748175275213
-0.18155692886753785
-0.14463009587750708
-0.058467485567509365
-0.1692479845375183
-0.1938658731975296
-0.09539431855751236
-0.2000203453625393
-0.1692479845375183
-0.16309351237253633
-0.1692479845375183
-0.16309351237253633
-0.14463009587750708
-0.18155692886753785
-0.11385773505251384
-0.1938658731975296
-0.2000203453625393
-0.21232928969253104
-0.1384756237125251
-0.10770326288750408
-0.14463009587750708
-0.10770326288750408
0.7108415350575992
-0.18155692886753785
-0.1938658731975296
-0.1261666793825056
-0.11385773505251384
-0.09539431855751236
-0.08923984639250258
-0.09539431855751236
-0.4154268711375475
-0.5631342030975872
0.05231301340249961
0.7970041453676248
-0.4523537041275505
-0.1938658731975296
-0.09539431855751236
-0.11385773505251384
-0.4400447597975588
-0.5200528979425745
-0.18771140103251985
-0.10770326288750408
-0.11385773505251384
-0.11385773505251384
-0.0707764298975011
-0.058467485567509365
-0.1015487907225221
-0.18155692886753785
-0.04615854123751762
-0.05231301340249961
-0.1261666793825056
-0.09539431855751236
-0.11385773505251384
-0.11385773505251384
-0.08308537422752059
-0.15078456804251686
-0.1384756237125251
-0.1200122072175236
-0.10770326288750408
-0.10770326288750408
-0.13232115154751534
-0.08923984639250258
-0.0707764298975011
-0.1015487907225221
-0.1015487907225221
-0.11385773505251384
-0.11385773505251384
-0.13232115154751534
-0.1261666793825056
-0.1200122072175236
-0.1015487907225221
-0.1384756237125251
-0.1200122072175236
-0.07693090206251085
-0.08308537422752059
-0.13232115154751534
-0.14463009587750708
-0.04000406907250786
-0.01538618041249662
-0.23079270618753256
-0.16309351237253633
-0.1384756237125251
-0.1384756237125251
-0.11385773505251384
-0.1015487907225221
-0.09539431855751236
-0.10770326288750408
-0.13232115154751534
-0.14463009587750708
-0.14463009587750708
-0.10770326288750408
-0.1015487907225221
-0.1384756237125251
-0.1261666793825056
-0.2061748175275213
-0.29233742783754685
-0.7231504793875909
0.2061748175275213
0.15693904020752658
-0.09539431855751236
-0.13232115154751534
-0.07693090206251085
-0.07693090206251085
-0.15693904020752658
-0.1384756237125251
-0.1384756237125251
-0.1200122072175236
-0.13232115154751534
0.033849596907498114
0.02154065257750637
-0.09539431855751236
-0.16309351237253633
-0.1384756237125251
-0.1261666793825056
-0.09539431855751236
-0.08308537422752059
-0.11385773505251384
-0.05231301340249961
-0.11385773505251384
-0.1261666793825056
-0.09539431855751236
-0.09539431855751236
-0.13232115154751534
-0.1015487907225221
-0.2184837618575408
-0.17540245670252808
-0.2431016505175243
-0.17540245670252808
-0.15693904020752658
-0.17540245670252808
-0.1938658731975296
-0.18155692886753785
-0.16309351237253633
-0.1261666793825056
-0.18155692886753785
-0.1938658731975296
-0.17540245670252808
-0.1692479845375183
-0.1200122072175236
-0.1938658731975296
-0.1938658731975296
0.6862236463975879
-0.23079270618753256
-0.889321227842632
-0.32310978866254003
-0.2061748175275213
-0.21232928969253104
-0.21232928969253104
-0.1938658731975296
-0.1384756237125251
-0.2431016505175243
-0.2738740113425453
-0.2431016505175243
-0.2184837618575408
0.05231301340249961
0.5569797309325776
-0.396963454642546
-0.3108008443325483
-0.7477683680476023
-0.40927239897256545
-0.2738740113425453
-0.2554105948475438
-0.2000203453625393
-0.2246382340225228
-0.2431016505175243
-0.1384756237125251
-0.26156506701252585
-0.24925612268253405
-0.1384756237125251
-0.1938658731975296
-0.1938658731975296
-0.21232928969253104
-0.2000203453625393
-0.13232115154751534
-0.2431016505175243
-0.23694717835254234
-0.26156506701252585
-0.23079270618753256
-0.21232928969253104
-0.23694717835254234
-0.26771953917753555
-0.18771140103251985
-0.3108008443325483
-0.3108008443325483
-0.31695531649755804
-0.28618295567253704
-0.26771953917753555
-0.2554105948475438
-0.23079270618753256
-0.18771140103251985
-0.29233742783754685
-0.2554105948475438
-0.26156506701252585
-0.29233742783754685
-0.2800284835075273
-0.24925612268253405
-0.2800284835075273
-0.1692479845375183
-0.23694717835254234
-0.28618295567253704
-0.26771953917753555
-0.26771953917753555
-0.24925612268253405
-0.23079270618753256
-0.2246382340225228
-0.2246382340225228
-0.31695531649755804
-0.2554105948475438
-0.24925612268253405
-0.2800284835075273
-0.26771953917753555
-0.2738740113425453
-0.26771953917753555
-0.35388214948756097
-0.4892805371175811
-0.34772767732255133
-0.2738740113425453
-0.3723455659825625
-0.9385570051626267
0.02154065257750637
0.04615854123751762
-0.1384756237125251
-0.32310978866254003
-0.30464637216753854
-0.23694717835254234
-0.26771953917753555
-0.2738740113425453
-0.2431016505175243
0.003077236082504875
-0.05231301340249961
-0.2431016505175243
-0.2246382340225228
-0.24925612268253405
-0.24925612268253405
-0.23694717835254234
-0.23079270618753256
-0.2554105948475438
-0.2000203453625393
-0.3354187329925596
-0.32310978866254003
-0.26156506701252585
-0.28618295567253704
-0.30464637216753854
-0.3292642608275498
-0.30464637216753854
-0.23694717835254234
-0.360036621652543
-0.30464637216753854
-0.28618295567253704
-0.24925612268253405
-0.2554105948475438
-0.2431016505175243
-0.15078456804251686
-0.08308537422752059
-0.2246382340225228
-0.23079270618753256
-0.2738740113425453
-0.28618295567253704
-0.18155692886753785
-0.2554105948475438
-0.29233742783754685
-0.2800284835075273
-0.3846545103125543
-0.26771953917753555
-0.23694717835254234
-0.2246382340225228
-0.23694717835254234
-0.21232928969253104
-0.23079270618753256
-0.1938658731975296
-0.3108008443325483
-0.3415732051575415
-0.2431016505175243
-0.21232928969253104
-0.3108008443325483
-0.31695531649755804
0.02154065257750637
0.5692886752625692
-0.4831260649525715
-0.2800284835075273
-0.24925612268253405
-0.26156506701252585
-0.26771953917753555
-0.26156506701252585
-0.28618295567253704
-0.6862236463975879
-0.7908496732026148
-0.46466264845757
-0.32310978866254003
-0.31695531649755804
-0.2984919000025288
-0.3108008443325483
-0.30464637216753854
-0.29233742783754685
-0.3354187329925596
-0.26156506701252585
-0.2984919000025288
-0.29233742783754685
-0.2738740113425453
-0.29233742783754685
-0.29233742783754685
-0.28618295567253704
-0.28618295567253704
-0.21232928969253104
-0.26156506701252585
-0.26156506701252585
-0.2738740113425453
-0.2800284835075273
-0.26771953917753555
-0.26771953917753555
-0.3108008443325483
-0.2431016505175243
-0.21232928969253104
-0.2431016505175243
-0.21232928969253104
-0.23694717835254234
-0.2554105948475438
-0.23079270618753256
-0.2800284835075273
-0.2800284835075273
-0.29233742783754685
-0.2738740113425453
-0.2554105948475438
-0.2246382340225228
-0.2000203453625393
-0.2246382340225228
-0.26771953917753555
-0.2738740113425453
-0.24925612268253405
-0.26156506701252585
-0.23079270618753256
-0.2738740113425453
-0.1938658731975296
-0.058467485567509365
-0.2738740113425453
-0.35388214948756097
-0.2246382340225228
-0.2431016505175243
-0.2738740113425453
-0.34772767732255133
-0.6616057577376044
0.889321227842632
-0.04615854123751762
-0.14463009587750708
-0.18771140103251985
-0.21232928969253104
-0.2246382340225228
-0.2431016505175243
-0.37850003814754446
-0.8708578113476306
-0.6492968134075848
-0.396963454642546
-0.35388214948756097
-0.30464637216753854
-0.2800284835075273
-0.28618295567253704
-0.2738740113425453
-0.2984919000025288
-0.2800284835075273
-0.26156506701252585
-0.24925612268253405
-0.24925612268253405
-0.2246382340225228
-0.2554105948475438
-0.2246382340225228
-0.2554105948475438
-0.28618295567253704
-0.2554105948475438
-0.2800284835075273
-0.2431016505175243
-0.2246382340225228
-0.26156506701252585
-0.21232928969253104
-0.26771953917753555
-0.2800284835075273
-0.26771953917753555
-0.32310978866254003
-0.2554105948475438
-0.2184837618575408
-0.23694717835254234
-0.16309351237253633
-0.26771953917753555
-0.2984919000025288
-0.2800284835075273
-0.31695531649755804
-0.26771953917753555
-0.26156506701252585
-0.2738740113425453
-0.2246382340225228
-0.29233742783754685
-0.26156506701252585
-0.2738740113425453
-0.2800284835075273
-0.2800284835075273
-0.24925612268253405
-0.26771953917753555
-0.2061748175275213
-0.30464637216753854
-0.009231708247514623
0.7908496732026148
-0.5508252587675677
-0.390808982477564
-0.26771953917753555
-0.2554105948475438
-0.396963454642546
-0.8770122835126126
-0.5631342030975872
-0.36619109381755277
-0.37850003814754446
-0.35388214948756097
-0.3108008443325483
-0.28618295567253704
-0.2184837618575408
-0.36619109381755277
-0.3354187329925596
-0.26771953917753555
-0.2738740113425453
-0.2738740113425453
-0.26771953917753555
-0.2554105948475438
-0.15078456804251686
-0.3292642608275498
-0.23079270618753256
-0.23079270618753256
-0.2800284835075273
-0.24925612268253405
-0.24925612268253405
-0.24925612268253405
-0.15693904020752658
-0.2984919000025288
-0.29233742783754685
-0.2246382340225228
-0.26771953917753555
-0.2431016505175243
-0.21232928969253104
-0.2554105948475438
-0.16309351237253633
-0.23694717835254234
-0.18155692886753785
-0.26156506701252585
-0.24925612268253405
-0.24925612268253405
-0.3108008443325483
-0.30464637216753854
-0.17540245670252808
-0.40311792680755576
-0.396963454642546
-0.34772767732255133
-0.3108008443325483
-0.30464637216753854
-0.28618295567253704
-0.28618295567253704
-0.24925612268253405
-0.427735815467567
-0.32310978866254003
-0.28618295567253704
-0.2800284835075273
-0.2431016505175243
-0.2184837618575408
-0.26771953917753555
-0.1938658731975296
-0.433890287632549
-0.9816383103176396
0.009231708247514623
0.02769512474251612
-0.2246382340225228
-0.28618295567253704
-0.26156506701252585
-0.28618295567253704
-0.32310978866254003
-0.2800284835075273
-0.2984919000025288
-0.29233742783754685
-0.2738740113425453
-0.26771953917753555
-0.2431016505175243
-0.2000203453625393
-0.3292642608275498
-0.3108008443325483
-0.29233742783754685
-0.3108008443325483
-0.31695531649755804
-0.21232928969253104
-0.16309351237253633
-0.16309351237253633
-0.30464637216753854
-0.2800284835075273
-0.28618295567253704
-0.32310978866254003
-0.3108008443325483
-0.2800284835075273
-0.26156506701252585
-0.23079270618753256
-0.34772767732255133
-0.2738740113425453
-0.2738740113425453
-0.2738740113425453
-0.16309351237253633
-0.31695531649755804
-0.26156506701252585
-0.16309351237253633
-0.2984919000025288
-0.2800284835075273
-0.2554105948475438
-0.2554105948475438
-0.26156506701252585
-0.2246382340225228
-0.18771140103251985
-0.1938658731975296
-0.2984919000025288
-0.2738740113425453
-0.2800284835075273
-0.21232928969253104
-0.2431016505175243
-0.2800284835075273
-0.29233742783754685
-0.2738740113425453
-0.34772767732255133
-0.3292642608275498
-0.29233742783754685
0.058467485567509365
0.8277765061926179
-0.47697159278756174
-0.3292642608275498
-0.6677602299025863
-0.8216220340276081
-0.5200528979425745
-0.3354187329925596
-0.360036621652543
-0.427735815467567
-0.42158134330255725
-0.390808982477564
-0.34772767732255133
-0.36619109381755277
-0.29233742783754685
-0.24925612268253405
-0.28618295567253704
-0.32310978866254003
-0.3108008443325483
-0.31695531649755804
-0.3354187329925596
-0.37850003814754446
-0.36619109381755277
-0.390808982477564
-0.3354187329925596
-0.360036621652543
-0.3354187329925596
-0.26771953917753555
-0.2554105948475438
-0.30464637216753854
-0.29233742783754685
-0.26771953917753555
-0.2061748175275213
-0.21232928969253104
-0.23694717835254234
-0.2061748175275213
-0.2184837618575408
-0.17540245670252808
-0.24925612268253405
-0.24925612268253405
-0.2554105948475438
-0.23694717835254234
-0.2246382340225228
-0.18771140103251985
-0.1938658731975296
-0.2184837618575408
-0.2061748175275213
-0.23694717835254234
-0.23079270618753256
-0.2554105948475438
-0.2984919000025288
-0.2184837618575408
-0.2000203453625393
-0.28618295567253704
-0.29233742783754685
-0.2738740113425453
-0.2984919000025288
-0.2738740113425453
-0.2431016505175243
-0.26771953917753555
-0.29233742783754685
-0.29233742783754685
-0.3108008443325483
-0.4523537041275505
-0.9447114773276367
0.02769512474251612
0.1015487907225221
-0.04615854123751762
-0.2738740113425453
-0.28618295567253704
-0.23079270618753256
-0.26156506701252585
-0.2000203453625393
-0.1938658731975296
-0.23079270618753256
-0.18771140103251985
-0.2984919000025288
-0.26771953917753555
-0.23079270618753256
-0.2431016505175243
-0.2800284835075273
-0.2800284835075273
-0.1200122072175236
-0.14463009587750708
-0.26771953917753555
-0.31695531649755804
-0.2800284835075273
-0.29233742783754685
-0.3354187329925596
-0.29233742783754685
-0.2431016505175243
-0.23079270618753256
-0.2800284835075273
-0.26771953917753555
-0.23694717835254234
-0.2431016505175243
-0.2738740113425453
-0.28618295567253704
-0.35388214948756097
-0.26156506701252585
-0.26156506701252585
-0.28618295567253704
-0.2800284835075273
-0.2554105948475438
-0.2554105948475438
-0.2738740113425453
-0.26771953917753555
-0.15693904020752658
-0.28618295567253704
-0.3292642608275498
-0.3292642608275498
-0.2738740113425453
-0.18771140103251985
-0.2984919000025288
-0.2984919000025288
-0.24925612268253405
-0.3354187329925596
-0.3292642608275498
-0.29233742783754685
-0.30464637216753854
-0.2984919000025288
-0.3108008443325483
0.003077236082504875
0.4523537041275505
-1.0554919762976458
-0.6185244525825918
-0.40311792680755576
-0.2184837618575408
-0.32310978866254003
-0.3415732051575415
-0.34772767732255133
-0.2554105948475438
-0.34772767732255133
-0.34772767732255133
-0.3108008443325483
-0.3415732051575415
-0.35388214948756097
-0.31695531649755804
-0.2800284835075273
0.2554105948475438
-0.21232928969253104
-0.6923781185625978
0.1384756237125251
-0.18155692886753785
-0.2000203453625393
-0.23694717835254234
-0.26771953917753555
-0.4400447597975588
-0.8770122835126126
-0.538516314437576
-0.37850003814754446
-0.3723455659825625
-0.360036621652543
-0.34772767732255133
-0.37850003814754446
-0.2984919000025288
-0.40311792680755576
-0.31695531649755804
-0.40927239897256545
-0.3846545103125543
-0.3415732051575415
-0.2800284835075273
-0.2431016505175243
-0.2246382340225228
-0.3723455659825625
-0.35388214948756097
-0.2984919000025288
-0.2984919000025288
-0.3108008443325483
-0.2984919000025288
-0.2984919000025288
-0.2061748175275213
-0.003077236082504875
-0.09539431855751236
-0.23694717835254234
-0.28618295567253704
-0.2800284835075273
-0.2984919000025288
-0.29233742783754685
-0.15693904020752658
-0.34772767732255133
-0.34772767732255133
-0.2984919000025288
-0.31695531649755804
-0.28618295567253704
-0.3354187329925596
-0.3292642608275498
-0.4892805371175811
-0.5631342030975872
-0.396963454642546
-0.34772767732255133
-0.30464637216753854
-0.3108008443325483
-0.32310978866254003
-0.28618295567253704
-0.2061748175275213
-0.31695531649755804
-0.2738740113425453
-0.28618295567253704
-0.2984919000025288
-0.36619109381755277
-0.2984919000025288
-0.4523537041275505
-0.901630172172624
0.09539431855751236
-0.08308537422752059
-0.2554105948475438
-0.26156506701252585
-0.2738740113425453
-0.2800284835075273
-0.23079270618753256
-0.17540245670252808
-0.32310978866254003
-0.26156506701252585
-0.26156506701252585
-0.2984919000025288
-0.23079270618753256
-0.18155692886753785
-0.2431016505175243
-0.1692479845375183
-0.29233742783754685
-0.29233742783754685
-0.29233742783754685
-0.2246382340225228
-0.2554105948475438
-0.28618295567253704
-0.23079270618753256
-0.23694717835254234
-0.360036621652543
-0.3108008443325483
-0.35388214948756097
-0.3108008443325483
-0.14463009587750708
-0.18771140103251985
-0.2246382340225228
-0.2000203453625393
-0.29233742783754685
-0.29233742783754685
-0.28618295567253704
-0.24925612268253405
-0.26771953917753555
-0.2431016505175243
-0.2246382340225228
-0.2246382340225228
0.02154065257750637
0.5631342030975872
-0.40311792680755576
-0.35388214948756097
-0.32310978866254003
-0.2184837618575408
-0.24925612268253405
-0.6985325907276074
-0.6985325907276074
-0.37850003814754446
-0.29233742783754685
-0.26771953917753555
-0.26771953917753555
-0.2431016505175243
-0.2431016505175243
-0.2184837618575408
-0.360036621652543
-0.29233742783754685
-0.2184837618575408
-0.2984919000025288
-0.29233742783754685
-0.2800284835075273
-0.2738740113425453
-0.26156506701252585
-0.29233742783754685
-0.2800284835075273
-0.2554105948475438
-0.29233742783754685
-0.2800284835075273
-0.26771953917753555
-0.2246382340225228
-0.29233742783754685
-0.32310978866254003
-0.26156506701252585
-0.24925612268253405
-0.2554105948475438
-0.26771953917753555
-0.23694717835254234
-0.2246382340225228
-0.2246382340225228
-0.26156506701252585
-0.2738740113425453
-0.2738740113425453
-0.2800284835075273
-0.30464637216753854
-0.26771953917753555
-0.2184837618575408
-0.1692479845375183
-0.24925612268253405
-0.2800284835075273
-0.2061748175275213
-0.2000203453625393
-0.2554105948475438
-0.26771953917753555
-0.15078456804251686
-0.18155692886753785
-0.2061748175275213
-0.1200122072175236
-0.11385773505251384
-0.1384756237125251
-0.15693904020752658
-0.2738740113425453
-0.15078456804251686
-0.21232928969253104
-0.9200935886676254
0.04000406907250786
0.02769512474251612
-0.1692479845375183
-0.1200122072175236
-0.10770326288750408
-0.1200122072175236
-0.15693904020752658
-0.18155692886753785
-0.18771140103251985
-0.23079270618753256
-0.2184837618575408
-0.23079270618753256
-0.1938658731975296
-0.05231301340249961
-0.17540245670252808
-0.18771140103251985
-0.1261666793825056
-0.16309351237253633
-0.1692479845375183
-0.1261666793825056
-0.1261666793825056
-0.10770326288750408
-0.09539431855751236
-0.07693090206251085
-0.06462195773251911
-0.1200122072175236
-0.14463009587750708
-0.15693904020752658
-0.18771140103251985
-0.0707764298975011
-0.15078456804251686
-0.14463009587750708
-0.11385773505251384
-0.11385773505251384
-0.14463009587750708
-0.08923984639250258
-0.06462195773251911
-0.04615854123751762
-0.10770326288750408
-0.04615854123751762
-0.06462195773251911
-0.11385773505251384
-0.10770326288750408
-0.09539431855751236
-0.06462195773251911
-0.003077236082504875
-0.06462195773251911
-0.08308537422752059
-0.08308537422752059
-0.08923984639250258
-0.08923984639250258
-0.058467485567509365
-0.05231301340249961
-0.01538618041249662
-0.10770326288750408
-0.0707764298975011
-0.05231301340249961
0.427735815467567
1.11088222578265
-0.058467485567509365
0.04615854123751762
-0.04000406907250786
-0.5077439536125827
-0.2000203453625393
-0.06462195773251911
-0.04000406907250786
0.003077236082504875
-0.02154065257750637
0.009231708247514623
0.10770326288750408
-0.08308537422752059
-0.05231301340249961
-0.17540245670252808
-0.390808982477564
-0.08308537422752059
-0.003077236082504875
0.04000406907250786
0.10770326288750408
-0.04615854123751762
-0.02769512474251612
0.003077236082504875
-0.01538618041249662
0.01538618041249662
0.033849596907498114
0.02154065257750637
0.01538618041249662
-0.08923984639250258
-0.009231708247514623
-0.02769512474251612
-0.04615854123751762
-0.033849596907498114
-0.04000406907250786
-0.04000406907250786
0.04000406907250786
-0.1200122072175236
-0.1015487907225221
-0.05231301340249961
-0.02154065257750637
-0.01538618041249662
-0.04000406907250786
-0.009231708247514623
0.04000406907250786
-0.08923984639250258
-0.009231708247514623
-0.033849596907498114
-0.0707764298975011
-0.08308537422752059
-0.0707764298975011
-0.08923984639250258
-0.033849596907498114
-0.1384756237125251
-0.1015487907225221
-0.10770326288750408
-0.11385773505251384
-0.09539431855751236
-0.07693090206251085
-0.1261666793825056
-0.04000406907250786
-0.10770326288750408
-0.10770326288750408
-0.2184837618575408
-0.7169960072226089
0.17540245670252808
0.13232115154751534
-0.07693090206251085
-0.05231301340249961
-0.2000203453625393
-0.18155692886753785
-0.14463009587750708
-0.15693904020752658
-0.1938658731975296
-0.15693904020752658
-0.08308537422752059
-0.2000203453625393
-0.23694717835254234
-0.18155692886753785
-0.16309351237253633
-0.15693904020752658
-0.14463009587750708
-0.14463009587750708
-0.1261666793825056
-0.10770326288750408
-0.23079270618753256
-0.18771140103251985
-0.14463009587750708
-0.14463009587750708
-0.28618295567253704
-0.1384756237125251
-0.07693090206251085
0.7046870628925893
-0.15693904020752658
-0.2184837618575408
-0.1384756237125251
-0.1261666793825056
-0.15078456804251686
-0.15693904020752658
-0.1200122072175236
-0.5015894814475731
-0.6246789247476013
-0.30464637216753854
-0.26156506701252585
-0.2000203453625393
-0.09539431855751236
-0.2061748175275213
-0.17540245670252808
-0.1200122072175236
-0.21232928969253104
-0.2000203453625393
-0.2000203453625393
-0.2184837618575408
-0.2184837618575408
-0.2061748175275213
-0.17540245670252808
-0.13232115154751534
-0.21232928969253104
-0.2184837618575408
-0.21232928969253104
-0.1384756237125251
-0.2184837618575408
0.07693090206251085
0.6000610360875902
-0.8093130896976164
-0.6369878690775933
-0.30464637216753854
-0.23694717835254234
-0.2246382340225228
-0.2431016505175243
-0.18771140103251985
-0.17540245670252808
-0.18771140103251985
-0.26771953917753555
-0.23694717835254234
-0.21232928969253104
-0.2738740113425453
-0.2184837618575408
-0.23694717835254234
-0.2000203453625393
-0.2061748175275213
-0.2554105948475438
-0.2431016505175243
-0.23079270618753256
-0.18155692886753785
-0.18155692886753785
-0.1938658731975296
-0.1938658731975296
-0.2246382340225228
-0.2738740113425453
-0.1938658731975296
-0.17540245670252808
-0.2000203453625393
-0.2246382340225228
-0.2184837618575408
-0.1692479845375183
-0.1692479845375183
-0.2184837618575408
-0.2431016505175243
-0.23079270618753256
-0.21232928969253104
-0.21232928969253104
-0.2246382340225228
-0.18771140103251985
-0.18155692886753785
-0.24925612268253405
-0.2554105948475438
-0.26156506701252585
-0.24925612268253405
-0.2184837618575408
-0.2000203453625393
-0.18771140103251985
-0.18155692886753785
-0.2554105948475438
-0.23079270618753256
-0.2061748175275213
-0.2000203453625393
-0.26771953917753555
-0.2800284835075273
-0.23079270618753256
-0.2000203453625393
-0.3108008443325483
-0.31695531649755804
-0.2554105948475438
-0.23694717835254234
-0.37850003814754446
-0.895475700007614
