0.9324025329976448
0.5939065639225805
0.6800691742326058
0.7846952010376053
1.2278171969176688
2.114061188677796
2.1756059103278105
1.3693700567126987
1.2339716690826785
1.1970448360926755
1.289361918567683
1.3570611123826792
1.3016708628976748
1.1355001144426613
1.289361918567683
1.6647847206327224
2.083288827852803
1.2708985020726815
1.2770529742376913
1.2955163907326928
1.3078253350626845
1.5970855268177266
1.8248009969227539
1.5293863330027024
0.7600773123775938
0.37850003814754446
0.40311792680755576
0.28618295567253704
0.28618295567253704
0.5077439536125827
0.7231504793875909
0.9877927824826491
1.6217034154777374
-0.08923984639250258
0.9262480608326351
1.326288751557686
1.683248137127724
1.0370285598026439
0.7970041453676248
1.0554919762976458
0.26771953917753555
-0.003077236082504875
0.1692479845375183
-0.02769512474251612
-0.23079270618753256
-0.433890287632549
-0.5877520917575707
-0.5939065639225805
-0.6677602299025863
-0.7600773123775938
-0.7354594237176103
-0.5569797309325776
-0.6308333969125834
-0.6123699804175821
-0.6123699804175821
-0.575443147427579
-0.5569797309325776
-0.575443147427579
-0.360036621652543
-0.2061748175275213
-0.04615854123751762
0.003077236082504875
0.06462195773251911
0.08308537422752059
0.003077236082504875
-0.15693904020752658
-0.3846545103125543
-0.37850003814754446
-0.36619109381755277
-0.4400447597975588
-0.4708171206225797
-0.427735815467567
-0.49543500928256323
-0.6185244525825918
-0.5569797309325776
-0.5262073701075842
-0.5200528979425745
-0.49543500928256323
-0.433890287632549
-0.34772767732255133
-0.3415732051575415
-0.2738740113425453
-0.3415732051575415
-0.2431016505175243
-0.14463009587750708
-0.15693904020752658
-0.16309351237253633
-0.08923984639250258
-0.2061748175275213
-0.29233742783754685
-0.2984919000025288
-0.30464637216753854
-0.31695531649755804
-0.3108008443325483
-0.37850003814754446
-0.8831667556776225
-0.16309351237253633
-0.06462195773251911
-0.3846545103125543
-0.44619923196256844
-0.44619923196256844
-0.46466264845757
-0.46466264845757
-0.44619923196256844
-0.5138984257775646
-0.5508252587675677
-0.5877520917575707
-0.6123699804175821
-0.5323618422725662
-0.5569797309325776
-0.6062155082525723
-0.5508252587675677
-0.6246789247476013
-0.3723455659825625
-0.49543500928256323
-0.6000610360875902
-0.6985325907276074
-0.6985325907276074
-0.6800691742326058
-0.901630172172624
-1.0985732814526583
-1.178581419597674
-1.1908903639276658
-1.2708985020726815
-1.4493781948577145
-1.5478497494977315
-1.6340123598077294
-1.6524757763027311
-1.8124920525927626
-1.8371099412527454
-1.7694107474377496
-1.5970855268177266
-1.2401261412476885
-1.0370285598026439
-1.0493375041326358
-1.0185651433076426
-1.0431830319676536
-0.8277765061926179
-0.4400447597975588
-0.6923781185625978
-0.6862236463975879
-0.6862236463975879
-0.6862236463975879
-0.6923781185625978
-0.7231504793875909
-0.7169960072226089
-0.6985325907276074
-0.6923781185625978
-0.6923781185625978
-0.6862236463975879
-0.6739147020675963
-0.6616057577376044
-0.6492968134075848
-0.6431423412426028
-0.6431423412426028
-0.6246789247476013
-0.6062155082525723
-0.6000610360875902
-0.5939065639225805
-0.5939065639225805
-0.5815976195925888
-0.5877520917575707
-0.5877520917575707
-0.575443147427579
-0.575443147427579
-0.575443147427579
-0.575443147427579
-0.5569797309325776
-0.5569797309325776
-0.5508252587675677
-0.5508252587675677
-0.5508252587675677
-0.5323618422725662
-0.5077439536125827
-0.5077439536125827
-0.5015894814475731
-0.49543500928256323
-0.5015894814475731
-0.49543500928256323
-0.49543500928256323
-0.4831260649525715
-0.4831260649525715
-0.4708171206225797
-0.4708171206225797
-0.47697159278756174
-0.47697159278756174
-0.45850817629256013
-0.46466264845757
-0.46466264845757
-0.4523537041275505
-0.4523537041275505
-0.44619923196256844
-0.44619923196256844
-0.4400447597975588
-0.4400447597975588
-0.4400447597975588
-0.4400447597975588
-0.433890287632549
-0.427735815467567
-0.40927239897256545
-0.390808982477564
-0.396963454642546
-0.390808982477564
-0.390808982477564
-0.396963454642546
-0.390808982477564
-0.3846545103125543
-0.37850003814754446
-0.3846545103125543
-0.37850003814754446
-0.37850003814754446
-0.3846545103125543
-0.3846545103125543
-0.3723455659825625
-0.3723455659825625
-0.3723455659825625
-0.35388214948756097
-0.360036621652543
-0.35388214948756097
-0.35388214948756097
-0.34772767732255133
-0.32310978866254003
-0.30464637216753854
-0.2984919000025288
-0.3108008443325483
-0.31695531649755804
-0.31695531649755804
-0.31695531649755804
-0.31695531649755804
-0.32310978866254003
-0.3354187329925596
-0.32310978866254003
-0.32310978866254003
-0.31695531649755804
-0.31695531649755804
-0.31695531649755804
-0.32310978866254003
-0.31695531649755804
-0.3108008443325483
-0.3108008443325483
-0.3108008443325483
-0.30464637216753854
-0.3108008443325483
-0.30464637216753854
-0.30464637216753854
-0.2984919000025288
-0.30464637216753854
-0.29233742783754685
-0.2984919000025288
-0.30464637216753854
-0.2984919000025288
-0.31695531649755804
-0.3292642608275498
-0.3354187329925596
-0.32310978866254003
-0.2554105948475438
-0.15693904020752658
-0.033849596907498114
0.08923984639250258
0.1692479845375183
0.1692479845375183
0.10770326288750408
-0.003077236082504875
-0.15693904020752658
-0.32310978866254003
-0.4523537041275505
-0.538516314437576
-0.5631342030975872
-0.5446707866025856
-0.46466264845757
-0.3846545103125543
-0.3292642608275498
-0.3108008443325483
-0.2984919000025288
-0.29233742783754685
-0.29233742783754685
-0.2800284835075273
-0.2800284835075273
-0.2800284835075273
-0.2738740113425453
-0.2738740113425453
-0.26771953917753555
-0.26771953917753555
-0.26156506701252585
-0.2554105948475438
-0.2554105948475438
-0.24925612268253405
-0.24925612268253405
-0.24925612268253405
-0.2431016505175243
-0.23694717835254234
-0.23694717835254234
-0.23694717835254234
-0.2431016505175243
-0.23694717835254234
-0.23694717835254234
-0.2431016505175243
-0.23694717835254234
-0.23079270618753256
-0.23079270618753256
-0.2246382340225228
-0.23079270618753256
-0.2246382340225228
-0.2246382340225228
-0.2246382340225228
-0.2246382340225228
-0.2246382340225228
-0.2246382340225228
-0.21232928969253104
-0.2061748175275213
-0.2061748175275213
-0.2000203453625393
-0.21232928969253104
-0.2000203453625393
-0.2000203453625393
-0.1938658731975296
-0.18771140103251985
-0.18771140103251985
-0.17540245670252808
-0.1692479845375183
-0.1692479845375183
-0.1692479845375183
-0.16309351237253633
-0.1692479845375183
-0.14463009587750708
-0.1384756237125251
-0.13232115154751534
-0.1384756237125251
-0.13232115154751534
-0.1261666793825056
-0.1261666793825056
-0.1200122072175236
-0.11385773505251384
-0.11385773505251384
-0.10770326288750408
-0.11385773505251384
-0.10770326288750408
-0.10770326288750408
-0.1200122072175236
-0.1200122072175236
-0.1261666793825056
-0.13232115154751534
-0.14463009587750708
-0.15078456804251686
-0.16309351237253633
-0.17540245670252808
-0.18771140103251985
-0.1938658731975296
-0.2000203453625393
-0.2061748175275213
-0.21232928969253104
-0.23694717835254234
-0.2061748175275213
-0.1938658731975296
-0.21232928969253104
-0.21232928969253104
-0.2184837618575408
-0.2000203453625393
-0.1015487907225221
-0.42158134330255725
-0.36619109381755277
-0.009231708247514623
0.08923984639250258
0.02154065257750637
0.02154065257750637
0.04615854123751762
0.11385773505251384
0.1200122072175236
0.07693090206251085
0.15693904020752658
0.08308537422752059
0.033849596907498114
0.06462195773251911
-0.003077236082504875
-0.033849596907498114
-0.07693090206251085
-0.05231301340249961
-0.01538618041249662
-0.02769512474251612
-0.04000406907250786
-0.08923984639250258
-0.003077236082504875
-0.08923984639250258
-0.40927239897256545
-0.21232928969253104
-0.13232115154751534
-0.10770326288750408
-0.11385773505251384
-0.1384756237125251
-0.18771140103251985
-0.16309351237253633
-0.2000203453625393
-0.2246382340225228
-0.2000203453625393
-0.2061748175275213
-0.23694717835254234
-0.26771953917753555
-0.28618295567253704
-0.26156506701252585
-0.2738740113425453
-0.28618295567253704
-0.23694717835254234
-0.24925612268253405
-0.24925612268253405
-0.23694717835254234
-0.24925612268253405
-0.26156506701252585
-0.2800284835075273
-0.28618295567253704
-0.28618295567253704
-0.28618295567253704
-0.2800284835075273
-0.2738740113425453
-0.2738740113425453
-0.2800284835075273
-0.2800284835075273
-0.26771953917753555
-0.26771953917753555
-0.2800284835075273
-0.26771953917753555
-0.26771953917753555
-0.26156506701252585
-0.26771953917753555
-0.26771953917753555
-0.26771953917753555
-0.26771953917753555
-0.26771953917753555
-0.2554105948475438
-0.26156506701252585
-0.26156506701252585
-0.2554105948475438
-0.2554105948475438
-0.26156506701252585
-0.26156506701252585
-0.2554105948475438
-0.2554105948475438
-0.26156506701252585
-0.26156506701252585
-0.26156506701252585
-0.2554105948475438
-0.24925612268253405
-0.24925612268253405
-0.2554105948475438
-0.2554105948475438
-0.24925612268253405
-0.26771953917753555
-0.26156506701252585
-0.2554105948475438
-0.2554105948475438
-0.2554105948475438
-0.2554105948475438
-0.24925612268253405
-0.26156506701252585
-0.26156506701252585
-0.26156506701252585
-0.2554105948475438
-0.2431016505175243
-0.24925612268253405
-0.24925612268253405
-0.2554105948475438
-0.2554105948475438
-0.2431016505175243
-0.24925612268253405
-0.24925612268253405
-0.2431016505175243
-0.2431016505175243
-0.15693904020752658
0.11385773505251384
0.2738740113425453
0.23694717835254234
0.18155692886753785
0.033849596907498114
-0.1015487907225221
-0.15693904020752658
-0.1015487907225221
-0.06462195773251911
-0.08308537422752059
-0.1938658731975296
-0.1692479845375183
-0.2431016505175243
-0.2246382340225228
-0.18771140103251985
-0.15693904020752658
-0.13232115154751534
-0.08923984639250258
-0.1200122072175236
-0.14463009587750708
-0.26771953917753555
-0.3292642608275498
-0.26156506701252585
-0.2246382340225228
-0.24925612268253405
-0.28618295567253704
-0.29233742783754685
-0.23079270618753256
-0.24925612268253405
-0.29233742783754685
-0.3108008443325483
-0.30464637216753854
-0.29233742783754685
-0.3108008443325483
-0.23694717835254234
-0.24925612268253405
-0.033849596907498114
0.6431423412426028
-0.5631342030975872
-0.360036621652543
-0.16309351237253633
0.07693090206251085
0.18771140103251985
0.1200122072175236
-0.4154268711375475
-0.15078456804251686
0.07693090206251085
0.2184837618575408
0.2554105948475438
0.37850003814754446
0.37850003814754446
0.5631342030975872
0.46466264845757
0.40311792680755576
0.433890287632549
0.4892805371175811
0.538516314437576
0.5138984257775646
0.44619923196256844
0.427735815467567
0.23694717835254234
0.24925612268253405
0.31695531649755804
0.36619109381755277
0.31695531649755804
0.2554105948475438
0.23694717835254234
0.2554105948475438
0.033849596907498114
0.009231708247514623
0.02769512474251612
-0.003077236082504875
-0.05231301340249961
-0.07693090206251085
0.01538618041249662
0.23079270618753256
0.18771140103251985
0.2061748175275213
0.2246382340225228
0.2738740113425453
0.2000203453625393
0.1938658731975296
0.16309351237253633
0.2800284835075273
0.07693090206251085
-0.05231301340249961
-0.2061748175275213
-0.2246382340225228
-0.23694717835254234
-0.21232928969253104
-0.17540245670252808
-0.10770326288750408
-0.24925612268253405
-0.2246382340225228
-0.2554105948475438
-0.32310978866254003
-0.23079270618753256
-0.17540245670252808
-0.17540245670252808
-0.2554105948475438
-0.9754838381526297
-0.08308537422752059
-0.009231708247514623
-0.2061748175275213
-0.11385773505251384
0.15693904020752658
0.4892805371175811
0.7354594237176103
0.40311792680755576
0.29233742783754685
0.13232115154751534
-0.1015487907225221
-0.32310978866254003
-0.45850817629256013
-0.49543500928256323
-0.46466264845757
-0.5138984257775646
-0.4708171206225797
-0.42158134330255725
-0.390808982477564
-0.31695531649755804
-0.32310978866254003
-0.4400447597975588
-0.46466264845757
-0.6369878690775933
-0.6000610360875902
-0.538516314437576
-0.4523537041275505
-0.4154268711375475
-0.427735815467567
-0.4523537041275505
-0.46466264845757
-0.40311792680755576
-0.2800284835075273
-0.29233742783754685
-0.35388214948756097
-0.4400447597975588
-0.44619923196256844
-0.3723455659825625
-0.05231301340249961
-0.1261666793825056
-0.2431016505175243
-0.29233742783754685
-0.3846545103125543
-0.5200528979425745
-0.5077439536125827
-0.4831260649525715
-0.396963454642546
-0.5569797309325776
-0.3846545103125543
-0.11385773505251384
0.04615854123751762
0.1200122072175236
0.2000203453625393
-0.01538618041249662
-0.18771140103251985
-0.24925612268253405
-0.1938658731975296
0.10770326288750408
0.7354594237176103
-0.5446707866025856
-0.396963454642546
-0.32310978866254003
-0.5569797309325776
-0.9570204216576284
-0.5877520917575707
-0.396963454642546
-0.3354187329925596
-0.2800284835075273
-0.2061748175275213
-0.29233742783754685
-0.2554105948475438
-0.3292642608275498
-0.2431016505175243
-0.2246382340225228
-0.21232928969253104
-0.24925612268253405
-0.2554105948475438
-0.23079270618753256
-0.17540245670252808
-0.2246382340225228
-0.003077236082504875
0.1384756237125251
0.18771140103251985
0.4892805371175811
0.5015894814475731
0.2061748175275213
0.07693090206251085
-0.23694717835254234
-0.2554105948475438
-0.26771953917753555
-0.23694717835254234
-0.15078456804251686
-0.13232115154751534
0.01538618041249662
0.13232115154751534
-0.04000406907250786
-0.09539431855751236
-0.17540245670252808
-0.14463009587750708
-0.033849596907498114
-0.0707764298975011
0.21232928969253104
1.0985732814526583
-0.2246382340225228
0.8031586175326066
0.7416138958825924
0.40311792680755576
0.1384756237125251
-0.05231301340249961
-0.10770326288750408
-0.5138984257775646
-0.6554512855725947
-0.3108008443325483
-0.5508252587675677
-0.7477683680476023
-0.40927239897256545
-0.30464637216753854
-0.23694717835254234
-0.2000203453625393
-0.2800284835075273
-0.23694717835254234
-0.1938658731975296
-0.15693904020752658
-0.1015487907225221
0.08923984639250258
0.2431016505175243
0.17540245670252808
-0.15078456804251686
-0.10770326288750408
-0.2246382340225228
-0.2246382340225228
-0.2061748175275213
-0.2000203453625393
-0.14463009587750708
-0.08923984639250258
-0.23694717835254234
-0.2061748175275213
-0.21232928969253104
-0.1692479845375183
-0.16309351237253633
-0.1938658731975296
-0.17540245670252808
-0.2246382340225228
-0.2984919000025288
-0.32310978866254003
-0.29233742783754685
-0.2184837618575408
-0.1261666793825056
-0.0707764298975011
-0.07693090206251085
-0.058467485567509365
-0.04615854123751762
0.04000406907250786
0.009231708247514623
-0.033849596907498114
-0.13232115154751534
-0.1692479845375183
-0.1384756237125251
0.01538618041249662
-0.15078456804251686
-0.1384756237125251
-0.1261666793825056
-0.033849596907498114
0.07693090206251085
0.0707764298975011
-0.4400447597975588
-0.0707764298975011
0.360036621652543
0.05231301340249961
0.009231708247514623
0.05231301340249961
0.0707764298975011
0.04000406907250786
0.10770326288750408
0.02154065257750637
-0.02769512474251612
-0.05231301340249961
-0.08308537422752059
-0.04615854123751762
0.2431016505175243
0.8585488670176111
-0.29233742783754685
-0.5692886752625692
-0.5508252587675677
-0.2984919000025288
-0.18155692886753785
-0.1261666793825056
-0.058467485567509365
-0.058467485567509365
-0.033849596907498114
-0.11385773505251384
-0.1384756237125251
-0.1384756237125251
-0.17540245670252808
-0.2554105948475438
-0.28618295567253704
-0.1200122072175236
0.1200122072175236
0.18155692886753785
0.2554105948475438
0.36619109381755277
0.433890287632549
0.36619109381755277
0.360036621652543
0.3723455659825625
0.45850817629256013
0.49543500928256323
0.45850817629256013
0.5446707866025856
0.4708171206225797
0.46466264845757
0.5015894814475731
0.4831260649525715
0.5569797309325776
0.5077439536125827
0.3292642608275498
0.3108008443325483
0.21232928969253104
0.1015487907225221
0.02769512474251612
-0.003077236082504875
0.2061748175275213
0.2184837618575408
0.21232928969253104
0.26156506701252585
0.2061748175275213
0.08923984639250258
-0.02769512474251612
-0.15693904020752658
-0.21232928969253104
-0.32310978866254003
-0.360036621652543
-0.30464637216753854
-0.1384756237125251
-0.2431016505175243
-0.2246382340225228
-0.18155692886753785
-0.09539431855751236
-0.07693090206251085
-0.1015487907225221
-0.08308537422752059
-0.1261666793825056
-0.2184837618575408
-0.7046870628925893
0.08923984639250258
0.02769512474251612
-0.32310978866254003
-0.3723455659825625
-0.2554105948475438
-0.2738740113425453
-0.21232928969253104
-0.1938658731975296
-0.24925612268253405
-0.24925612268253405
-0.32310978866254003
-0.3846545103125543
-0.40927239897256545
-0.5138984257775646
-0.5692886752625692
-0.4708171206225797
-0.32310978866254003
0.15693904020752658
-0.24925612268253405
-0.6123699804175821
-0.3108008443325483
-0.23079270618753256
-0.23694717835254234
-0.3108008443325483
-0.3723455659825625
-0.26156506701252585
-0.34772767732255133
-0.4154268711375475
-0.3846545103125543
-0.35388214948756097
-0.3846545103125543
-0.390808982477564
-0.37850003814754446
-0.3108008443325483
-0.360036621652543
-0.5262073701075842
-0.4523537041275505
-0.433890287632549
-0.42158134330255725
-0.40311792680755576
-0.390808982477564
-0.24925612268253405
-0.35388214948756097
-0.40927239897256545
-0.3415732051575415
-0.3354187329925596
-0.31695531649755804
-0.2738740113425453
-0.2984919000025288
-0.23079270618753256
-0.3354187329925596
-0.35388214948756097
-0.3354187329925596
-0.3292642608275498
-0.31695531649755804
-0.29233742783754685
-0.28618295567253704
0.08923984639250258
0.4523537041275505
-0.4831260649525715
-0.29233742783754685
-0.2800284835075273
-0.3108008443325483
-0.36619109381755277
-0.23079270618753256
-0.37850003814754446
-0.8831667556776225
-0.5323618422725662
-0.35388214948756097
-0.30464637216753854
-0.2984919000025288
-0.28618295567253704
-0.26156506701252585
-0.1692479845375183
-0.26156506701252585
-0.29233742783754685
-0.26771953917753555
-0.2738740113425453
-0.2738740113425453
-0.23079270618753256
-0.2984919000025288
-0.1692479845375183
-0.31695531649755804
-0.2984919000025288
-0.16309351237253633
-0.15693904020752658
-0.1938658731975296
-0.13232115154751534
-0.1261666793825056
-0.08308537422752059
-0.2184837618575408
-0.16309351237253633
-0.1261666793825056
-0.11385773505251384
-0.1261666793825056
-0.1261666793825056
-0.09539431855751236
-0.009231708247514623
-0.1261666793825056
-0.10770326288750408
-0.04000406907250786
-0.033849596907498114
-0.04615854123751762
-0.04000406907250786
-0.04000406907250786
0.01538618041249662
-0.10770326288750408
-0.10770326288750408
-0.1200122072175236
-0.05231301340249961
-0.07693090206251085
-0.08308537422752059
-0.07693090206251085
0.033849596907498114
-0.10770326288750408
-0.033849596907498114
0.003077236082504875
0.033849596907498114
0.02154065257750637
0.003077236082504875
-0.1015487907225221
-0.5692886752625692
0.2246382340225228
0.29233742783754685
0.16309351237253633
0.02769512474251612
0.05231301340249961
0.09539431855751236
0.08923984639250258
0.14463009587750708
-0.04000406907250786
0.05231301340249961
0.058467485567509365
0.06462195773251911
0.07693090206251085
0.06462195773251911
0.058467485567509365
0.1200122072175236
-0.0707764298975011
-0.05231301340249961
-0.05231301340249961
-0.04000406907250786
0.003077236082504875
0.02154065257750637
0.04000406907250786
0.1200122072175236
-0.04000406907250786
0.04000406907250786
0.07693090206251085
0.06462195773251911
0.07693090206251085
0.1384756237125251
0.18155692886753785
0.2738740113425453
0.14463009587750708
0.1200122072175236
0.11385773505251384
0.08308537422752059
0.06462195773251911
0.1015487907225221
0.2000203453625393
0.34772767732255133
0.17540245670252808
0.2000203453625393
0.2246382340225228
0.2984919000025288
0.30464637216753854
0.2984919000025288
0.3292642608275498
0.3723455659825625
0.4154268711375475
0.5138984257775646
0.42158134330255725
0.32310978866254003
0.3723455659825625
0.42158134330255725
0.42158134330255725
1.25243508557768
0.40927239897256545
0.6062155082525723
0.901630172172624
-0.2184837618575408
0.2984919000025288
0.4708171206225797
0.5815976195925888
0.42158134330255725
0.2184837618575408
0.6677602299025863
0.9816383103176396
1.1355001144426613
1.0678009206276373
0.9631748938226381
0.8708578113476306
0.7231504793875909
0.396963454642546
0.40927239897256545
0.42158134330255725
0.360036621652543
0.3108008443325483
0.4523537041275505
0.427735815467567
0.45850817629256013
0.28618295567253704
0.2554105948475438
0.17540245670252808
0.10770326288750408
0.07693090206251085
0.08923984639250258
0.08308537422752059
0.07693090206251085
-0.18155692886753785
-0.0707764298975011
-0.0707764298975011
-0.08923984639250258
-0.10770326288750408
-0.1015487907225221
-0.05231301340249961
0.009231708247514623
-0.1015487907225221
-0.08308537422752059
-0.1200122072175236
-0.09539431855751236
-0.08923984639250258
-0.1200122072175236
-0.08308537422752059
-0.02154065257750637
-0.23079270618753256
-0.15693904020752658
-0.13232115154751534
-0.11385773505251384
-0.1200122072175236
-0.13232115154751534
-0.07693090206251085
-0.01538618041249662
-0.15078456804251686
-0.10770326288750408
-0.11385773505251384
-0.1261666793825056
-0.11385773505251384
-0.1384756237125251
-0.07693090206251085
-0.033849596907498114
-0.32310978866254003
-0.7785407288726233
0.2000203453625393
0.1384756237125251
-0.02769512474251612
-0.01538618041249662
0.02769512474251612
0.0707764298975011
-0.01538618041249662
-0.058467485567509365
-0.09539431855751236
-0.09539431855751236
-0.1384756237125251
-0.13232115154751534
-0.11385773505251384
-0.08308537422752059
-0.2431016505175243
-0.1261666793825056
-0.04615854123751762
-0.02769512474251612
-0.04615854123751762
-0.0707764298975011
-0.02769512474251612
0.36619109381755277
1.5293863330027024
0.6000610360875902
0.15078456804251686
0.02769512474251612
0.009231708247514623
0.15078456804251686
0.07693090206251085
-0.02769512474251612
-0.07693090206251085
-0.1200122072175236
-0.1200122072175236
-0.1261666793825056
-0.1384756237125251
-0.14463009587750708
-0.08923984639250258
-0.08308537422752059
-0.1938658731975296
-0.1384756237125251
-0.1384756237125251
-0.1692479845375183
-0.18771140103251985
-0.18771140103251985
-0.13232115154751534
-0.08308537422752059
-0.3292642608275498
-0.2738740113425453
-0.23079270618753256
-0.1692479845375183
-0.15693904020752658
-0.1384756237125251
-0.08923984639250258
-0.15078456804251686
-0.2000203453625393
-0.1938658731975296
-0.17540245670252808
0.15693904020752658
0.8093130896976164
-0.40927239897256545
-0.26156506701252585
-0.6677602299025863
-0.5323618422725662
-0.28618295567253704
-0.2061748175275213
-0.14463009587750708
-0.2000203453625393
-0.23694717835254234
-0.17540245670252808
-0.2061748175275213
-0.2554105948475438
-0.24925612268253405
-0.2246382340225228
-0.2431016505175243
-0.24925612268253405
-0.2000203453625393
-0.23079270618753256
-0.2431016505175243
-0.2738740113425453
-0.23694717835254234
-0.21232928969253104
-0.2184837618575408
-0.1938658731975296
-0.1692479845375183
-0.1261666793825056
-0.1938658731975296
-0.24925612268253405
-0.18771140103251985
-0.15693904020752658
-0.18155692886753785
-0.1200122072175236
-0.11385773505251384
-0.1261666793825056
-0.1692479845375183
-0.2184837618575408
-0.18155692886753785
-0.17540245670252808
-0.1692479845375183
-0.1692479845375183
-0.13232115154751534
-0.07693090206251085
-0.11385773505251384
-0.1692479845375183
-0.1384756237125251
-0.11385773505251384
-0.003077236082504875
-0.05231301340249961
-0.08923984639250258
-0.06462195773251911
-0.1384756237125251
-0.1692479845375183
-0.16309351237253633
-0.15078456804251686
-0.15693904020752658
-0.1200122072175236
-0.11385773505251384
0.36619109381755277
-0.08923984639250258
-0.5200528979425745
-0.28618295567253704
-0.45850817629256013
-1.0247196154726523
0.05231301340249961
0.09539431855751236
-0.05231301340249961
-0.18155692886753785
-0.2246382340225228
-0.15078456804251686
-0.16309351237253633
-0.2061748175275213
-0.1938658731975296
-0.15693904020752658
-0.04000406907250786
-0.16309351237253633
-0.2246382340225228
-0.009231708247514623
-0.04000406907250786
-0.1015487907225221
-0.1261666793825056
-0.1384756237125251
-0.02769512474251612
-0.13232115154751534
-0.16309351237253633
-0.1015487907225221
-0.1015487907225221
-0.1200122072175236
-0.11385773505251384
-0.07693090206251085
-0.033849596907498114
-0.2061748175275213
-0.1938658731975296
-0.17540245670252808
-0.17540245670252808
-0.17540245670252808
-0.17540245670252808
-0.17540245670252808
-0.0707764298975011
-0.18771140103251985
-0.16309351237253633
-0.13232115154751534
-0.1384756237125251
-0.14463009587750708
-0.13232115154751534
-0.1261666793825056
-0.08308537422752059
-0.16309351237253633
-0.2431016505175243
-0.17540245670252808
-0.10770326288750408
-0.1015487907225221
-0.1384756237125251
-0.1384756237125251
-0.02769512474251612
-0.23694717835254234
-0.2184837618575408
-0.15693904020752658
-0.18155692886753785
-0.18155692886753785
-0.18155692886753785
0.1384756237125251
0.8770122835126126
-0.7046870628925893
-0.44619923196256844
-0.2738740113425453
-0.2061748175275213
-0.1692479845375183
-0.16309351237253633
-0.18771140103251985
-0.1200122072175236
-0.2061748175275213
-0.17540245670252808
-0.15693904020752658
-0.17540245670252808
-0.18155692886753785
-0.1938658731975296
-0.3415732051575415
-0.2984919000025288
-0.3415732051575415
-0.23079270618753256
-0.15693904020752658
-0.14463009587750708
-0.17540245670252808
-0.18771140103251985
-0.1692479845375183
-0.0707764298975011
-0.2246382340225228
-0.2184837618575408
-0.2061748175275213
-0.1692479845375183
-0.15693904020752658
-0.1200122072175236
-0.06462195773251911
-0.003077236082504875
-0.1938658731975296
-0.1384756237125251
-0.11385773505251384
-0.11385773505251384
-0.1384756237125251
-0.10770326288750408
-0.11385773505251384
-0.033849596907498114
-0.1692479845375183
-0.15078456804251686
-0.1261666793825056
-0.15078456804251686
-0.04615854123751762
-0.08923984639250258
-0.10770326288750408
0.02154065257750637
-0.1938658731975296
-0.16309351237253633
-0.16309351237253633
-0.16309351237253633
-0.17540245670252808
-0.18771140103251985
-0.2061748175275213
-0.1384756237125251
-0.26156506701252585
-0.2000203453625393
-0.18155692886753785
-0.18155692886753785
-0.18155692886753785
-0.29233742783754685
-0.8031586175326066
0.15693904020752658
0.08923984639250258
-0.1384756237125251
-0.15078456804251686
-0.1692479845375183
-0.16309351237253633
-0.15078456804251686
-0.1384756237125251
0.6923781185625978
0.1200122072175236
-0.2246382340225228
-0.09539431855751236
-0.1015487907225221
-0.10770326288750408
-0.10770326288750408
-0.07693090206251085
-0.30464637216753854
-0.6308333969125834
-0.2184837618575408
-0.10770326288750408
-0.08923984639250258
-0.08308537422752059
-0.1261666793825056
-0.13232115154751534
-0.06462195773251911
-0.26771953917753555
-0.2431016505175243
-0.2246382340225228
-0.21232928969253104
-0.15078456804251686
-0.1200122072175236
-0.05231301340249961
0.01538618041249662
-0.1692479845375183
-0.14463009587750708
-0.14463009587750708
-0.17540245670252808
-0.21232928969253104
-0.18771140103251985
-0.14463009587750708
-0.09539431855751236
-0.18771140103251985
-0.11385773505251384
-0.08308537422752059
-0.07693090206251085
-0.058467485567509365
-0.06462195773251911
-0.01538618041249662
0.04615854123751762
-0.13232115154751534
-0.08923984639250258
-0.10770326288750408
-0.1200122072175236
-0.1384756237125251
-0.14463009587750708
-0.14463009587750708
-0.07693090206251085
0.058467485567509365
0.6800691742326058
-0.24925612268253405
-0.08308537422752059
-0.05231301340249961
-0.04000406907250786
-0.01538618041249662
-0.34772767732255133
-0.5631342030975872
-0.1938658731975296
-0.1200122072175236
-0.10770326288750408
-0.08923984639250258
-0.10770326288750408
-0.01538618041249662
0.08308537422752059
-0.13232115154751534
-0.1261666793825056
-0.058467485567509365
-0.02154065257750637
-0.01538618041249662
-0.009231708247514623
0.05231301340249961
0.15693904020752658
-0.033849596907498114
-0.01538618041249662
0.009231708247514623
0.02154065257750637
-0.01538618041249662
0.06462195773251911
0.11385773505251384
0.14463009587750708
-0.02154065257750637
-0.003077236082504875
-0.01538618041249662
-0.003077236082504875
-0.003077236082504875
-0.04000406907250786
0.02154065257750637
0.02769512474251612
-0.058467485567509365
-0.009231708247514623
-0.02769512474251612
-0.05231301340249961
0.02154065257750637
-0.07693090206251085
-0.01538618041249662
0.02154065257750637
-0.05231301340249961
-0.01538618041249662
-0.02154065257750637
-0.009231708247514623
-0.01538618041249662
-0.04000406907250786
-0.009231708247514623
0.003077236082504875
-0.14463009587750708
-0.08308537422752059
-0.04615854123751762
0.04000406907250786
0.07693090206251085
0.04000406907250786
0.06462195773251911
-0.02769512474251612
-0.6554512855725947
0.29233742783754685
0.30464637216753854
0.07693090206251085
0.05231301340249961
0.003077236082504875
-0.009231708247514623
-0.04000406907250786
-0.08923984639250258
-0.0707764298975011
0.5262073701075842
2.347931130947833
0.9570204216576284
0.3354187329925596
0.21232928969253104
0.16309351237253633
0.058467485567509365
0.0707764298975011
0.04000406907250786
0.033849596907498114
0.04615854123751762
0.10770326288750408
0.1384756237125251
0.13232115154751534
0.01538618041249662
0.04615854123751762
-0.10770326288750408
-0.01538618041249662
0.033849596907498114
0.04615854123751762
0.1261666793825056
0.09539431855751236
-0.02769512474251612
0.05231301340249961
0.07693090206251085
0.08923984639250258
0.07693090206251085
0.10770326288750408
0.16309351237253633
0.09539431855751236
0.13232115154751534
0.26156506701252585
0.16309351237253633
0.1384756237125251
0.09539431855751236
0.04000406907250786
0.05231301340249961
0.009231708247514623
-0.0707764298975011
-0.04000406907250786
-0.033849596907498114
-0.02769512474251612
-0.04000406907250786
-0.04000406907250786
-0.033849596907498114
-0.08308537422752059
-0.1384756237125251
-0.06462195773251911
0.28618295567253704
0.8154675618626261
-0.18155692886753785
-0.04615854123751762
-0.07693090206251085
-0.6000610360875902
-0.45850817629256013
-0.21232928969253104
-0.15693904020752658
-0.10770326288750408
-0.10770326288750408
-0.08923984639250258
-0.009231708247514623
-0.08923984639250258
-0.09539431855751236
-0.033849596907498114
-0.04615854123751762
-0.08308537422752059
-0.09539431855751236
-0.05231301340249961
0.05231301340249961
0.02154065257750637
-0.033849596907498114
-0.033849596907498114
-0.02769512474251612
-0.058467485567509365
-0.058467485567509365
0.003077236082504875
-0.058467485567509365
-0.07693090206251085
-0.003077236082504875
0.033849596907498114
0.06462195773251911
0.0707764298975011
0.05231301340249961
0.08308537422752059
1.073955392792647
0.2246382340225228
-0.6369878690775933
-0.04615854123751762
0.07693090206251085
0.07693090206251085
0.23079270618753256
0.3292642608275498
0.26156506701252585
0.15693904020752658
0.10770326288750408
0.13232115154751534
0.14463009587750708
0.13232115154751534
0.21232928969253104
0.2554105948475438
0.30464637216753854
0.23079270618753256
0.24925612268253405
0.2431016505175243
0.16309351237253633
0.2431016505175243
0.1261666793825056
0.16309351237253633
0.30464637216753854
0.23694717835254234
0.2738740113425453
0.21232928969253104
-0.2554105948475438
0.6123699804175821
0.575443147427579
0.2984919000025288
0.3723455659825625
0.2554105948475438
0.21232928969253104
0.1692479845375183
0.2554105948475438
0.2554105948475438
0.23079270618753256
0.23079270618753256
0.3292642608275498
0.2554105948475438
0.24925612268253405
0.21232928969253104
0.17540245670252808
0.13232115154751534
0.10770326288750408
0.14463009587750708
0.2184837618575408
0.1384756237125251
0.1261666793825056
0.1200122072175236
0.10770326288750408
0.11385773505251384
0.1200122072175236
0.10770326288750408
0.1938658731975296
0.09539431855751236
0.1015487907225221
0.1692479845375183
0.1384756237125251
0.1384756237125251
0.1384756237125251
0.10770326288750408
0.21232928969253104
0.033849596907498114
0.14463009587750708
0.1692479845375183
0.16309351237253633
0.2000203453625393
0.17540245670252808
0.13232115154751534
0.21232928969253104
0.1200122072175236
0.13232115154751534
0.1692479845375183
0.23694717835254234
0.26156506701252585
0.28618295567253704
0.3108008443325483
0.42158134330255725
0.26156506701252585
0.28618295567253704
0.3354187329925596
0.3415732051575415
0.3415732051575415
0.6800691742326058
1.363215584547689
0.13232115154751534
-0.1692479845375183
0.2800284835075273
0.5692886752625692
0.6616057577376044
0.6800691742326058
0.6062155082525723
0.5631342030975872
0.6862236463975879
0.3846545103125543
0.36619109381755277
0.4154268711375475
0.4708171206225797
0.433890287632549
0.31695531649755804
0.3292642608275498
0.4154268711375475
0.30464637216753854
0.40311792680755576
0.40311792680755576
0.396963454642546
0.3846545103125543
0.30464637216753854
0.29233742783754685
1.0247196154726523
0.2738740113425453
0.28618295567253704
0.8339309783576276
0.47697159278756174
0.360036621652543
0.3415732051575415
0.3354187329925596
0.05231301340249961
-0.34772767732255133
0.04615854123751762
0.16309351237253633
0.2061748175275213
0.1692479845375183
0.2184837618575408
0.1692479845375183
0.2000203453625393
0.02769512474251612
0.01538618041249662
0.08923984639250258
0.1261666793825056
0.1200122072175236
0.1200122072175236
0.18771140103251985
0.3108008443325483
0.23694717835254234
0.2984919000025288
0.3108008443325483
0.2431016505175243
0.28618295567253704
0.24925612268253405
0.21232928969253104
0.2800284835075273
0.14463009587750708
0.2061748175275213
0.2184837618575408
0.18155692886753785
0.1384756237125251
0.1938658731975296
0.2554105948475438
0.3292642608275498
0.2184837618575408
0.32310978866254003
0.3108008443325483
0.2800284835075273
0.30464637216753854
0.26156506701252585
0.29233742783754685
0.36619109381755277
0.26771953917753555
0.3108008443325483
0.2984919000025288
0.26771953917753555
0.2738740113425453
0.34772767732255133
0.4400447597975588
0.49543500928256323
0.3846545103125543
0.4154268711375475
0.433890287632549
0.42158134330255725
0.4523537041275505
0.4892805371175811
0.18155692886753785
0.06462195773251911
0.8093130896976164
0.4708171206225797
0.37850003814754446
0.36619109381755277
0.3846545103125543
0.5631342030975872
1.7509473309427481
1.184735891762656
0.433890287632549
0.3723455659825625
0.29233742783754685
0.28618295567253704
0.2984919000025288
0.2800284835075273
0.30464637216753854
0.3415732051575415
0.1384756237125251
0.14463009587750708
0.1692479845375183
0.23079270618753256
0.26156506701252585
0.2738740113425453
0.26156506701252585
0.2984919000025288
0.3108008443325483
0.1692479845375183
0.2184837618575408
0.2738740113425453
0.32310978866254003
0.3108008443325483
0.32310978866254003
0.6369878690775933
0.901630172172624
0.1200122072175236
0.2984919000025288
0.3292642608275498
0.32310978866254003
0.3108008443325483
0.29233742783754685
-0.07693090206251085
-0.26771953917753555
0.10770326288750408
0.24925612268253405
0.2246382340225228
0.23079270618753256
0.2431016505175243
0.23079270618753256
0.2184837618575408
0.15078456804251686
0.1938658731975296
0.2061748175275213
0.2061748175275213
0.2246382340225228
0.23079270618753256
0.4154268711375475
0.3415732051575415
0.2184837618575408
0.3415732051575415
0.44619923196256844
0.4831260649525715
0.4400447597975588
0.360036621652543
0.34772767732255133
0.40311792680755576
0.2984919000025288
0.390808982477564
0.360036621652543
0.29233742783754685
0.1938658731975296
0.2554105948475438
0.21232928969253104
0.2246382340225228
0.13232115154751534
0.21232928969253104
0.26156506701252585
0.26156506701252585
0.2431016505175243
0.26156506701252585
0.35388214948756097
0.3846545103125543
0.23694717835254234
0.2800284835075273
0.26771953917753555
0.2061748175275213
0.21232928969253104
0.2431016505175243
0.24925612268253405
0.23694717835254234
0.1384756237125251
0.18155692886753785
0.1938658731975296
0.18771140103251985
0.16309351237253633
0.15078456804251686
0.1261666793825056
-0.40927239897256545
0.3292642608275498
0.390808982477564
0.1261666793825056
0.10770326288750408
0.05231301340249961
0.08923984639250258
0.15078456804251686
0.13232115154751534
0.04615854123751762
0.058467485567509365
0.05231301340249961
0.0707764298975011
0.10770326288750408
0.08923984639250258
0.10770326288750408
0.1261666793825056
0.08923984639250258
0.1015487907225221
0.14463009587750708
0.1261666793825056
0.1261666793825056
0.1692479845375183
0.23079270618753256
0.10770326288750408
0.0707764298975011
0.1200122072175236
0.17540245670252808
0.21232928969253104
0.21232928969253104
0.2246382340225228
0.2800284835075273
0.23694717835254234
0.14463009587750708
0.24925612268253405
0.2738740113425453
0.23694717835254234
0.21232928969253104
0.1938658731975296
0.18771140103251985
0.10770326288750408
0.07693090206251085
0.08923984639250258
0.09539431855751236
0.0707764298975011
0.09539431855751236
0.15078456804251686
0.18771140103251985
0.16309351237253633
0.2000203453625393
0.28618295567253704
0.26771953917753555
0.2554105948475438
0.2246382340225228
0.2246382340225228
0.29233742783754685
0.29233742783754685
0.3292642608275498
0.6923781185625978
1.1601180031026725
0.26156506701252585
0.37850003814754446
0.36619109381755277
0.30464637216753854
-0.2554105948475438
-0.13232115154751534
0.13232115154751534
0.17540245670252808
0.1692479845375183
0.13232115154751534
0.11385773505251384
0.15693904020752658
0.1261666793825056
0.13232115154751534
0.15693904020752658
0.16309351237253633
0.17540245670252808
0.2061748175275213
0.1938658731975296
1.3447521680526875
0.6369878690775933
-0.47697159278756174
0.02769512474251612
0.15693904020752658
0.14463009587750708
0.1692479845375183
0.2800284835075273
0.3723455659825625
0.21232928969253104
0.15078456804251686
0.15693904020752658
0.1015487907225221
0.0707764298975011
0.08923984639250258
0.06462195773251911
-0.07693090206251085
-0.08923984639250258
0.01538618041249662
0.06462195773251911
0.003077236082504875
0.02154065257750637
0.02769512474251612
0.02154065257750637
0.2184837618575408
0.23079270618753256
0.23079270618753256
0.23694717835254234
0.23079270618753256
1.7878741639327511
3.400345871162974
1.3324432237226955
0.7785407288726233
0.6246789247476013
0.6431423412426028
0.6739147020675963
0.8462399226876194
1.0616464484626553
1.0493375041326358
0.8647033391826209
0.8031586175326066
0.40927239897256545
0.10770326288750408
-0.45850817629256013
0.40311792680755576
0.4892805371175811
0.18771140103251985
0.15078456804251686
0.2554105948475438
-0.033849596907498114
-0.2061748175275213
-0.2184837618575408
-0.18771140103251985
-0.10770326288750408
-0.05231301340249961
-0.01538618041249662
0.15693904020752658
0.1692479845375183
0.29233742783754685
0.29233742783754685
0.2800284835075273
0.30464637216753854
0.37850003814754446
0.46466264845757
0.6185244525825918
0.5138984257775646
0.37850003814754446
0.2000203453625393
0.1261666793825056
0.1692479845375183
0.2554105948475438
0.2554105948475438
0.2431016505175243
0.04615854123751762
0.05231301340249961
0.18155692886753785
0.15693904020752658
0.23079270618753256
0.31695531649755804
0.40927239897256545
1.0801098649576568
1.178581419597674
0.30464637216753854
0.5815976195925888
0.7293049515526008
0.7846952010376053
0.8154675618626261
0.7723862567076134
0.6677602299025863
0.0707764298975011
0.360036621652543
0.3723455659825625
0.32310978866254003
0.34772767732255133
0.34772767732255133
0.31695531649755804
0.40927239897256545
0.2738740113425453
0.31695531649755804
0.37850003814754446
0.37850003814754446
0.6862236463975879
1.0062561989776508
0.4831260649525715
0.5015894814475731
0.44619923196256844
1.2462806134126705
0.9139391165026156
0.5631342030975872
1.3016708628976748
1.0370285598026439
0.895475700007614
0.8216220340276081
0.6123699804175821
0.5815976195925888
0.5939065639225805
0.6000610360875902
0.6185244525825918
0.6000610360875902
0.5323618422725662
0.3723455659825625
-0.11385773505251384
0.18155692886753785
0.28618295567253704
0.3846545103125543
0.46466264845757
0.5262073701075842
0.5077439536125827
0.6000610360875902
0.4708171206225797
0.45850817629256013
0.4831260649525715
0.5692886752625692
0.5631342030975872
0.538516314437576
0.5815976195925888
0.6308333969125834
0.47697159278756174
0.49543500928256323
0.5138984257775646
0.4831260649525715
0.4708171206225797
0.42158134330255725
0.40927239897256545
0.49543500928256323
0.28618295567253704
0.6246789247476013
0.5508252587675677
0.5323618422725662
0.5569797309325776
0.6431423412426028
0.35388214948756097
0.45850817629256013
0.2984919000025288
0.3108008443325483
0.31695531649755804
0.3108008443325483
0.29233742783754685
0.2738740113425453
0.30464637216753854
0.3846545103125543
0.2431016505175243
0.3354187329925596
0.360036621652543
0.2984919000025288
0.3354187329925596
0.427735815467567
0.390808982477564
0.4708171206225797
0.36619109381755277
0.4708171206225797
0.5446707866025856
0.5692886752625692
0.6000610360875902
0.6123699804175821
0.5877520917575707
0.5939065639225805
0.3846545103125543
0.396963454642546
0.35388214948756097
0.3292642608275498
0.2184837618575408
0.21232928969253104
0.4154268711375475
0.5015894814475731
0.30464637216753854
0.31695531649755804
0.3846545103125543
0.46466264845757
0.5015894814475731
0.5262073701075842
0.5939065639225805
0.6677602299025863
0.5323618422725662
0.5692886752625692
0.6246789247476013
0.5815976195925888
0.5508252587675677
0.5939065639225805
0.6554512855725947
0.7293049515526008
0.5877520917575707
0.5877520917575707
0.5877520917575707
0.5692886752625692
0.5631342030975872
0.5015894814475731
0.4708171206225797
0.5323618422725662
0.4400447597975588
0.6677602299025863
0.7539228402126119
0.2554105948475438
0.360036621652543
1.289361918567683
0.8770122835126126
0.8216220340276081
0.6739147020675963
0.8154675618626261
0.8400854505226096
0.9077846443376336
0.9754838381526297
1.0062561989776508
1.289361918567683
1.7940286360977609
1.0678009206276373
1.5478497494977315
1.221662724752659
0.9693293659876481
0.8031586175326066
0.6492968134075848
0.5508252587675677
0.2061748175275213
0.35388214948756097
0.6492968134075848
0.7108415350575992
0.8523943948526291
0.8708578113476306
0.8277765061926179
0.895475700007614
0.8216220340276081
0.427735815467567
0.8031586175326066
0.8339309783576276
0.8585488670176111
0.901630172172624
0.9262480608326351
0.9939472546476313
1.0062561989776508
0.9877927824826491
0.9508659494926462
0.7785407288726233
0.6923781185625978
0.6616057577376044
0.7600773123775938
2.04020752269779
1.3693700567126987
0.7416138958825924
1.2462806134126705
1.2339716690826785
0.6062155082525723
0.433890287632549
0.44619923196256844
0.6616057577376044
0.8093130896976164
0.7662317845426038
0.7846952010376053
0.7293049515526008
0.6000610360875902
0.5200528979425745
0.4831260649525715
0.4523537041275505
0.40927239897256545
0.427735815467567
0.5200528979425745
0.5262073701075842
0.36619109381755277
0.2431016505175243
0.23079270618753256
0.3354187329925596
0.2061748175275213
0.14463009587750708
0.2246382340225228
0.2246382340225228
0.2738740113425453
0.37850003814754446
0.5508252587675677
-0.02769512474251612
0.6923781185625978
0.6554512855725947
0.3723455659825625
0.23694717835254234
0.1938658731975296
0.2061748175275213
0.1261666793825056
0.15693904020752658
0.04615854123751762
-0.08308537422752059
-0.08923984639250258
-0.08308537422752059
-0.14463009587750708
-0.36619109381755277
-0.29233742783754685
-0.21232928969253104
-0.2000203453625393
-0.21232928969253104
-0.15693904020752658
-0.10770326288750408
-0.08923984639250258
-0.04615854123751762
-0.033849596907498114
0.07693090206251085
0.058467485567509365
-0.06462195773251911
-0.1200122072175236
-0.05231301340249961
0.1384756237125251
0.04615854123751762
-0.058467485567509365
-0.058467485567509365
-0.1200122072175236
-0.15693904020752658
-0.1015487907225221
-0.06462195773251911
-0.04615854123751762
-0.033849596907498114
0.01538618041249662
0.04615854123751762
-0.009231708247514623
-0.033849596907498114
0.08308537422752059
0.08923984639250258
0.003077236082504875
0.009231708247514623
-0.003077236082504875
0.04000406907250786
-0.02154065257750637
-0.1200122072175236
-0.15693904020752658
-0.17540245670252808
-0.16309351237253633
-0.13232115154751534
-0.13232115154751534
0.44619923196256844
-0.009231708247514623
-0.2061748175275213
0.1692479845375183
-1.8248009969227539
-0.7293049515526008
-0.28618295567253704
-0.2000203453625393
-0.5015894814475731
-0.538516314437576
0.9816383103176396
0.3354187329925596
-0.16309351237253633
-0.16309351237253633
-0.09539431855751236
-0.13232115154751534
-0.37850003814754446
-0.2984919000025288
-0.2738740113425453
-0.1692479845375183
-0.15078456804251686
-0.18771140103251985
-0.17540245670252808
-0.1692479845375183
-0.1261666793825056
-0.16309351237253633
-0.18771140103251985
-0.18155692886753785
-0.15693904020752658
-0.16309351237253633
-0.1384756237125251
-0.1261666793825056
-0.14463009587750708
-0.10770326288750408
-0.1200122072175236
-0.11385773505251384
-0.11385773505251384
-0.1938658731975296
-0.16309351237253633
-0.10770326288750408
-0.08308537422752059
-0.1261666793825056
-0.15693904020752658
-0.13232115154751534
-0.1261666793825056
-0.1200122072175236
-0.1200122072175236
-0.1015487907225221
0.5262073701075842
1.2955163907326928
0.5815976195925888
0.23694717835254234
0.14463009587750708
0.08308537422752059
0.04615854123751762
0.02769512474251612
0.35388214948756097
0.3354187329925596
-0.5077439536125827
-0.1938658731975296
-0.08308537422752059
-0.033849596907498114
-0.009231708247514623
-0.003077236082504875
-0.14463009587750708
-0.6369878690775933
-0.3292642608275498
-0.16309351237253633
-0.10770326288750408
-0.07693090206251085
-0.07693090206251085
-0.07693090206251085
0.06462195773251911
-0.10770326288750408
-0.13232115154751534
-0.1261666793825056
-0.1200122072175236
-0.08923984639250258
-0.1384756237125251
-0.1384756237125251
-0.04615854123751762
-0.15078456804251686
-0.13232115154751534
-0.1200122072175236
-0.11385773505251384
-0.11385773505251384
-0.1015487907225221
-0.0707764298975011
0.05231301340249961
-0.10770326288750408
-0.1200122072175236
-0.1015487907225221
-0.02769512474251612
0.02769512474251612
0.01538618041249662
-0.02154065257750637
0.07693090206251085
-0.04615854123751762
-0.04615854123751762
-0.04615854123751762
-0.04615854123751762
-0.058467485567509365
-0.07693090206251085
-0.08923984639250258
-0.02154065257750637
-0.1938658731975296
-0.18155692886753785
-0.1384756237125251
-0.14463009587750708
-0.13232115154751534
-0.1200122072175236
-0.1200122072175236
-0.033849596907498114
-0.1938658731975296
-0.15693904020752658
-0.14463009587750708
-0.13232115154751534
-0.1015487907225221
-0.11385773505251384
-0.1261666793825056
-0.5631342030975872
-0.2800284835075273
0.4154268711375475
0.2000203453625393
0.36619109381755277
0.9693293659876481
-0.30464637216753854
-0.1200122072175236
-0.3108008443325483
-0.6308333969125834
-0.23079270618753256
-0.08308537422752059
-0.058467485567509365
-0.08308537422752059
-0.05231301340249961
-0.04000406907250786
0.003077236082504875
-0.1200122072175236
-0.11385773505251384
-0.0707764298975011
-0.05231301340249961
-0.058467485567509365
-0.07693090206251085
-0.04000406907250786
0.07693090206251085
-0.08923984639250258
-0.04615854123751762
-0.009231708247514623
-0.01538618041249662
-0.04615854123751762
-0.08308537422752059
-0.1200122072175236
-0.003077236082504875
-0.21232928969253104
-0.16309351237253633
-0.1200122072175236
-0.07693090206251085
-0.04000406907250786
-0.02769512474251612
-0.01538618041249662
0.02769512474251612
-0.08923984639250258
-0.04615854123751762
0.003077236082504875
0.003077236082504875
-0.058467485567509365
-0.0707764298975011
0.01538618041249662
0.18155692886753785
-0.033849596907498114
-0.033849596907498114
-0.02769512474251612
-0.02769512474251612
-0.08308537422752059
-0.058467485567509365
-0.02769512474251612
-0.04615854123751762
-0.1384756237125251
-0.0707764298975011
-0.05231301340249961
-0.02769512474251612
-0.003077236082504875
-0.10770326288750408
-0.29233742783754685
-0.08923984639250258
-0.15078456804251686
-0.09539431855751236
-0.18155692886753785
-0.6308333969125834
0.26771953917753555
0.2800284835075273
0.0707764298975011
0.08923984639250258
-0.06462195773251911
-0.003077236082504875
-0.009231708247514623
-0.009231708247514623
0.1200122072175236
0.45850817629256013
0.24925612268253405
0.1015487907225221
0.003077236082504875
0.04615854123751762
0.06462195773251911
0.08308537422752059
0.058467485567509365
-0.01538618041249662
-0.009231708247514623
0.033849596907498114
-0.058467485567509365
-0.02154065257750637
-0.01538618041249662
-0.1015487907225221
-0.3292642608275498
-0.15693904020752658
0.009231708247514623
0.06462195773251911
-0.1015487907225221
-0.003077236082504875
0.003077236082504875
0.01538618041249662
-0.003077236082504875
-0.009231708247514623
0.02154065257750637
0.04615854123751762
-0.11385773505251384
-0.08308537422752059
0.13232115154751534
0.3354187329925596
0.1261666793825056
0.07693090206251085
0.06462195773251911
0.11385773505251384
-0.02154065257750637
-0.04000406907250786
-0.033849596907498114
-0.003077236082504875
-0.009231708247514623
-0.04000406907250786
0.02769512474251612
0.02769512474251612
-0.0707764298975011
-0.1200122072175236
-0.2061748175275213
-0.09539431855751236
-0.0707764298975011
0.2800284835075273
0.9754838381526297
-0.7293049515526008
-0.5262073701075842
-0.17540245670252808
-0.08308537422752059
-0.05231301340249961
-0.05231301340249961
-0.04615854123751762
0.01538618041249662
0.02154065257750637
-0.06462195773251911
-0.15693904020752658
-0.06462195773251911
-0.01538618041249662
-0.04615854123751762
-0.04615854123751762
0.02769512474251612
0.033849596907498114
-0.05231301340249961
-0.058467485567509365
-0.033849596907498114
-0.04000406907250786
-0.02154065257750637
-0.009231708247514623
0.04000406907250786
0.13232115154751534
0.31695531649755804
0.1692479845375183
0.033849596907498114
0.009231708247514623
-0.02154065257750637
-0.04615854123751762
-0.033849596907498114
-0.0707764298975011
-0.06462195773251911
-0.02154065257750637
0.009231708247514623
0.01538618041249662
-0.01538618041249662
-0.058467485567509365
-0.15078456804251686
-0.4400447597975588
-0.28618295567253704
-0.1200122072175236
-0.09539431855751236
-0.07693090206251085
-0.1200122072175236
-0.1261666793825056
-0.08308537422752059
-0.10770326288750408
-0.13232115154751534
-0.06462195773251911
-0.04615854123751762
-0.058467485567509365
-0.07693090206251085
-0.02154065257750637
0.07693090206251085
-0.033849596907498114
-0.16309351237253633
-0.11385773505251384
-0.10770326288750408
-0.11385773505251384
-0.21232928969253104
-0.7231504793875909
0.23079270618753256
0.21232928969253104
-0.033849596907498114
-0.01538618041249662
-0.01538618041249662
-0.04615854123751762
-0.01538618041249662
0.07693090206251085
0.003077236082504875
-0.07693090206251085
-0.10770326288750408
-0.11385773505251384
-0.13232115154751534
-0.1200122072175236
-0.07693090206251085
-0.06462195773251911
0.003077236082504875
-0.1015487907225221
-0.1015487907225221
-0.07693090206251085
-0.06462195773251911
-0.058467485567509365
-0.0707764298975011
-0.1015487907225221
-0.058467485567509365
-0.07693090206251085
-0.06462195773251911
-0.04615854123751762
-0.02154065257750637
-0.02154065257750637
-0.02769512474251612
-0.02769512474251612
0.45850817629256013
-0.01538618041249662
-0.44619923196256844
-0.18771140103251985
-0.2184837618575408
-0.390808982477564
-0.2061748175275213
-0.08923984639250258
0.10770326288750408
0.058467485567509365
0.1200122072175236
0.26771953917753555
0.3108008443325483
0.30464637216753854
0.2738740113425453
0.28618295567253704
0.390808982477564
0.28618295567253704
0.37850003814754446
0.49543500928256323
0.5015894814475731
0.42158134330255725
0.2800284835075273
0.1015487907225221
0.13232115154751534
0.433890287632549
1.11088222578265
-0.08923984639250258
0.04615854123751762
0.08923984639250258
0.1200122072175236
0.09539431855751236
0.26156506701252585
-0.433890287632549
-0.7169960072226089
0.5508252587675677
0.15693904020752658
0.15078456804251686
0.2431016505175243
0.29233742783754685
0.18771140103251985
-0.36619109381755277
-0.07693090206251085
0.07693090206251085
0.07693090206251085
0.17540245670252808
0.31695531649755804
0.3354187329925596
0.23694717835254234
0.06462195773251911
-0.02154065257750637
0.003077236082504875
0.21232928969253104
0.3354187329925596
0.34772767732255133
0.390808982477564
0.49543500928256323
0.42158134330255725
0.3415732051575415
0.2000203453625393
0.15693904020752658
0.2000203453625393
0.1938658731975296
0.26771953917753555
0.36619109381755277
0.09539431855751236
0.21232928969253104
0.3292642608275498
0.4154268711375475
0.5077439536125827
0.5200528979425745
0.49543500928256323
0.6308333969125834
0.5323618422725662
0.6123699804175821
0.7539228402126119
0.7908496732026148
0.7416138958825924
0.6985325907276074
0.7416138958825924
1.000101726812641
0.575443147427579
0.4708171206225797
0.5200528979425745
0.5508252587675677
0.5323618422725662
0.5877520917575707
0.6185244525825918
0.7169960072226089
0.5077439536125827
0.44619923196256844
0.5015894814475731
0.5262073701075842
0.4892805371175811
0.427735815467567
0.07693090206251085
-0.08923984639250258
0.8831667556776225
0.7662317845426038
0.6185244525825918
0.6185244525825918
0.6677602299025863
0.6677602299025863
0.6062155082525723
0.7046870628925893
0.5262073701075842
0.5077439536125827
0.4400447597975588
0.35388214948756097
0.427735815467567
0.5877520917575707
0.4154268711375475
0.4831260649525715
0.30464637216753854
0.3354187329925596
0.4154268711375475
0.5015894814475731
0.5508252587675677
0.575443147427579
0.6677602299025863
0.9200935886676254
0.8339309783576276
0.8708578113476306
0.9139391165026156
0.8770122835126126
0.7908496732026148
0.7723862567076134
0.7108415350575992
0.6923781185625978
0.46466264845757
0.4708171206225797
0.47697159278756174
0.49543500928256323
0.5323618422725662
0.5138984257775646
0.5631342030975872
0.6739147020675963
0.4831260649525715
0.46466264845757
0.4523537041275505
0.23079270618753256
0.40311792680755576
0.5692886752625692
0.6431423412426028
0.7231504793875909
0.5262073701075842
0.5323618422725662
0.9939472546476313
1.7324839144477464
0.6185244525825918
0.7231504793875909
0.7231504793875909
0.45850817629256013
0.21232928969253104
0.6677602299025863
0.7785407288726233
0.7908496732026148
0.8400854505226096
0.8708578113476306
0.8523943948526291
0.9385570051626267
0.7293049515526008
0.8831667556776225
0.9877927824826491
0.9570204216576284
0.8462399226876194
0.7908496732026148
0.8093130896976164
0.895475700007614
0.8523943948526291
0.895475700007614
0.8400854505226096
0.8708578113476306
0.9447114773276367
0.9077846443376336
0.8831667556776225
0.8462399226876194
0.6677602299025863
0.7293049515526008
0.8216220340276081
0.8585488670176111
0.8708578113476306
0.8400854505226096
0.9816383103176396
1.1355001144426613
0.9693293659876481
0.9139391165026156
0.901630172172624
0.9447114773276367
0.9508659494926462
0.9200935886676254
0.9508659494926462
1.0308740876376343
0.8031586175326066
0.8031586175326066
0.8462399226876194
0.7970041453676248
0.7846952010376053
0.8031586175326066
0.8277765061926179
0.9877927824826491
0.8277765061926179
0.8585488670176111
0.9200935886676254
0.9447114773276367
0.9324025329976448
0.895475700007614
0.9508659494926462
0.9754838381526297
0.8031586175326066
0.7539228402126119
0.28618295567253704
1.221662724752659
1.2647440299076718
0.9877927824826491
0.8031586175326066
0.9385570051626267
0.8585488670176111
0.9508659494926462
0.9200935886676254
0.8708578113476306
0.8400854505226096
0.7970041453676248
0.8523943948526291
0.895475700007614
0.8093130896976164
0.7970041453676248
0.7723862567076134
0.8339309783576276
0.9693293659876481
0.9693293659876481
0.9816383103176396
1.0616464484626553
0.9877927824826491
1.0801098649576568
1.0924188092876486
1.0616464484626553
1.141654586607671
1.2585895577426898
1.2832074464026733
1.1724269474326645
1.0247196154726523
1.0924188092876486
1.1170366979476598
1.11088222578265
1.0431830319676536
1.000101726812641
0.9939472546476313
0.9631748938226381
0.8216220340276081
0.889321227842632
0.9200935886676254
0.9816383103176396
0.9816383103176396
0.9508659494926462
1.0062561989776508
1.0431830319676536
0.8523943948526291
0.8400854505226096
0.9570204216576284
1.1170366979476598
0.895475700007614
0.7108415350575992
0.6862236463975879
0.6862236463975879
0.5569797309325776
0.5631342030975872
0.5323618422725662
0.5569797309325776
0.8831667556776225
1.5293863330027024
0.396963454642546
0.02154065257750637
0.2061748175275213
0.5692886752625692
0.3846545103125543
0.47697159278756174
0.5631342030975872
0.6123699804175821
0.6800691742326058
0.6862236463975879
0.6000610360875902
0.6431423412426028
0.6062155082525723
0.6185244525825918
0.6369878690775933
0.5939065639225805
0.5877520917575707
0.5446707866025856
0.5138984257775646
0.5877520917575707
0.5508252587675677
0.5138984257775646
0.40927239897256545
0.35388214948756097
0.40311792680755576
0.3723455659825625
0.2554105948475438
0.23079270618753256
0.16309351237253633
0.01538618041249662
-0.11385773505251384
-0.15078456804251686
-0.11385773505251384
-0.1200122072175236
-0.16309351237253633
-0.2000203453625393
-0.23079270618753256
-0.2246382340225228
-0.21232928969253104
-0.1938658731975296
-0.09539431855751236
-0.1692479845375183
-0.2738740113425453
-0.23694717835254234
-0.2246382340225228
-0.2000203453625393
-0.1938658731975296
-0.21232928969253104
-0.15078456804251686
-0.1384756237125251
-0.2431016505175243
-0.26156506701252585
-0.2554105948475438
-0.2800284835075273
-0.30464637216753854
-0.2984919000025288
-0.2184837618575408
-0.2800284835075273
-0.3354187329925596
-0.3354187329925596
-0.34772767732255133
-0.45850817629256013
-0.9754838381526297
-0.13232115154751534
-0.4523537041275505
-0.5508252587675677
-0.40311792680755576
-0.40311792680755576
-0.390808982477564
-0.3415732051575415
-0.3354187329925596
-0.32310978866254003
-0.29233742783754685
-0.3292642608275498
-0.31695531649755804
-0.30464637216753854
-0.3108008443325483
-0.32310978866254003
-0.24925612268253405
-0.08923984639250258
0.46466264845757
0.6431423412426028
-0.9324025329976448
-0.5077439536125827
-0.390808982477564
-0.3354187329925596
-0.3292642608275498
-0.32310978866254003
-0.3846545103125543
-0.895475700007614
-0.6000610360875902
-0.3415732051575415
-0.2800284835075273
-0.2246382340225228
-0.1938658731975296
-0.17540245670252808
-0.05231301340249961
-0.15078456804251686
-0.2431016505175243
-0.23079270618753256
-0.23079270618753256
-0.2554105948475438
-0.2431016505175243
-0.2554105948475438
-0.15078456804251686
-0.26771953917753555
-0.32310978866254003
-0.29233742783754685
-0.26771953917753555
-0.31695531649755804
-0.30464637216753854
-0.28618295567253704
-0.15693904020752658
-0.26771953917753555
-0.26771953917753555
-0.26156506701252585
-0.30464637216753854
-0.32310978866254003
-0.3415732051575415
-0.3292642608275498
0.1015487907225221
0.6739147020675963
-0.5138984257775646
-0.2738740113425453
-0.2061748175275213
-0.2000203453625393
-0.18771140103251985
-0.23079270618753256
-0.34772767732255133
-0.889321227842632
-0.6062155082525723
-0.433890287632549
-0.3723455659825625
-0.35388214948756097
-0.35388214948756097
-0.3292642608275498
-0.26771953917753555
-0.396963454642546
-0.390808982477564
-0.4154268711375475
-0.40311792680755576
-0.3415732051575415
-0.3354187329925596
-0.35388214948756097
-0.2061748175275213
-0.3415732051575415
-0.34772767732255133
-0.32310978866254003
-0.3108008443325483
-0.32310978866254003
-0.31695531649755804
-0.31695531649755804
-0.2184837618575408
-0.36619109381755277
-0.35388214948756097
-0.3415732051575415
-0.35388214948756097
-0.34772767732255133
-0.3354187329925596
-0.3354187329925596
-0.18155692886753785
-0.36619109381755277
-0.36619109381755277
-0.3354187329925596
-0.32310978866254003
-0.3292642608275498
-0.31695531649755804
-0.2738740113425453
-0.11385773505251384
-0.3108008443325483
-0.396963454642546
-0.40311792680755576
-0.3723455659825625
-0.32310978866254003
-0.31695531649755804
-0.31695531649755804
-0.2554105948475438
-0.427735815467567
-0.37850003814754446
-0.3354187329925596
-0.30464637216753854
-0.26771953917753555
-0.2554105948475438
-0.390808982477564
-0.9077846443376336
-0.11385773505251384
-0.02154065257750637
-0.21232928969253104
-0.26771953917753555
-0.32310978866254003
-0.35388214948756097
-0.34772767732255133
-0.2554105948475438
-0.390808982477564
-0.3723455659825625
-0.35388214948756097
-0.3292642608275498
-0.31695531649755804
-0.29233742783754685
-0.2984919000025288
-0.2431016505175243
-0.390808982477564
-0.36619109381755277
-0.34772767732255133
-0.3354187329925596
-0.360036621652543
-0.360036621652543
-0.35388214948756097
-0.28618295567253704
-0.4523537041275505
-0.42158134330255725
-0.37850003814754446
-0.3415732051575415
-0.2800284835075273
-0.02769512474251612
-0.2061748175275213
-0.28618295567253704
-0.42158134330255725
-0.37850003814754446
-0.35388214948756097
-0.35388214948756097
-0.36619109381755277
-0.36619109381755277
-0.32310978866254003
-0.2184837618575408
-0.45850817629256013
-0.4708171206225797
-0.42158134330255725
-0.4523537041275505
-0.6677602299025863
-0.5446707866025856
-0.40927239897256545
-0.3354187329925596
-0.45850817629256013
-0.396963454642546
-0.37850003814754446
-0.35388214948756097
-0.34772767732255133
-0.34772767732255133
-0.29233742783754685
-0.2061748175275213
-0.3354187329925596
0.033849596907498114
0.7785407288726233
-0.44619923196256844
-0.3108008443325483
-0.26771953917753555
-0.2738740113425453
-0.5877520917575707
-0.901630172172624
-0.5200528979425745
-0.42158134330255725
-0.32310978866254003
-0.32310978866254003
-0.35388214948756097
-0.2984919000025288
-0.24925612268253405
-0.433890287632549
-0.3354187329925596
-0.3108008443325483
-0.35388214948756097
-0.3723455659825625
-0.32310978866254003
-0.2431016505175243
-0.1200122072175236
-0.23079270618753256
-0.18771140103251985
-0.2061748175275213
-0.2184837618575408
-0.2554105948475438
-0.2738740113425453
-0.2554105948475438
-0.2061748175275213
-0.26771953917753555
-0.033849596907498114
-0.1692479845375183
-0.23079270618753256
-0.2431016505175243
-0.2554105948475438
-0.18155692886753785
-0.1938658731975296
-0.31695531649755804
-0.30464637216753854
-0.3292642608275498
-0.31695531649755804
-0.26771953917753555
-0.24925612268253405
-0.26156506701252585
-0.28618295567253704
-0.6000610360875902
-0.5446707866025856
-0.4400447597975588
-0.37850003814754446
-0.35388214948756097
-0.3415732051575415
-0.28618295567253704
-0.23694717835254234
-0.29233742783754685
-0.2431016505175243
-0.21232928969253104
-0.21232928969253104
-0.2246382340225228
-0.2800284835075273
-0.23079270618753256
-0.14463009587750708
-0.44619923196256844
-0.9447114773276367
-0.033849596907498114
-0.05231301340249961
-0.30464637216753854
-0.396963454642546
-0.390808982477564
-0.390808982477564
-0.45850817629256013
-0.427735815467567
-0.46466264845757
-0.427735815467567
-0.40311792680755576
-0.2984919000025288
0.14463009587750708
-0.02769512474251612
-0.35388214948756097
-0.3354187329925596
-0.30464637216753854
-0.29233742783754685
-0.2984919000025288
-0.3292642608275498
-0.3108008443325483
-0.2984919000025288
-0.4154268711375475
-0.360036621652543
-0.3354187329925596
-0.3415732051575415
-0.4400447597975588
-0.9077846443376336
-0.6246789247476013
-0.433890287632549
-0.44619923196256844
-0.396963454642546
-0.3846545103125543
-0.35388214948756097
-0.34772767732255133
-0.3108008443325483
-0.2800284835075273
-0.3108008443325483
-0.3846545103125543
-0.3292642608275498
-0.3108008443325483
-0.29233742783754685
-0.3108008443325483
-0.31695531649755804
-0.26156506701252585
-0.30464637216753854
-0.427735815467567
-0.36619109381755277
-0.3846545103125543
-0.427735815467567
-0.4523537041275505
-0.42158134330255725
-0.35388214948756097
-0.40311792680755576
-0.427735815467567
-0.37850003814754446
-0.3723455659825625
-0.06462195773251911
0.5323618422725662
-0.4523537041275505
-0.3354187329925596
-0.7908496732026148
-0.7416138958825924
-0.46466264845757
-0.396963454642546
-0.35388214948756097
-0.3354187329925596
-0.35388214948756097
-0.2984919000025288
-0.31695531649755804
-0.390808982477564
-0.29233742783754685
-0.26771953917753555
-0.28618295567253704
-0.2738740113425453
-0.2738740113425453
-0.2061748175275213
-0.24925612268253405
-0.3108008443325483
-0.26771953917753555
-0.2184837618575408
-0.24925612268253405
-0.2984919000025288
-0.2738740113425453
-0.21232928969253104
-0.2554105948475438
-0.3415732051575415
-0.2554105948475438
-0.23079270618753256
-0.23694717835254234
-0.2246382340225228
-0.23694717835254234
0.058467485567509365
0.4154268711375475
-0.8154675618626261
0.2184837618575408
-0.033849596907498114
-0.15693904020752658
-0.15693904020752658
-0.17540245670252808
-0.2184837618575408
-0.6554512855725947
-0.1200122072175236
-0.09539431855751236
-0.23694717835254234
-0.2554105948475438
-0.2738740113425453
-0.31695531649755804
-0.31695531649755804
-0.360036621652543
-0.35388214948756097
-0.31695531649755804
-0.32310978866254003
-0.36619109381755277
-0.40311792680755576
-0.4154268711375475
-0.46466264845757
-0.9570204216576284
-0.7600773123775938
-0.5323618422725662
-0.47697159278756174
-0.46466264845757
-0.433890287632549
-0.40927239897256545
0.11385773505251384
-0.28618295567253704
-0.7108415350575992
-0.44619923196256844
-0.390808982477564
-0.3846545103125543
-0.40927239897256545
-0.3846545103125543
-0.2554105948475438
-0.3354187329925596
-0.34772767732255133
-0.2800284835075273
-0.2431016505175243
-0.21232928969253104
-0.16309351237253633
-0.1015487907225221
0.009231708247514623
-0.04000406907250786
-0.01538618041249662
0.003077236082504875
0.003077236082504875
0.033849596907498114
-0.003077236082504875
-0.04615854123751762
0.0707764298975011
0.1015487907225221
0.18155692886753785
0.2431016505175243
0.23079270618753256
0.28618295567253704
0.3354187329925596
0.1261666793825056
-0.427735815467567
0.26156506701252585
0.360036621652543
0.08308537422752059
-0.033849596907498114
-0.06462195773251911
-0.1384756237125251
-0.1261666793825056
0.02154065257750637
-0.13232115154751534
-0.18155692886753785
-0.18771140103251985
-0.2061748175275213
-0.1938658731975296
-0.2061748175275213
-0.18155692886753785
-0.09539431855751236
-0.3108008443325483
-0.3292642608275498
-0.30464637216753854
-0.3415732051575415
-0.3108008443325483
-0.3354187329925596
-0.0707764298975011
0.24925612268253405
-1.1970448360926755
-0.7169960072226089
-0.538516314437576
-0.5015894814475731
-0.4892805371175811
-0.5015894814475731
-0.5200528979425745
-0.44619923196256844
-0.6431423412426028
-0.5939065639225805
-0.575443147427579
-0.7416138958825924
-0.7169960072226089
-0.6616057577376044
-0.5939065639225805
-0.4400447597975588
-0.5446707866025856
-0.5692886752625692
-0.575443147427579
-0.5692886752625692
-0.5138984257775646
-0.49543500928256323
-0.5446707866025856
-0.427735815467567
-0.6062155082525723
-0.49543500928256323
-0.2738740113425453
-0.29233742783754685
-0.3354187329925596
-0.4154268711375475
-0.45850817629256013
-0.3846545103125543
-0.5015894814475731
-0.5262073701075842
-0.5508252587675677
-0.5631342030975872
-0.5015894814475731
-0.44619923196256844
-0.4400447597975588
-0.32310978866254003
-0.3846545103125543
-0.37850003814754446
-0.3723455659825625
-0.396963454642546
-0.40311792680755576
-0.390808982477564
-0.36619109381755277
-0.30464637216753854
-0.5200528979425745
-0.46466264845757
-0.390808982477564
-0.396963454642546
-0.45850817629256013
-0.45850817629256013
-0.433890287632549
-0.3354187329925596
-0.433890287632549
-0.427735815467567
-0.390808982477564
-0.3354187329925596
-0.3292642608275498
-0.47697159278756174
-0.9508659494926462
0.04000406907250786
-0.08308537422752059
-0.35388214948756097
-0.390808982477564
-0.3846545103125543
-0.360036621652543
-0.34772767732255133
-0.37850003814754446
-0.28618295567253704
-0.3723455659825625
-0.32310978866254003
-0.32310978866254003
-0.30464637216753854
-0.2984919000025288
-0.29233742783754685
-0.29233742783754685
-0.21232928969253104
-0.433890287632549
-0.40311792680755576
-0.390808982477564
-0.3723455659825625
-0.3723455659825625
-0.3354187329925596
-0.30464637216753854
-0.24925612268253405
-0.37850003814754446
-0.3292642608275498
-0.29233742783754685
-0.29233742783754685
-0.29233742783754685
-0.26156506701252585
-0.2800284835075273
-0.2184837618575408
-0.3846545103125543
-0.31695531649755804
-0.32310978866254003
-0.2984919000025288
-0.28618295567253704
-0.3723455659825625
-0.3723455659825625
-0.26771953917753555
-0.37850003814754446
-0.34772767732255133
-0.3415732051575415
-0.3292642608275498
-0.34772767732255133
-0.3415732051575415
-0.29233742783754685
-0.26156506701252585
-0.3846545103125543
-0.3292642608275498
-0.3415732051575415
-0.2738740113425453
-0.15693904020752658
-0.1938658731975296
-0.2246382340225228
-0.18771140103251985
-0.033849596907498114
0.538516314437576
-0.40927239897256545
-0.28618295567253704
-0.2984919000025288
-0.30464637216753854
-0.2800284835075273
-0.6246789247476013
-0.8647033391826209
-0.5200528979425745
-0.3723455659825625
-0.28618295567253704
-0.29233742783754685
-0.2984919000025288
-0.2554105948475438
-0.16309351237253633
-0.3415732051575415
-0.29233742783754685
-0.2800284835075273
-0.2984919000025288
-0.32310978866254003
-0.32310978866254003
-0.26771953917753555
-0.2061748175275213
-0.37850003814754446
-0.32310978866254003
-0.32310978866254003
-0.30464637216753854
-0.30464637216753854
-0.28618295567253704
-0.23694717835254234
-0.18155692886753785
-0.3292642608275498
-0.30464637216753854
-0.30464637216753854
-0.29233742783754685
-0.30464637216753854
-0.30464637216753854
-0.26156506701252585
-0.23079270618753256
-0.390808982477564
-0.5446707866025856
-0.4831260649525715
-0.3846545103125543
-0.36619109381755277
-0.3354187329925596
-0.2984919000025288
-0.26771953917753555
-0.3723455659825625
-0.37850003814754446
-0.3415732051575415
-0.3292642608275498
-0.3354187329925596
-0.35388214948756097
-0.3354187329925596
-0.26771953917753555
-0.3723455659825625
-0.4400447597975588
-0.40311792680755576
-0.3723455659825625
-0.3723455659825625
-0.3723455659825625
-0.3354187329925596
-0.4523537041275505
-1.073955392792647
-0.10770326288750408
-0.04615854123751762
-0.28618295567253704
-0.3292642608275498
-0.3415732051575415
-0.23079270618753256
0.033849596907498114
-0.2431016505175243
-0.3292642608275498
-0.34772767732255133
-0.2984919000025288
-0.3354187329925596
-0.3415732051575415
-0.26156506701252585
-0.2800284835075273
-0.40927239897256545
-0.34772767732255133
-0.3354187329925596
-0.30464637216753854
-0.31695531649755804
-0.2984919000025288
-0.058467485567509365
-0.11385773505251384
-0.34772767732255133
-0.30464637216753854
-0.3108008443325483
-0.31695531649755804
-0.32310978866254003
-0.3292642608275498
-0.2800284835075273
-0.31695531649755804
-0.3846545103125543
-0.3415732051575415
-0.32310978866254003
-0.28618295567253704
-0.360036621652543
-0.6862236463975879
-0.5015894814475731
-0.37850003814754446
-0.396963454642546
-0.36619109381755277
-0.3415732051575415
-0.31695531649755804
-0.31695531649755804
-0.3108008443325483
-0.02154065257750637
0.7846952010376053
-0.5200528979425745
-0.42158134330255725
-0.2984919000025288
-0.24925612268253405
-0.21232928969253104
-0.24925612268253405
-0.31695531649755804
-0.8031586175326066
-0.6677602299025863
-0.4154268711375475
-0.033849596907498114
0.5262073701075842
-0.427735815467567
-0.2431016505175243
-0.2554105948475438
-0.8093130896976164
-0.6554512855725947
-0.3846545103125543
-0.32310978866254003
-0.30464637216753854
-0.2984919000025288
-0.28618295567253704
-0.24925612268253405
-0.28618295567253704
-0.36619109381755277
-0.3354187329925596
-0.3292642608275498
-0.3354187329925596
-0.3292642608275498
-0.31695531649755804
-0.2738740113425453
-0.3415732051575415
-0.34772767732255133
-0.2554105948475438
-0.23079270618753256
-0.34772767732255133
-0.30464637216753854
-0.2800284835075273
-0.23079270618753256
-0.2738740113425453
-0.2800284835075273
-0.29233742783754685
-0.2800284835075273
-0.28618295567253704
-0.26771953917753555
-0.32310978866254003
-0.2554105948475438
-0.2431016505175243
-0.2061748175275213
0.1384756237125251
0.058467485567509365
-0.0707764298975011
-0.10770326288750408
-0.09539431855751236
0.8831667556776225
0.06462195773251911
-0.8523943948526291
-0.2431016505175243
-0.07693090206251085
0.009231708247514623
0.04615854123751762
0.06462195773251911
0.06462195773251911
-0.08923984639250258
-0.46466264845757
-0.3846545103125543
-0.16309351237253633
-0.09539431855751236
-0.058467485567509365
-0.0707764298975011
-0.02154065257750637
-0.08923984639250258
-0.08308537422752059
-0.1692479845375183
-0.6492968134075848
0.2554105948475438
0.24925612268253405
0.02769512474251612
0.08308537422752059
-0.02154065257750637
-0.04615854123751762
-0.003077236082504875
0.02769512474251612
0.04000406907250786
0.058467485567509365
0.07693090206251085
0.1200122072175236
-0.058467485567509365
-0.1384756237125251
-0.1200122072175236
-0.1692479845375183
-0.1938658731975296
-0.17540245670252808
-0.0707764298975011
0.09539431855751236
0.003077236082504875
-0.02769512474251612
-0.02769512474251612
-0.06462195773251911
-0.08308537422752059
-0.1015487907225221
-0.1200122072175236
-0.033849596907498114
-0.1261666793825056
-0.1200122072175236
-0.08308537422752059
-0.10770326288750408
-0.13232115154751534
-0.14463009587750708
-0.1384756237125251
-0.09539431855751236
-0.18155692886753785
-0.1938658731975296
-0.1692479845375183
-0.1200122072175236
-0.13232115154751534
-0.13232115154751534
-0.11385773505251384
-0.01538618041249662
-0.17540245670252808
-0.2431016505175243
-0.2184837618575408
-0.2184837618575408
-0.14463009587750708
-0.08308537422752059
-0.2000203453625393
-0.02769512474251612
-0.2000203453625393
-0.21232928969253104
-0.15693904020752658
-0.1261666793825056
-0.13232115154751534
0.2184837618575408
0.9262480608326351
-0.44619923196256844
-0.7662317845426038
-0.36619109381755277
-0.16309351237253633
-0.08923984639250258
-0.09539431855751236
-0.1015487907225221
-0.06462195773251911
0.06462195773251911
-0.13232115154751534
-0.10770326288750408
-0.058467485567509365
-0.04000406907250786
-0.033849596907498114
-0.02154065257750637
-0.033849596907498114
0.06462195773251911
-0.07693090206251085
-0.02154065257750637
-0.02769512474251612
-0.15693904020752658
-0.14463009587750708
-0.033849596907498114
0.003077236082504875
0.058467485567509365
-0.1261666793825056
-0.13232115154751534
-0.0707764298975011
-0.0707764298975011
-0.07693090206251085
-0.09539431855751236
-0.08308537422752059
0.01538618041249662
-0.18155692886753785
-0.18155692886753785
0.009231708247514623
-0.1015487907225221
-0.1015487907225221
-0.10770326288750408
-0.08923984639250258
-0.003077236082504875
-0.1200122072175236
-0.1015487907225221
-0.11385773505251384
-0.058467485567509365
-0.05231301340249961
-0.09539431855751236
-0.15078456804251686
-0.08308537422752059
-0.2000203453625393
-0.2061748175275213
-0.2738740113425453
-0.2000203453625393
-0.18771140103251985
-0.1384756237125251
-0.08308537422752059
-0.003077236082504875
-0.1938658731975296
-0.17540245670252808
-0.18155692886753785
-0.2184837618575408
-0.37850003814754446
-0.8647033391826209
0.11385773505251384
0.28618295567253704
-0.1200122072175236
-0.23079270618753256
-0.2184837618575408
-0.1692479845375183
-0.08923984639250258
-0.07693090206251085
-0.09539431855751236
-0.1015487907225221
-0.2554105948475438
-0.2246382340225228
-0.26771953917753555
-0.3108008443325483
-0.2800284835075273
-0.1938658731975296
0.003077236082504875
0.6123699804175821
0.3723455659825625
0.15693904020752658
0.058467485567509365
-0.003077236082504875
-0.01538618041249662
-0.05231301340249961
-0.10770326288750408
-0.08308537422752059
-0.18155692886753785
-0.058467485567509365
-0.02154065257750637
-0.06462195773251911
-0.1261666793825056
-0.2061748175275213
-0.7662317845426038
-0.5508252587675677
-0.5877520917575707
-0.5569797309325776
-0.5569797309325776
-0.538516314437576
-0.5138984257775646
-0.5077439536125827
-0.46466264845757
-0.34772767732255133
-0.46466264845757
-0.4154268711375475
-0.396963454642546
-0.45850817629256013
-0.37850003814754446
-0.23079270618753256
-0.26771953917753555
-0.2800284835075273
-0.396963454642546
-0.4523537041275505
-0.5323618422725662
-0.5138984257775646
-0.47697159278756174
-0.5323618422725662
-0.5138984257775646
-0.1200122072175236
0.26771953917753555
-0.7477683680476023
-0.5446707866025856
-0.4831260649525715
-0.45850817629256013
-0.4400447597975588
-0.44619923196256844
-0.8154675618626261
-0.8770122835126126
-0.4708171206225797
-0.360036621652543
-0.360036621652543
-0.31695531649755804
-0.23694717835254234
-0.08923984639250258
0.10770326288750408
0.1261666793825056
0.2431016505175243
0.18155692886753785
0.08923984639250258
-0.06462195773251911
-0.1200122072175236
-0.07693090206251085
0.003077236082504875
-0.14463009587750708
-0.1261666793825056
-0.17540245670252808
-0.15693904020752658
-0.058467485567509365
-0.009231708247514623
-0.02154065257750637
-0.1384756237125251
-0.2984919000025288
-0.21232928969253104
-0.16309351237253633
-0.13232115154751534
-0.08923984639250258
-0.11385773505251384
-0.1938658731975296
-0.26771953917753555
-0.40311792680755576
-0.40311792680755576
-0.390808982477564
-0.3846545103125543
-0.3723455659825625
-0.390808982477564
-0.3292642608275498
-0.36619109381755277
-0.3354187329925596
-0.2554105948475438
-0.24925612268253405
-0.18771140103251985
-0.1261666793825056
-0.07693090206251085
0.003077236082504875
-0.009231708247514623
-0.1692479845375183
-0.05231301340249961
0.02154065257750637
0.08308537422752059
0.21232928969253104
0.2800284835075273
0.3415732051575415
0.6246789247476013
-0.1200122072175236
0.7354594237176103
0.26156506701252585
-0.033849596907498114
-0.15693904020752658
-0.17540245670252808
-0.17540245670252808
-0.6431423412426028
-0.5077439536125827
-0.2000203453625393
-0.17540245670252808
-0.1938658731975296
-0.2184837618575408
-0.18771140103251985
-0.2554105948475438
-0.889321227842632
-0.7477683680476023
-0.3846545103125543
-0.2738740113425453
-0.26771953917753555
-0.360036621652543
-0.3846545103125543
-0.30464637216753854
-0.2738740113425453
-0.31695531649755804
-0.2000203453625393
-0.18155692886753785
-0.21232928969253104
-0.23079270618753256
-0.1938658731975296
-0.08923984639250258
-0.18771140103251985
-0.2738740113425453
-0.2061748175275213
-0.1938658731975296
-0.2061748175275213
-0.24925612268253405
-0.2431016505175243
-0.1200122072175236
-0.18155692886753785
-0.2431016505175243
-0.17540245670252808
-0.14463009587750708
-0.13232115154751534
-0.1200122072175236
-0.16309351237253633
-0.2554105948475438
-0.28618295567253704
-0.3292642608275498
-0.28618295567253704
-0.26771953917753555
-0.2246382340225228
-0.21232928969253104
-0.18155692886753785
-0.15693904020752658
-0.2061748175275213
-0.26771953917753555
0.06462195773251911
0.7785407288726233
-0.5077439536125827
-0.37850003814754446
-0.31695531649755804
-0.3292642608275498
-0.8216220340276081
-0.6246789247476013
-0.37850003814754446
-0.2984919000025288
-0.3108008443325483
-0.35388214948756097
-0.32310978866254003
-0.23079270618753256
-0.28618295567253704
-0.3723455659825625
-0.34772767732255133
-0.30464637216753854
-0.17540245670252808
-0.21232928969253104
-0.2800284835075273
-0.2984919000025288
-0.3846545103125543
-0.427735815467567
-0.40311792680755576
-0.3846545103125543
-0.360036621652543
-0.34772767732255133
-0.36619109381755277
0.14463009587750708
-0.28618295567253704
-0.7169960072226089
-0.40311792680755576
-0.31695531649755804
-0.36619109381755277
-0.34772767732255133
-0.3108008443325483
-0.23694717835254234
-0.3108008443325483
-0.28618295567253704
-0.2800284835075273
-0.2800284835075273
-0.2246382340225228
-0.24925612268253405
-0.2554105948475438
-0.16309351237253633
-0.2738740113425453
-0.30464637216753854
-0.23694717835254234
-0.3723455659825625
-0.34772767732255133
-0.3292642608275498
-0.3292642608275498
-0.23694717835254234
-0.34772767732255133
-0.3723455659825625
-0.3354187329925596
-0.3354187329925596
-0.3354187329925596
-0.360036621652543
-0.3723455659825625
-0.2984919000025288
-0.3723455659825625
-0.4708171206225797
-1.0370285598026439
-0.11385773505251384
-0.08923984639250258
-0.3292642608275498
-0.3354187329925596
-0.23694717835254234
-0.3846545103125543
-0.3846545103125543
-0.3415732051575415
-0.3415732051575415
-0.3415732051575415
-0.3354187329925596
-0.2984919000025288
-0.23079270618753256
-0.34772767732255133
-0.3292642608275498
-0.30464637216753854
-0.2738740113425453
-0.30464637216753854
-0.2738740113425453
-0.31695531649755804
-0.29233742783754685
-0.3723455659825625
-0.3354187329925596
-0.3415732051575415
-0.30464637216753854
-0.2800284835075273
-0.28618295567253704
-0.31695531649755804
-0.16309351237253633
-0.4708171206225797
-0.5262073701075842
-0.5200528979425745
-0.5569797309325776
-0.5631342030975872
-0.538516314437576
-0.5015894814475731
-0.44619923196256844
-0.6431423412426028
-0.5939065639225805
-0.5015894814475731
-0.5262073701075842
-0.5200528979425745
-0.4892805371175811
-0.49543500928256323
-0.5077439536125827
-0.6185244525825918
-0.5446707866025856
-0.4831260649525715
-0.47697159278756174
-0.427735815467567
-0.37850003814754446
-0.390808982477564
-0.24925612268253405
-0.37850003814754446
-0.3846545103125543
-0.3846545103125543
-0.360036621652543
0.04000406907250786
0.6431423412426028
-0.3108008443325483
-0.3723455659825625
-1.0062561989776508
-0.6554512855725947
-0.427735815467567
-0.35388214948756097
-0.34772767732255133
-0.37850003814754446
-0.35388214948756097
-0.23079270618753256
-0.396963454642546
-0.3846545103125543
-0.35388214948756097
-0.3415732051575415
-0.36619109381755277
-0.40927239897256545
-0.36619109381755277
-0.2984919000025288
-0.4154268711375475
-0.3354187329925596
-0.30464637216753854
-0.35388214948756097
-0.42158134330255725
-0.396963454642546
-0.29233742783754685
-0.2061748175275213
-0.3723455659825625
-0.31695531649755804
-0.26771953917753555
-0.2184837618575408
-0.21232928969253104
-0.2246382340225228
-0.23079270618753256
-0.15693904020752658
-0.31695531649755804
-0.28618295567253704
-0.29233742783754685
-0.35388214948756097
-0.37850003814754446
-0.31695531649755804
-0.2554105948475438
-0.16309351237253633
-0.3354187329925596
-0.34772767732255133
-0.29233742783754685
-0.29233742783754685
-0.2984919000025288
-0.24925612268253405
-0.2061748175275213
-0.1384756237125251
-0.30464637216753854
-0.2800284835075273
-0.2431016505175243
-0.23079270618753256
-0.23079270618753256
-0.24925612268253405
-0.23079270618753256
-0.15693904020752658
-0.21232928969253104
-0.34772767732255133
-0.42158134330255725
-0.390808982477564
-0.8462399226876194
0.08308537422752059
0.10770326288750408
-0.02154065257750637
-0.23694717835254234
-0.2184837618575408
-0.2000203453625393
-0.18771140103251985
-0.18155692886753785
-0.18155692886753785
-0.13232115154751534
0.003077236082504875
0.1261666793825056
-0.01538618041249662
-0.07693090206251085
-0.07693090206251085
-0.1261666793825056
-0.14463009587750708
-0.11385773505251384
-0.08923984639250258
-0.2184837618575408
-0.14463009587750708
-0.11385773505251384
-0.13232115154751534
-0.15078456804251686
-0.13232115154751534
-0.1200122072175236
-0.02154065257750637
-0.18771140103251985
-0.1384756237125251
-0.1384756237125251
-0.1384756237125251
-0.1200122072175236
-0.1015487907225221
-0.07693090206251085
-0.07693090206251085
-0.18771140103251985
-0.14463009587750708
-0.1015487907225221
-0.04615854123751762
-0.08308537422752059
-0.10770326288750408
-0.09539431855751236
-0.14463009587750708
-0.2431016505175243
-0.18155692886753785
-0.16309351237253633
-0.15693904020752658
-0.18771140103251985
-0.16309351237253633
-0.1384756237125251
-0.07693090206251085
-0.2184837618575408
-0.1938658731975296
-0.15693904020752658
-0.1692479845375183
-0.18155692886753785
-0.1692479845375183
0.02769512474251612
0.5692886752625692
-0.360036621652543
-0.18771140103251985
-0.14463009587750708
-0.15693904020752658
-0.1692479845375183
-0.1384756237125251
-0.1015487907225221
-0.4831260649525715
-0.6308333969125834
-0.30464637216753854
-0.21232928969253104
-0.17540245670252808
-0.1384756237125251
-0.15078456804251686
-0.02154065257750637
0.6000610360875902
-0.889321227842632
0.2431016505175243
0.1200122072175236
-0.05231301340249961
-0.0707764298975011
-0.1015487907225221
-0.058467485567509365
-0.5015894814475731
-0.538516314437576
-0.18155692886753785
-0.11385773505251384
-0.1015487907225221
-0.15078456804251686
-0.17540245670252808
-0.13232115154751534
-0.17540245670252808
-0.2431016505175243
-0.15078456804251686
-0.11385773505251384
-0.1015487907225221
-0.0707764298975011
-0.06462195773251911
-0.003077236082504875
0.02154065257750637
-0.04000406907250786
-0.058467485567509365
-0.1015487907225221
-0.14463009587750708
-0.06462195773251911
-0.04615854123751762
-0.04000406907250786
-0.07693090206251085
-0.14463009587750708
-0.1200122072175236
-0.1015487907225221
-0.1200122072175236
-0.1384756237125251
-0.16309351237253633
-0.1261666793825056
-0.14463009587750708
-0.26771953917753555
-0.18155692886753785
-0.2184837618575408
-0.2061748175275213
-0.18771140103251985
-0.2061748175275213
-0.1261666793825056
-0.15078456804251686
-0.2984919000025288
-0.2800284835075273
-0.26156506701252585
-0.23694717835254234
-0.23079270618753256
-0.2246382340225228
-0.18155692886753785
-0.2184837618575408
-0.30464637216753854
-0.2984919000025288
-0.31695531649755804
-0.28618295567253704
-0.2554105948475438
-0.2800284835075273
-0.8154675618626261
-0.1938658731975296
0.07693090206251085
-0.21232928969253104
-0.2738740113425453
-0.3292642608275498
-0.360036621652543
-0.3846545103125543
-0.31695531649755804
-0.31695531649755804
-0.40927239897256545
-0.390808982477564
-0.36619109381755277
-0.3108008443325483
-0.2984919000025288
-0.2984919000025288
-0.2000203453625393
-0.2246382340225228
-0.3108008443325483
-0.23694717835254234
-0.2184837618575408
-0.2554105948475438
-0.28618295567253704
-0.30464637216753854
-0.40311792680755576
-0.427735815467567
-0.3354187329925596
-0.2984919000025288
-0.29233742783754685
-0.3292642608275498
-0.3292642608275498
-0.29233742783754685
-0.2246382340225228
-0.2984919000025288
-0.3723455659825625
-0.31695531649755804
-0.32310978866254003
-0.360036621652543
-0.3415732051575415
-0.0707764298975011
-0.07693090206251085
-0.26156506701252585
0.01538618041249662
0.5939065639225805
-0.433890287632549
-0.3292642608275498
-0.3292642608275498
-0.3415732051575415
0.02769512474251612
-0.8585488670176111
-1.0247196154726523
-0.5569797309325776
-0.40311792680755576
-0.360036621652543
-0.26771953917753555
-0.2554105948475438
-0.24925612268253405
-0.35388214948756097
-0.3415732051575415
-0.28618295567253704
-0.29233742783754685
-0.2984919000025288
-0.31695531649755804
-0.3415732051575415
-0.26156506701252585
-0.3108008443325483
-0.29233742783754685
-0.26156506701252585
-0.2800284835075273
-0.35388214948756097
-0.37850003814754446
-0.35388214948756097
-0.23694717835254234
-0.31695531649755804
-0.3415732051575415
-0.30464637216753854
-0.29233742783754685
-0.2800284835075273
-0.2246382340225228
-0.1938658731975296
-0.07693090206251085
-0.2061748175275213
-0.2184837618575408
-0.15078456804251686
-0.08308537422752059
-0.1938658731975296
-0.2184837618575408
-0.2000203453625393
-0.1384756237125251
-0.3108008443325483
-0.2984919000025288
-0.23079270618753256
-0.2431016505175243
-0.2738740113425453
-0.28618295567253704
-0.29233742783754685
-0.17540245670252808
-0.3292642608275498
-0.3292642608275498
-0.2061748175275213
-0.3108008443325483
-0.2800284835075273
-0.2246382340225228
-0.1938658731975296
-0.08923984639250258
-0.396963454642546
-0.9324025329976448
0.04000406907250786
0.08923984639250258
-0.15693904020752658
-0.17540245670252808
-0.2184837618575408
-0.2061748175275213
-0.32310978866254003
-0.360036621652543
-0.35388214948756097
-0.36619109381755277
-0.3846545103125543
-0.34772767732255133
-0.3846545103125543
-0.29233742783754685
-0.4400447597975588
-0.396963454642546
-0.35388214948756097
-0.37850003814754446
-0.3415732051575415
-0.32310978866254003
-0.3292642608275498
-0.18771140103251985
-0.2738740113425453
-0.31695531649755804
-0.360036621652543
-0.32310978866254003
-0.3108008443325483
-0.31695531649755804
-0.31695531649755804
-0.2554105948475438
-0.360036621652543
-0.3292642608275498
-0.2738740113425453
-0.2738740113425453
-0.28618295567253704
-0.28618295567253704
-0.2738740113425453
-0.15693904020752658
-0.40927239897256545
-0.40311792680755576
-0.3415732051575415
-0.31695531649755804
-0.2800284835075273
-0.26771953917753555
-0.2431016505175243
-0.1384756237125251
-0.29233742783754685
-0.2738740113425453
-0.2738740113425453
-0.2738740113425453
-0.2554105948475438
-0.2184837618575408
-0.2061748175275213
-0.2061748175275213
-0.3354187329925596
-0.3292642608275498
-0.2984919000025288
0.0707764298975011
0.8277765061926179
-0.5077439536125827
-0.36619109381755277
-0.538516314437576
-0.8400854505226096
-0.4831260649525715
-0.37850003814754446
-0.3354187329925596
-0.2738740113425453
-0.16309351237253633
-0.28618295567253704
-0.1692479845375183
-0.360036621652543
-0.3415732051575415
-0.3292642608275498
-0.2984919000025288
-0.2738740113425453
-0.26771953917753555
-0.26156506701252585
-0.1938658731975296
-0.3846545103125543
-0.3292642608275498
-0.3108008443325483
-0.2800284835075273
0.15693904020752658
0.15078456804251686
-0.1261666793825056
-0.17540245670252808
-0.3354187329925596
-0.3108008443325483
-0.31695531649755804
-0.32310978866254003
-0.30464637216753854
-0.2800284835075273
-0.26771953917753555
-0.15078456804251686
-0.37850003814754446
-0.3354187329925596
-0.3108008443325483
-0.7662317845426038
-0.7908496732026148
-0.4708171206225797
-0.37850003814754446
-0.2984919000025288
-0.4400447597975588
-0.3846545103125543
-0.3415732051575415
-0.3292642608275498
-0.35388214948756097
-0.35388214948756097
-0.31695531649755804
-0.26771953917753555
-0.44619923196256844
-0.40311792680755576
-0.31695531649755804
-0.3415732051575415
-0.37850003814754446
-0.36619109381755277
-0.2800284835075273
-0.1938658731975296
-0.40311792680755576
-0.34772767732255133
-0.45850817629256013
-0.9447114773276367
-0.02769512474251612
-0.0707764298975011
-0.26156506701252585
-0.23079270618753256
-0.4154268711375475
-0.3354187329925596
-0.28618295567253704
-0.2738740113425453
-0.23694717835254234
-0.23694717835254234
-0.24925612268253405
-0.2738740113425453
-0.390808982477564
-0.36619109381755277
-0.396963454642546
-0.4154268711375475
-0.4400447597975588
-0.427735815467567
-0.35388214948756097
-0.2800284835075273
-0.18155692886753785
-0.2246382340225228
-0.2246382340225228
-0.3292642608275498
-0.37850003814754446
-0.3108008443325483
-0.23079270618753256
0.7169960072226089
-0.3354187329925596
-0.46466264845757
-0.3846545103125543
-0.3415732051575415
-0.31695531649755804
-0.29233742783754685
-0.2738740113425453
-0.8831667556776225
-1.000101726812641
-0.5200528979425745
-0.396963454642546
-0.3354187329925596
-0.2800284835075273
-0.2984919000025288
-0.2554105948475438
-0.21232928969253104
-0.3723455659825625
-0.2984919000025288
-0.3292642608275498
-0.31695531649755804
-0.29233742783754685
-0.2738740113425453
-0.11385773505251384
-0.1938658731975296
-0.2984919000025288
-0.26156506701252585
-0.24925612268253405
-0.26771953917753555
-0.28618295567253704
0.058467485567509365
0.7354594237176103
-0.9570204216576284
-0.8216220340276081
-0.46466264845757
-0.37850003814754446
-0.3292642608275498
-0.3354187329925596
-0.3292642608275498
-0.2554105948475438
-0.2431016505175243
-0.3415732051575415
-0.30464637216753854
-0.26771953917753555
-0.26156506701252585
-0.26156506701252585
-0.24925612268253405
-0.21232928969253104
-0.18771140103251985
-0.29233742783754685
-0.2431016505175243
-0.2184837618575408
-0.2000203453625393
-0.1384756237125251
-0.23694717835254234
-0.17540245670252808
-0.1938658731975296
-0.34772767732255133
-0.29233742783754685
-0.2800284835075273
-0.3108008443325483
-0.3415732051575415
-0.3415732051575415
-0.2554105948475438
-0.26771953917753555
-0.36619109381755277
-0.30464637216753854
-0.2554105948475438
-0.2184837618575408
-0.31695531649755804
-0.2800284835075273
-0.21232928969253104
-0.24925612268253405
-0.2984919000025288
-0.2431016505175243
-0.23694717835254234
-0.2431016505175243
-0.24925612268253405
-0.2246382340225228
-0.1938658731975296
-0.23694717835254234
-0.30464637216753854
-0.26771953917753555
-0.24925612268253405
-0.24925612268253405
-0.23694717835254234
-0.23694717835254234
-0.18771140103251985
-0.23079270618753256
-0.2554105948475438
-0.21232928969253104
-0.23079270618753256
-0.23694717835254234
-0.3292642608275498
-0.8523943948526291
0.07693090206251085
0.0707764298975011
-0.1938658731975296
-0.1938658731975296
-0.2984919000025288
-0.26771953917753555
-0.2431016505175243
-0.23079270618753256
-0.16309351237253633
-0.18771140103251985
-0.1938658731975296
-0.18771140103251985
-0.1938658731975296
-0.2061748175275213
-0.2061748175275213
-0.21232928969253104
-0.18155692886753785
-0.23079270618753256
-0.2000203453625393
-0.16309351237253633
-0.1692479845375183
-0.23079270618753256
-0.16309351237253633
-0.14463009587750708
-0.1384756237125251
-0.2000203453625393
-0.2000203453625393
-0.16309351237253633
-0.15693904020752658
-0.18155692886753785
-0.15693904020752658
-0.13232115154751534
-0.10770326288750408
-0.15693904020752658
-0.18155692886753785
-0.1692479845375183
-0.1938658731975296
-0.2000203453625393
-0.21232928969253104
-0.2000203453625393
0.28618295567253704
-0.1261666793825056
-0.5508252587675677
-0.3108008443325483
-0.23694717835254234
-0.2061748175275213
-0.21232928969253104
-0.2184837618575408
-0.1692479845375183
-0.2554105948475438
-0.2431016505175243
-0.2431016505175243
-0.2554105948475438
-0.26771953917753555
-0.26156506701252585
-0.24925612268253405
-0.16309351237253633
0.08308537422752059
0.5631342030975872
-0.37850003814754446
-0.2246382340225228
-0.23079270618753256
-0.2000203453625393
-0.0707764298975011
-0.1938658731975296
-0.7600773123775938
-0.4708171206225797
-0.2800284835075273
-0.2246382340225228
-0.23694717835254234
-0.23694717835254234
-0.2184837618575408
-0.1200122072175236
-0.2431016505175243
-0.23694717835254234
-0.2246382340225228
-0.1938658731975296
-0.2000203453625393
-0.360036621652543
-0.3292642608275498
-0.18155692886753785
-0.28618295567253704
-0.2800284835075273
-0.24925612268253405
-0.24925612268253405
-0.23694717835254234
-0.2431016505175243
-0.24925612268253405
-0.15693904020752658
-0.2984919000025288
-0.30464637216753854
-0.2554105948475438
-0.2184837618575408
-0.1938658731975296
-0.2061748175275213
-0.2431016505175243
-0.2184837618575408
-0.35388214948756097
-0.34772767732255133
-0.30464637216753854
-0.2984919000025288
-0.2984919000025288
-0.26771953917753555
-0.2554105948475438
-0.1692479845375183
-0.3354187329925596
-0.3354187329925596
-0.28618295567253704
-0.2984919000025288
-0.3292642608275498
-0.2800284835075273
-0.2738740113425453
-0.21232928969253104
-0.3108008443325483
-0.28618295567253704
-0.26771953917753555
-0.23079270618753256
-0.2000203453625393
-0.2184837618575408
-0.21232928969253104
-0.2061748175275213
-0.9200935886676254
0.058467485567509365
0.2800284835075273
-0.02154065257750637
-0.1261666793825056
-0.1200122072175236
-0.1261666793825056
-0.06462195773251911
-0.18155692886753785
-0.1692479845375183
-0.14463009587750708
-0.1261666793825056
-0.1015487907225221
-0.1200122072175236
-0.1261666793825056
-0.033849596907498114
-0.1384756237125251
-0.2000203453625393
-0.23694717835254234
-0.23079270618753256
-0.2061748175275213
-0.2246382340225228
-0.23694717835254234
-0.14463009587750708
-0.3354187329925596
-0.3108008443325483
-0.2800284835075273
-0.2738740113425453
-0.2738740113425453
-0.2000203453625393
-0.2184837618575408
-0.15693904020752658
-0.31695531649755804
-0.2738740113425453
-0.2431016505175243
-0.2431016505175243
-0.26156506701252585
-0.23694717835254234
-0.21232928969253104
-0.1200122072175236
-0.2984919000025288
-0.26771953917753555
-0.2061748175275213
-0.2000203453625393
-0.2061748175275213
-0.1692479845375183
-0.15078456804251686
-0.1200122072175236
-0.26156506701252585
-0.2431016505175243
-0.18771140103251985
-0.14463009587750708
-0.15693904020752658
-0.16309351237253633
-0.11385773505251384
-0.04000406907250786
-0.2000203453625393
-0.1261666793825056
0.1938658731975296
0.6431423412426028
-0.390808982477564
-0.26771953917753555
-0.1384756237125251
-0.46466264845757
-0.8708578113476306
-0.4892805371175811
-0.3723455659825625
-0.2984919000025288
-0.2800284835075273
-0.2738740113425453
-0.24925612268253405
-0.2000203453625393
-0.3292642608275498
-0.2738740113425453
-0.24925612268253405
-0.2184837618575408
-0.2061748175275213
-0.29233742783754685
-0.2800284835075273
-0.1384756237125251
-0.28618295567253704
-0.2246382340225228
-0.1938658731975296
-0.2000203453625393
-0.18771140103251985
-0.14463009587750708
-0.14463009587750708
-0.08923984639250258
-0.26156506701252585
-0.21232928969253104
-0.2184837618575408
-0.2061748175275213
0.2246382340225228
0.3108008443325483
-0.003077236082504875
-0.11385773505251384
-0.24925612268253405
-0.1938658731975296
-0.18155692886753785
-0.21232928969253104
-0.2061748175275213
-0.18771140103251985
-0.13232115154751534
0.575443147427579
-0.7970041453676248
0.21232928969253104
0.07693090206251085
-0.6000610360875902
-0.7416138958825924
-0.3846545103125543
-0.2431016505175243
-0.6000610360875902
-0.7416138958825924
-0.35388214948756097
-0.2984919000025288
-0.26771953917753555
-0.21232928969253104
-0.21232928969253104
-0.2000203453625393
-0.18155692886753785
-0.31695531649755804
-0.24925612268253405
0.07693090206251085
0.07693090206251085
-0.07693090206251085
-0.1200122072175236
-0.1261666793825056
-0.10770326288750408
-0.1938658731975296
-0.16309351237253633
-0.18771140103251985
-0.2246382340225228
-0.2184837618575408
-0.2061748175275213
-0.18771140103251985
-0.17540245670252808
-0.3292642608275498
-0.45850817629256013
-0.5323618422725662
-0.3292642608275498
-0.24925612268253405
-0.1938658731975296
-0.1384756237125251
-0.14463009587750708
-0.24925612268253405
-0.1692479845375183
-0.1692479845375183
-0.1384756237125251
-0.1384756237125251
-0.14463009587750708
-0.08923984639250258
-0.10770326288750408
-0.1261666793825056
-0.23694717835254234
-0.2246382340225228
-0.23079270618753256
-0.2246382340225228
-0.2246382340225228
-0.18771140103251985
-0.2061748175275213
-0.29233742783754685
-0.23694717835254234
-0.2246382340225228
-0.2431016505175243
-0.2246382340225228
-0.2184837618575408
-0.6923781185625978
-0.06462195773251911
0.427735815467567
-0.06462195773251911
-0.13232115154751534
-0.18155692886753785
-0.2184837618575408
-0.2184837618575408
-0.1384756237125251
-0.1692479845375183
-0.3415732051575415
-0.2800284835075273
-0.26156506701252585
-0.29233742783754685
0.033849596907498114
0.5939065639225805
-0.5569797309325776
-1.000101726812641
-0.8031586175326066
-0.44619923196256844
-0.3108008443325483
-0.30464637216753854
-0.30464637216753854
-0.28618295567253704
-0.2246382340225228
-0.2061748175275213
-0.396963454642546
-0.3292642608275498
-0.26156506701252585
-0.26156506701252585
-0.28618295567253704
0.058467485567509365
0.15693904020752658
-0.1200122072175236
-0.2738740113425453
-0.28618295567253704
-0.2554105948475438
-0.23694717835254234
-0.24925612268253405
-0.24925612268253405
-0.2061748175275213
-0.2554105948475438
-0.28618295567253704
-0.23079270618753256
-0.2061748175275213
-0.2554105948475438
-0.5692886752625692
-0.6062155082525723
-0.3292642608275498
-0.31695531649755804
-0.3415732051575415
-0.30464637216753854
-0.3108008443325483
-0.30464637216753854
-0.2984919000025288
-0.2738740113425453
-0.2061748175275213
-0.2738740113425453
-0.2984919000025288
-0.26771953917753555
-0.2984919000025288
0.08308537422752059
0.1938658731975296
-0.10770326288750408
-0.18155692886753785
-0.23079270618753256
-0.23079270618753256
-0.26156506701252585
-0.2984919000025288
-0.28618295567253704
-0.2984919000025288
-0.31695531649755804
-0.26156506701252585
-0.35388214948756097
-0.360036621652543
-0.3354187329925596
-0.7662317845426038
-1.0062561989776508
-1.141654586607671
-0.07693090206251085
-0.04000406907250786
-0.26771953917753555
-0.3723455659825625
-0.36619109381755277
-0.3846545103125543
-0.396963454642546
-0.35388214948756097
-0.34772767732255133
-0.31695531649755804
-0.35388214948756097
-0.360036621652543
-0.24925612268253405
-0.24925612268253405
-0.2984919000025288
-0.32310978866254003
-0.35388214948756097
0.16309351237253633
-0.29233742783754685
-0.6862236463975879
-0.40927239897256545
-0.36619109381755277
-0.34772767732255133
-0.36619109381755277
-0.3846545103125543
-0.3108008443325483
-0.4154268711375475
-0.36619109381755277
-0.40311792680755576
-0.40311792680755576
-0.31695531649755804
-0.28618295567253704
-0.30464637216753854
-0.1938658731975296
-0.28618295567253704
-0.396963454642546
-0.35388214948756097
-0.35388214948756097
-0.3292642608275498
-0.3354187329925596
-0.37850003814754446
-0.2738740113425453
-0.3354187329925596
-0.37850003814754446
-0.3723455659825625
-0.34772767732255133
-0.35388214948756097
-0.360036621652543
-0.3723455659825625
-0.2554105948475438
-0.36619109381755277
-0.427735815467567
-0.3846545103125543
-0.360036621652543
-0.37850003814754446
-0.35388214948756097
-0.3415732051575415
0.09539431855751236
0.49543500928256323
-0.5815976195925888
-0.390808982477564
-0.3354187329925596
-0.3415732051575415
-0.32310978866254003
-0.29233742783754685
-0.35388214948756097
-0.9447114773276367
-0.6308333969125834
-0.433890287632549
-0.40927239897256545
-0.396963454642546
-0.4154268711375475
-0.29233742783754685
-0.2431016505175243
-0.3846545103125543
-0.3723455659825625
-0.31695531649755804
-0.3108008443325483
-0.31695531649755804
-0.3354187329925596
-0.3292642608275498
-0.24925612268253405
-0.4154268711375475
-0.4154268711375475
-0.390808982477564
-0.3723455659825625
-0.4154268711375475
-0.360036621652543
-0.35388214948756097
-0.3415732051575415
-0.4708171206225797
-0.40311792680755576
-0.390808982477564
-0.390808982477564
-0.3846545103125543
-0.390808982477564
-0.3723455659825625
-0.2738740113425453
-0.35388214948756097
-0.3354187329925596
-0.2738740113425453
-0.2738740113425453
-0.32310978866254003
-0.2738740113425453
-0.18771140103251985
-0.07693090206251085
-0.32310978866254003
-0.2554105948475438
-0.23694717835254234
-0.2984919000025288
-0.32310978866254003
-0.29233742783754685
-0.3108008443325483
-0.18771140103251985
-0.34772767732255133
-0.3354187329925596
-0.35388214948756097
-0.3354187329925596
-0.37850003814754446
-0.46466264845757
-0.5877520917575707
-1.0370285598026439
-0.2184837618575408
-0.2184837618575408
-0.427735815467567
-0.46466264845757
-0.4523537041275505
-0.4523537041275505
-0.4523537041275505
-0.35388214948756097
-0.5446707866025856
-0.5323618422725662
-0.4892805371175811
-0.40311792680755576
-0.3846545103125543
-0.40311792680755576
-0.3723455659825625
-0.2738740113425453
-0.4400447597975588
-0.433890287632549
-0.36619109381755277
-0.3354187329925596
-0.32310978866254003
-0.30464637216753854
-0.3108008443325483
-0.23079270618753256
-0.4400447597975588
-0.4154268711375475
-0.40311792680755576
-0.396963454642546
-0.390808982477564
-0.390808982477564
-0.390808982477564
-0.3415732051575415
-0.4400447597975588
-0.40927239897256545
-0.390808982477564
-0.35388214948756097
-0.37850003814754446
-0.360036621652543
-0.31695531649755804
-0.23694717835254234
-0.45850817629256013
-0.427735815467567
-0.34772767732255133
-0.3292642608275498
-0.36619109381755277
-0.3415732051575415
-0.24925612268253405
-0.18771140103251985
-0.4400447597975588
-0.3846545103125543
-0.36619109381755277
-0.37850003814754446
-0.396963454642546
-0.37850003814754446
-0.30464637216753854
0.8031586175326066
-0.009231708247514623
-0.17540245670252808
0.04615854123751762
-0.8400854505226096
-0.390808982477564
-0.2984919000025288
-0.26771953917753555
-0.5631342030975872
-0.8277765061926179
-0.45850817629256013
-0.31695531649755804
-0.2738740113425453
-0.2800284835075273
-0.2984919000025288
-0.23694717835254234
-0.23694717835254234
-0.390808982477564
-0.3723455659825625
-0.35388214948756097
-0.3415732051575415
-0.31695531649755804
-0.26771953917753555
-0.2246382340225228
-0.1938658731975296
-0.3292642608275498
-0.2738740113425453
-0.30464637216753854
-0.35388214948756097
-0.360036621652543
-0.2554105948475438
-0.2738740113425453
-0.2738740113425453
-0.4523537041275505
-0.35388214948756097
-0.2984919000025288
-0.2984919000025288
-0.2738740113425453
-0.26156506701252585
-0.26771953917753555
-0.23694717835254234
-0.40927239897256545
-0.34772767732255133
-0.3292642608275498
-0.34772767732255133
-0.42158134330255725
-0.433890287632549
-0.3292642608275498
-0.26771953917753555
-0.4154268711375475
-0.390808982477564
-0.360036621652543
-0.35388214948756097
-0.36619109381755277
-0.360036621652543
-0.3108008443325483
-0.2984919000025288
-0.45850817629256013
-0.3723455659825625
-0.34772767732255133
-0.31695531649755804
-0.390808982477564
-0.360036621652543
-0.31695531649755804
-0.30464637216753854
-0.5015894814475731
-0.9693293659876481
-0.02769512474251612
-0.02154065257750637
-0.2431016505175243
-0.2800284835075273
-0.2554105948475438
-0.23694717835254234
-0.3723455659825625
-0.2984919000025288
-0.2738740113425453
-0.30464637216753854
-0.26771953917753555
-0.17540245670252808
0.04000406907250786
0.10770326288750408
-0.1015487907225221
-0.10770326288750408
-0.18155692886753785
-0.26156506701252585
-0.28618295567253704
-0.427735815467567
-0.3723455659825625
-0.04000406907250786
-0.1015487907225221
-0.15078456804251686
-0.1261666793825056
-0.1200122072175236
-0.23694717835254234
-0.26771953917753555
-0.17540245670252808
-0.24925612268253405
-0.396963454642546
-0.3354187329925596
-0.31695531649755804
-0.3846545103125543
-0.40311792680755576
-0.360036621652543
-0.30464637216753854
-0.3846545103125543
-0.433890287632549
-0.3354187329925596
-0.26771953917753555
-0.3723455659825625
-0.34772767732255133
-0.3415732051575415
-0.29233742783754685
-0.29233742783754685
-0.40927239897256545
-0.32310978866254003
-0.28618295567253704
-0.28618295567253704
-0.26771953917753555
-0.2738740113425453
-0.2800284835075273
-0.2246382340225228
-0.36619109381755277
-0.36619109381755277
-0.3415732051575415
0.003077236082504875
0.7293049515526008
-0.5077439536125827
-0.3723455659825625
-0.8093130896976164
-0.6923781185625978
-0.40311792680755576
-0.3354187329925596
-0.29233742783754685
-0.2984919000025288
-0.2984919000025288
-0.23079270618753256
-0.3354187329925596
-0.35388214948756097
-0.26156506701252585
-0.2184837618575408
-0.21232928969253104
-0.2246382340225228
-0.2431016505175243
-0.2061748175275213
-0.26156506701252585
-0.3292642608275498
-0.30464637216753854
-0.34772767732255133
-0.3415732051575415
-0.35388214948756097
-0.3354187329925596
-0.3292642608275498
-0.396963454642546
-0.42158134330255725
-0.360036621652543
-0.390808982477564
-0.42158134330255725
-0.46466264845757
-0.45850817629256013
-0.427735815467567
-0.5262073701075842
-0.5508252587675677
-0.5138984257775646
-0.46466264845757
-0.47697159278756174
-0.46466264845757
-0.46466264845757
-0.45850817629256013
-0.538516314437576
-0.5939065639225805
-0.5877520917575707
-0.5631342030975872
-0.6185244525825918
-0.6308333969125834
-0.6123699804175821
-0.575443147427579
-0.6739147020675963
-0.6677602299025863
-0.5939065639225805
-0.5631342030975872
-0.44619923196256844
-0.6185244525825918
-0.5815976195925888
-0.47697159278756174
-0.4831260649525715
-0.4708171206225797
-0.433890287632549
-0.5138984257775646
-1.0493375041326358
-0.1200122072175236
-0.06462195773251911
0.17540245670252808
-0.35388214948756097
-0.7970041453676248
-0.4831260649525715
-0.40311792680755576
-0.45850817629256013
-0.45850817629256013
-0.433890287632549
-0.30464637216753854
-0.40311792680755576
-0.46466264845757
-0.4154268711375475
-0.433890287632549
-0.46466264845757
-0.4523537041275505
-0.44619923196256844
-0.37850003814754446
-0.4892805371175811
-0.5077439536125827
-0.3292642608275498
-0.34772767732255133
-0.49543500928256323
-0.5815976195925888
-0.6185244525825918
-0.5138984257775646
-0.6492968134075848
-0.6431423412426028
-0.6369878690775933
-0.6185244525825918
-0.5446707866025856
-0.45850817629256013
-0.360036621652543
-0.32310978866254003
-0.44619923196256844
-0.47697159278756174
-0.6062155082525723
-0.5200528979425745
-0.427735815467567
-0.396963454642546
-0.3846545103125543
-0.2554105948475438
-0.3292642608275498
-0.28618295567253704
-0.29233742783754685
-0.26771953917753555
-0.2984919000025288
-0.3354187329925596
-0.34772767732255133
-0.360036621652543
-0.5077439536125827
-0.44619923196256844
-0.40927239897256545
-0.40311792680755576
-0.40927239897256545
-0.3723455659825625
0.003077236082504875
0.4831260649525715
-0.9570204216576284
-0.42158134330255725
-0.2246382340225228
-0.23079270618753256
-0.2246382340225228
-0.21232928969253104
-0.2000203453625393
-0.009231708247514623
-0.06462195773251911
-0.17540245670252808
-0.21232928969253104
-0.23694717835254234
-0.24925612268253405
-0.2554105948475438
-0.2431016505175243
-0.18771140103251985
-0.34772767732255133
-0.3354187329925596
-0.30464637216753854
-0.29233742783754685
-0.2800284835075273
-0.28618295567253704
-0.34772767732255133
-0.34772767732255133
-0.396963454642546
-0.2800284835075273
-0.18771140103251985
-0.2184837618575408
-0.2800284835075273
-0.2184837618575408
-0.17540245670252808
-0.11385773505251384
-0.3108008443325483
-0.2738740113425453
-0.26156506701252585
-0.2738740113425453
-0.26771953917753555
-0.1384756237125251
-0.1261666793825056
-0.14463009587750708
-0.26771953917753555
-0.23079270618753256
-0.23694717835254234
-0.2246382340225228
-0.21232928969253104
-0.1938658731975296
-0.1692479845375183
-0.0707764298975011
-0.31695531649755804
-0.2738740113425453
-0.23694717835254234
-0.23694717835254234
-0.2984919000025288
-0.30464637216753854
-0.2184837618575408
-0.1261666793825056
-0.23694717835254234
-0.2061748175275213
-0.21232928969253104
-0.2061748175275213
-0.23694717835254234
-0.360036621652543
-0.8585488670176111
0.08308537422752059
-0.009231708247514623
-0.2431016505175243
-0.30464637216753854
-0.26156506701252585
-0.35388214948756097
-0.36619109381755277
-0.32310978866254003
0.5262073701075842
-0.033849596907498114
-0.4400447597975588
-0.3292642608275498
-0.3354187329925596
-0.31695531649755804
-0.29233742783754685
-0.2738740113425453
-0.5200528979425745
-0.895475700007614
-0.49543500928256323
-0.360036621652543
-0.30464637216753854
-0.29233742783754685
-0.2554105948475438
-0.2246382340225228
-0.11385773505251384
-0.32310978866254003
-0.2738740113425453
-0.23694717835254234
-0.26771953917753555
-0.30464637216753854
-0.2800284835075273
-0.23694717835254234
-0.2184837618575408
-0.42158134330255725
-0.3292642608275498
-0.30464637216753854
-0.3354187329925596
-0.35388214948756097
-0.34772767732255133
-0.2738740113425453
-0.2246382340225228
-0.427735815467567
-0.36619109381755277
-0.2984919000025288
-0.30464637216753854
-0.29233742783754685
-0.2800284835075273
-0.23694717835254234
-0.2061748175275213
-0.2554105948475438
-0.1692479845375183
-0.2061748175275213
-0.2246382340225228
-0.2738740113425453
-0.2738740113425453
-0.23694717835254234
-0.18771140103251985
0.01538618041249662
0.6862236463975879
-0.5138984257775646
-0.37850003814754446
-0.31695531649755804
-0.2738740113425453
-0.2431016505175243
-0.5815976195925888
-0.9939472546476313
-0.5692886752625692
-0.360036621652543
-0.32310978866254003
-0.30464637216753854
-0.2984919000025288
-0.23694717835254234
-0.17540245670252808
-0.3415732051575415
-0.2800284835075273
-0.2431016505175243
-0.2431016505175243
-0.2554105948475438
-0.2984919000025288
-0.1200122072175236
-0.2246382340225228
-0.427735815467567
-0.35388214948756097
-0.3415732051575415
-0.3354187329925596
-0.3292642608275498
-0.35388214948756097
-0.3292642608275498
-0.31695531649755804
-0.4400447597975588
-0.42158134330255725
-0.40311792680755576
-0.3723455659825625
-0.390808982477564
-0.4154268711375475
-0.37850003814754446
-0.36619109381755277
-0.47697159278756174
-0.40927239897256545
-0.3846545103125543
-0.35388214948756097
-0.35388214948756097
-0.35388214948756097
-0.2984919000025288
-0.26771953917753555
-0.34772767732255133
-0.2984919000025288
-0.3108008443325483
-0.3292642608275498
-0.3108008443325483
-0.31695531649755804
-0.2800284835075273
-0.24925612268253405
-0.360036621652543
-0.3108008443325483
-0.32310978866254003
-0.3415732051575415
-0.3354187329925596
-0.32310978866254003
-0.29233742783754685
-0.427735815467567
-0.9939472546476313
-0.05231301340249961
-0.058467485567509365
-0.26771953917753555
-0.3108008443325483
-0.2984919000025288
-0.2246382340225228
-0.23694717835254234
-0.3846545103125543
-0.3354187329925596
-0.3415732051575415
-0.36619109381755277
-0.36619109381755277
-0.3415732051575415
-0.2554105948475438
-0.26771953917753555
-0.40311792680755576
-0.26156506701252585
-0.1261666793825056
-0.23694717835254234
-0.24925612268253405
-0.23079270618753256
-0.16309351237253633
-0.2000203453625393
-0.3108008443325483
-0.23694717835254234
-0.1938658731975296
-0.2246382340225228
-0.2554105948475438
-0.2431016505175243
-0.1200122072175236
-0.1938658731975296
-0.36619109381755277
-0.2246382340225228
-0.2984919000025288
-0.3108008443325483
-0.2984919000025288
-0.29233742783754685
-0.2246382340225228
-0.26156506701252585
-0.3415732051575415
-0.3292642608275498
-0.2984919000025288
-0.2984919000025288
-0.31695531649755804
-0.31695531649755804
-0.26771953917753555
-0.3108008443325483
-0.30464637216753854
-0.37850003814754446
-0.3415732051575415
-0.30464637216753854
-0.30464637216753854
-0.29233742783754685
-0.1692479845375183
-0.17540245670252808
-0.23694717835254234
-0.2000203453625393
0.13232115154751534
0.6369878690775933
-0.40927239897256545
-0.28618295567253704
-0.34772767732255133
-0.8708578113476306
-0.7477683680476023
-0.5015894814475731
-0.40311792680755576
-0.3292642608275498
-0.30464637216753854
-0.32310978866254003
-0.2984919000025288
-0.3354187329925596
-0.37850003814754446
-0.32310978866254003
-0.3846545103125543
-0.3292642608275498
-0.3292642608275498
-0.34772767732255133
-0.2184837618575408
-0.28618295567253704
-0.34772767732255133
-0.34772767732255133
-0.3415732051575415
-0.3415732051575415
-0.31695531649755804
-0.35388214948756097
-0.31695531649755804
-0.3354187329925596
-0.3292642608275498
-0.3415732051575415
-0.3354187329925596
-0.34772767732255133
-0.3354187329925596
-0.16309351237253633
-0.02769512474251612
-0.2000203453625393
-0.23079270618753256
-0.2431016505175243
-0.2738740113425453
-0.2800284835075273
-0.23694717835254234
-0.29233742783754685
0.15078456804251686
-0.2800284835075273
-0.6800691742326058
-0.35388214948756097
-0.29233742783754685
-0.26156506701252585
-0.40927239897256545
-0.5138984257775646
-0.24925612268253405
-0.2738740113425453
-0.21232928969253104
-0.18771140103251985
-0.2246382340225228
-0.23694717835254234
-0.21232928969253104
-0.1938658731975296
-0.13232115154751534
-0.24925612268253405
-0.29233742783754685
-0.32310978866254003
-0.8462399226876194
0.04000406907250786
-0.0707764298975011
-0.23694717835254234
-0.2000203453625393
-0.3108008443325483
-0.35388214948756097
-0.3354187329925596
-0.3415732051575415
-0.37850003814754446
-0.3415732051575415
-0.32310978866254003
-0.1938658731975296
-0.2984919000025288
-0.31695531649755804
-0.26156506701252585
-0.07693090206251085
-0.05231301340249961
-0.15078456804251686
-0.24925612268253405
-0.1692479845375183
-0.26156506701252585
-0.32310978866254003
-0.29233742783754685
-0.2554105948475438
-0.26156506701252585
-0.2984919000025288
-0.34772767732255133
-0.1692479845375183
-0.2738740113425453
-0.28618295567253704
0.058467485567509365
0.26156506701252585
-0.08923984639250258
-0.26156506701252585
-0.2738740113425453
-0.13232115154751534
-0.2984919000025288
-0.31695531649755804
-0.3415732051575415
-0.34772767732255133
-0.35388214948756097
-0.3846545103125543
-0.4154268711375475
-0.30464637216753854
-0.3846545103125543
-0.7539228402126119
-1.0124106711426328
-0.6677602299025863
-0.46466264845757
-0.3723455659825625
-0.427735815467567
-0.360036621652543
-0.4154268711375475
-0.40311792680755576
-0.3723455659825625
-0.3292642608275498
-0.28618295567253704
0.09539431855751236
0.8031586175326066
-0.6246789247476013
-0.7416138958825924
-0.45850817629256013
-0.3108008443325483
-0.23694717835254234
-0.24925612268253405
-0.23079270618753256
-0.26771953917753555
-0.18771140103251985
-0.3723455659825625
-0.3292642608275498
-0.2984919000025288
-0.30464637216753854
-0.2800284835075273
-0.2184837618575408
-0.2246382340225228
-0.1261666793825056
-0.390808982477564
-0.31695531649755804
-0.28618295567253704
-0.2800284835075273
-0.26156506701252585
-0.2184837618575408
-0.1938658731975296
0.427735815467567
-0.34772767732255133
-0.3292642608275498
0.2061748175275213
-0.11385773505251384
-0.1938658731975296
-0.2061748175275213
-0.05231301340249961
-0.3354187329925596
-0.7846952010376053
-0.40311792680755576
-0.2554105948475438
-0.2554105948475438
-0.30464637216753854
-0.29233742783754685
-0.2431016505175243
-0.16309351237253633
-0.3292642608275498
-0.26771953917753555
-0.23694717835254234
-0.24925612268253405
-0.2554105948475438
-0.2246382340225228
-0.18155692886753785
-0.1261666793825056
-0.26156506701252585
-0.2061748175275213
-0.1938658731975296
-0.18771140103251985
-0.2184837618575408
-0.23079270618753256
-0.2061748175275213
-0.1692479845375183
-0.29233742783754685
-0.23694717835254234
-0.21232928969253104
-0.23694717835254234
-0.2554105948475438
-0.29233742783754685
-0.2431016505175243
-0.14463009587750708
-0.34772767732255133
-0.2984919000025288
-0.2800284835075273
-0.2738740113425453
-0.2246382340225228
-0.2554105948475438
-0.34772767732255133
-0.26771953917753555
-0.32310978866254003
-0.29233742783754685
-0.2800284835075273
-0.30464637216753854
-0.3292642608275498
-0.2984919000025288
-0.29233742783754685
-0.2184837618575408
-0.42158134330255725
-0.36619109381755277
-0.31695531649755804
-0.29233742783754685
-0.26156506701252585
-0.29233742783754685
-0.5877520917575707
-0.7046870628925893
0.1692479845375183
-0.16309351237253633
-0.1938658731975296
-0.29233742783754685
-0.3108008443325483
-0.2984919000025288
-0.26156506701252585
-0.26156506701252585
-0.37850003814754446
-0.3108008443325483
-0.28618295567253704
-0.28618295567253704
-0.2554105948475438
-0.2554105948475438
-0.2554105948475438
-0.2000203453625393
-0.3723455659825625
-0.1938658731975296
-0.16309351237253633
-0.2431016505175243
-0.2184837618575408
-0.18771140103251985
-0.15078456804251686
-0.11385773505251384
-0.28618295567253704
-0.18771140103251985
-0.15078456804251686
-0.16309351237253633
-0.18771140103251985
-0.16309351237253633
-0.14463009587750708
0.1938658731975296
0.6308333969125834
-0.30464637216753854
-0.16309351237253633
-0.2000203453625393
-0.2061748175275213
-0.21232928969253104
-0.2000203453625393
-0.5692886752625692
-0.7477683680476023
-0.3846545103125543
-0.26771953917753555
-0.24925612268253405
-0.24925612268253405
-0.21232928969253104
-0.17540245670252808
-0.2184837618575408
-0.390808982477564
-0.2984919000025288
-0.2554105948475438
-0.2431016505175243
-0.2431016505175243
-0.2431016505175243
-0.18155692886753785
-0.21232928969253104
-0.32310978866254003
-0.29233742783754685
-0.2554105948475438
-0.30464637216753854
-0.23694717835254234
-0.2431016505175243
-0.1938658731975296
-0.14463009587750708
-0.31695531649755804
-0.2738740113425453
-0.2554105948475438
-0.2554105948475438
-0.2738740113425453
-0.28618295567253704
-0.23694717835254234
-0.2246382340225228
-0.3723455659825625
-0.3354187329925596
-0.3292642608275498
-0.31695531649755804
-0.3415732051575415
-0.32310978866254003
-0.390808982477564
-0.390808982477564
-0.4400447597975588
-0.360036621652543
-0.32310978866254003
-0.30464637216753854
-0.2800284835075273
-0.26156506701252585
-0.23079270618753256
-0.30464637216753854
-0.40311792680755576
-0.3846545103125543
-0.36619109381755277
-0.40927239897256545
-0.3292642608275498
-0.2800284835075273
-0.32310978866254003
-0.8277765061926179
0.05231301340249961
0.13232115154751534
