4.138882530963089
4.151191475293081
4.151191475293081
4.1327280587980795
4.138882530963089
4.138882530963089
4.145037003128072
4.138882530963089
4.145037003128072
4.145037003128072
4.151191475293081
4.151191475293081
4.151191475293081
4.151191475293081
4.157345947458091
4.151191475293081
4.157345947458091
4.163500419623101
4.163500419623101
4.163500419623101
4.157345947458091
4.151191475293081
4.151191475293081
4.151191475293081
4.151191475293081
4.145037003128072
4.145037003128072
4.151191475293081
4.151191475293081
4.151191475293081
4.151191475293081
4.157345947458091
4.145037003128072
4.145037003128072
4.151191475293081
4.151191475293081
4.151191475293081
4.151191475293081
4.163500419623101
4.157345947458091
4.151191475293081
4.157345947458091
4.151191475293081
4.157345947458091
4.157345947458091
4.163500419623101
4.163500419623101
4.138882530963089
4.089646753643067
4.1942727804480935
4.200427252613103
4.188118308283084
4.181963836118102
4.181963836118102
4.181963836118102
4.163500419623101
4.120419114468088
4.1327280587980795
4.151191475293081
4.151191475293081
4.151191475293081
4.151191475293081
4.163500419623101
4.157345947458091
4.157345947458091
4.169654891788083
4.163500419623101
4.1758093639530935
4.1758093639530935
4.181963836118102
4.1758093639530935
4.151191475293081
4.157345947458091
4.181963836118102
4.188118308283084
4.2065817247780855
4.200427252613103
4.1942727804480935
4.1758093639530935
4.1758093639530935
4.188118308283084
4.1942727804480935
4.1942727804480935
4.181963836118102
4.181963836118102
4.163500419623101
4.163500419623101
4.169654891788083
4.169654891788083
4.163500419623101
4.1758093639530935
4.1758093639530935
4.1758093639530935
4.1758093639530935
4.163500419623101
4.169654891788083
4.169654891788083
4.1758093639530935
4.1758093639530935
4.1758093639530935
4.1758093639530935
4.169654891788083
4.181963836118102
4.225045141273086
4.292744335088111
4.354289056738125
4.391215889728128
4.40352483405812
4.354289056738125
4.292744335088111
4.218890669108104
4.1327280587980795
4.065028864983084
4.040410976323072
4.0711833371480655
4.089646753643067
4.138882530963089
4.169654891788083
4.1758093639530935
4.169654891788083
4.1758093639530935
4.181963836118102
4.181963836118102
4.1758093639530935
4.1758093639530935
4.1758093639530935
4.12657358663307
4.181963836118102
4.225045141273086
4.2065817247780855
4.2065817247780855
4.200427252613103
4.1942727804480935
4.188118308283084
4.145037003128072
4.145037003128072
4.163500419623101
4.169654891788083
4.181963836118102
4.181963836118102
4.181963836118102
4.1942727804480935
4.188118308283084
4.200427252613103
4.212736196943095
4.212736196943095
4.218890669108104
4.212736196943095
4.212736196943095
4.212736196943095
4.212736196943095
4.218890669108104
4.231199613438097
4.225045141273086
4.231199613438097
4.243508557768089
4.243508557768089
4.243508557768089
4.249663029933098
4.255817502098108
4.255817502098108
4.261971974263091
4.27428091859311
4.280435390758092
4.280435390758092
4.27428091859311
4.280435390758092
4.27428091859311
4.280435390758092
4.27428091859311
4.231199613438097
4.292744335088111
4.292744335088111
4.225045141273086
4.1942727804480935
4.200427252613103
4.200427252613103
4.181963836118102
4.1758093639530935
4.163500419623101
4.157345947458091
4.145037003128072
4.145037003128072
4.1327280587980795
4.1327280587980795
4.12657358663307
4.12657358663307
4.120419114468088
4.101955697973087
4.077337809313075
4.040410976323072
3.9727117825080476
3.8619312835380395
3.720378423743037
3.5172808422979926
3.277256427862973
2.7910531268278973
2.298695353627811
1.400142417537692
0.8585488670176111
-0.033849596907498114
-1.0862643371226666
-1.3509066402176972
-1.289361918567683
-1.1970448360926755
-1.0924188092876486
-0.9939472546476313
-0.9077846443376336
-0.8093130896976164
-0.7293049515526008
-0.6554512855725947
-0.575443147427579
-0.5077439536125827
-0.427735815467567
-0.360036621652543
-0.2984919000025288
-0.23694717835254234
-0.16309351237253633
-0.1015487907225221
-0.04615854123751762
0.009231708247514623
0.07693090206251085
0.1261666793825056
0.18771140103251985
0.2431016505175243
0.30464637216753854
0.35388214948756097
0.40311792680755576
0.4523537041275505
0.5015894814475731
0.5631342030975872
0.6062155082525723
0.6554512855725947
0.6985325907276074
0.7600773123775938
0.7908496732026148
0.8339309783576276
0.889321227842632
0.9324025329976448
0.9754838381526297
1.0308740876376343
1.073955392792647
1.1478090587726528
1.2708985020726815
1.6463213041377214
2.1079067165127863
2.372549019607845
2.5694921288878514
2.735662877342893
2.8649067928079033
2.9818417639429216
3.092622262912931
3.1972482897179573
3.283410900027955
3.3695735103379807
3.449581648482997
3.5172808422979926
3.591134508277999
3.652679229928013
3.720378423743037
3.7757686732280415
3.831158922713046
3.886549172198051
3.9296304773530633
3.9788662546730578
4.021947559828071
4.065028864983084
4.095801225808078
4.1327280587980795
4.181963836118102
4.218890669108104
4.237354085603107
4.2681264464281
4.298898807253093
4.323516695913104
4.360443528903107
4.421988250553122
4.458915083543125
4.471224027873144
4.495841916533128
4.501996388698137
4.520459805193139
4.538923221688139
4.557386638183142
4.575850054678144
4.5820045268431535
4.5943134711731455
4.6004679433381535
4.618931359833156
4.6435492484931675
4.649703720658149
4.649703720658149
4.612776887668146
4.717402914473173
4.7297118588031655
4.735866330968175
4.735866330968175
4.754329747463175
4.7297118588031655
4.711248442308165
4.735866330968175
4.748175275298167
4.754329747463175
4.766638691793168
4.809719996948181
4.889728135093197
4.975890745403193
5.0743623000432105
5.123598077363234
5.105134660868233
5.012817578393197
4.908191551588198
4.828183413443182
4.748175275298167
4.68047608148317
4.692785025813162
4.735866330968175
4.7912565804531795
4.858955774268176
4.883573662928187
4.883573662928187
4.889728135093197
4.883573662928187
4.889728135093197
4.895882607258178
4.908191551588198
4.902037079423188
4.908191551588198
4.908191551588198
4.908191551588198
4.91434602375318
4.91434602375318
4.883573662928187
4.846646829938185
4.748175275298167
4.7297118588031655
4.7297118588031655
4.662012664988168
4.618931359833156
4.6004679433381535
4.569695582513134
4.551232166018132
4.428142722718132
4.249663029933098
4.452760611378115
4.5820045268431535
4.649703720658149
4.692785025813162
4.7297118588031655
4.754329747463175
4.785102108288171
4.803565524783171
4.822028941278172
4.840492357773174
4.858955774268176
4.8651102464331855
4.889728135093197
4.902037079423188
4.92050049591819
4.9389639124131905
4.951272856743211
4.951272856743211
4.963581801073202
4.975890745403193
4.9881996897332135
4.9881996897332135
4.994354161898196
4.9881996897332135
4.686630553648152
3.8680857557030492
3.4311182319879947
2.4279392690928487
1.7263294422827367
1.1355001144426613
0.8400854505226096
0.8523943948526291
0.889321227842632
0.9447114773276367
1.0493375041326358
1.1601180031026725
1.5970855268177266
2.2925408814628288
2.680272627857888
2.9264515144579173
3.1233946237379517
3.271101955697964
3.4126548154929934
3.5172808422979926
3.609597924773
3.695760535083026
3.7696142010630322
3.837313394878028
3.9050125886930522
3.9604028381780574
4.021947559828071
4.083492281478085
4.12657358663307
4.1758093639530935
4.212736196943095
4.237354085603107
4.255817502098108
4.305053279418103
4.341980112408105
4.3727524732331275
4.40352483405812
4.434297194883113
4.458915083543125
4.483532972203136
4.495841916533128
4.5327687495231315
4.551232166018132
4.569695582513134
4.5943134711731455
4.5943134711731455
4.563541110348153
4.668167137153151
4.637394776328158
4.637394776328158
4.662012664988168
4.67432160931816
4.692785025813162
4.705093970143154
4.7297118588031655
4.735866330968175
4.7420208031331565
4.748175275298167
4.754329747463175
4.766638691793168
4.772793163958178
4.785102108288171
4.785102108288171
4.822028941278172
4.81587446911319
4.778947636123188
4.803565524783171
4.803565524783171
4.81587446911319
4.822028941278172
4.81587446911319
4.803565524783171
4.778947636123188
4.883573662928187
4.883573662928187
4.8651102464331855
4.871264718598195
4.871264718598195
4.8651102464331855
4.834337885608192
4.809719996948181
4.822028941278172
4.828183413443182
4.840492357773174
4.846646829938185
4.846646829938185
4.834337885608192
4.828183413443182
4.846646829938185
4.8528013021031935
4.8528013021031935
4.8651102464331855
4.8651102464331855
4.858955774268176
4.846646829938185
4.846646829938185
4.8651102464331855
4.902037079423188
4.902037079423188
4.908191551588198
4.902037079423188
4.883573662928187
4.883573662928187
4.883573662928187
4.883573662928187
4.877419190763177
4.871264718598195
4.858955774268176
4.846646829938185
4.840492357773174
4.834337885608192
4.828183413443182
4.840492357773174
4.834337885608192
4.822028941278172
4.828183413443182
4.822028941278172
4.828183413443182
4.822028941278172
4.822028941278172
4.822028941278172
4.81587446911319
4.809719996948181
4.81587446911319
4.822028941278172
4.834337885608192
4.883573662928187
4.975890745403193
5.043589939218219
5.06205335571322
5.0497444113832
4.969736273238212
4.889728135093197
4.809719996948181
4.698939497978172
4.631240304163148
4.637394776328158
4.662012664988168
4.686630553648152
4.748175275298167
4.785102108288171
4.785102108288171
4.760484219628157
4.772793163958178
4.778947636123188
4.778947636123188
4.772793163958178
4.766638691793168
4.772793163958178
4.772793163958178
4.772793163958178
4.772793163958178
4.766638691793168
4.766638691793168
4.766638691793168
4.766638691793168
4.760484219628157
4.760484219628157
4.760484219628157
4.760484219628157
4.760484219628157
4.754329747463175
4.754329747463175
4.760484219628157
4.760484219628157
4.748175275298167
4.754329747463175
4.7420208031331565
4.692785025813162
4.785102108288171
4.7912565804531795
4.778947636123188
4.766638691793168
4.7420208031331565
4.705093970143154
4.735866330968175
4.7420208031331565
4.754329747463175
4.760484219628157
4.766638691793168
4.772793163958178
4.766638691793168
4.772793163958178
4.772793163958178
4.772793163958178
4.778947636123188
4.772793163958178
4.772793163958178
4.772793163958178
4.766638691793168
4.766638691793168
4.766638691793168
4.766638691793168
4.754329747463175
4.7420208031331565
4.7297118588031655
4.711248442308165
4.686630553648152
4.67432160931816
4.655858192823159
4.649703720658149
4.631240304163148
4.612776887668146
4.6004679433381535
4.588158999008135
4.5820045268431535
4.5820045268431535
4.575850054678144
4.569695582513134
4.569695582513134
4.563541110348153
4.563541110348153
4.557386638183142
4.563541110348153
4.557386638183142
4.563541110348153
4.557386638183142
4.557386638183142
4.557386638183142
4.54507769385315
4.54507769385315
4.538923221688139
4.551232166018132
4.551232166018132
4.54507769385315
4.538923221688139
4.538923221688139
4.538923221688139
4.526614277358149
4.538923221688139
4.5327687495231315
4.526614277358149
4.54507769385315
4.5327687495231315
4.538923221688139
4.5327687495231315
4.526614277358149
4.526614277358149
4.520459805193139
4.520459805193139
4.520459805193139
4.526614277358149
4.526614277358149
4.526614277358149
4.514305333028129
4.508150860863147
4.508150860863147
4.520459805193139
4.520459805193139
4.520459805193139
4.514305333028129
4.501996388698137
4.501996388698137
4.514305333028129
4.508150860863147
4.501996388698137
4.508150860863147
4.495841916533128
4.495841916533128
4.495841916533128
4.489687444368147
4.495841916533128
4.489687444368147
4.489687444368147
4.489687444368147
4.483532972203136
4.489687444368147
4.471224027873144
4.483532972203136
4.477378500038126
4.483532972203136
4.477378500038126
4.471224027873144
4.477378500038126
4.471224027873144
4.465069555708134
4.465069555708134
4.465069555708134
4.471224027873144
4.458915083543125
4.458915083543125
4.471224027873144
4.471224027873144
4.471224027873144
4.465069555708134
4.458915083543125
4.452760611378115
4.458915083543125
4.483532972203136
4.471224027873144
4.415833778388112
4.446606139213133
4.440451667048122
4.440451667048122
4.446606139213133
4.440451667048122
4.440451667048122
4.434297194883113
4.428142722718132
4.40967930622313
4.421988250553122
4.415833778388112
4.40967930622313
4.40967930622313
4.40967930622313
4.421988250553122
4.428142722718132
4.421988250553122
4.415833778388112
4.415833778388112
4.415833778388112
4.421988250553122
4.40967930622313
4.40967930622313
4.397370361893111
4.397370361893111
4.415833778388112
4.465069555708134
4.538923221688139
4.612776887668146
4.662012664988168
4.6435492484931675
4.575850054678144
4.501996388698137
4.434297194883113
4.348134584573115
4.2681264464281
4.249663029933098
4.2865898629231
4.323516695913104
4.3727524732331275
4.40352483405812
4.40352483405812
4.385061417563119
4.37890694539811
4.391215889728128
4.391215889728128
4.397370361893111
4.391215889728128
4.391215889728128
4.397370361893111
4.40352483405812
4.40352483405812
4.40352483405812
4.40352483405812
4.40352483405812
4.397370361893111
4.40352483405812
4.40967930622313
4.40352483405812
4.397370361893111
4.397370361893111
4.397370361893111
4.391215889728128
4.40352483405812
4.415833778388112
4.415833778388112
4.421988250553122
4.415833778388112
4.415833778388112
4.415833778388112
4.415833778388112
4.421988250553122
4.428142722718132
4.428142722718132
4.428142722718132
4.434297194883113
4.440451667048122
4.446606139213133
4.452760611378115
4.458915083543125
4.458915083543125
4.465069555708134
4.477378500038126
4.489687444368147
4.477378500038126
4.483532972203136
4.477378500038126
4.483532972203136
4.483532972203136
4.483532972203136
4.489687444368147
4.483532972203136
4.477378500038126
4.465069555708134
4.391215889728128
4.465069555708134
4.465069555708134
4.434297194883113
4.40967930622313
4.40352483405812
4.385061417563119
4.354289056738125
4.305053279418103
4.298898807253093
4.305053279418103
4.298898807253093
4.305053279418103
4.298898807253093
4.305053279418103
4.298898807253093
4.3173622237481215
4.3173622237481215
4.3112077515831135
4.298898807253093
4.3112077515831135
4.3112077515831135
4.3112077515831135
4.305053279418103
4.298898807253093
4.305053279418103
4.2865898629231
4.243508557768089
4.335825640243124
4.329671168078114
4.3112077515831135
4.280435390758092
4.261971974263091
4.27428091859311
4.2865898629231
4.2865898629231
4.2865898629231
4.2865898629231
4.305053279418103
4.292744335088111
4.298898807253093
4.298898807253093
4.305053279418103
4.305053279418103
4.323516695913104
4.3112077515831135
4.3173622237481215
4.3112077515831135
4.3173622237481215
4.3112077515831135
4.3112077515831135
4.3173622237481215
4.3173622237481215
4.3173622237481215
4.305053279418103
4.305053279418103
4.3112077515831135
4.292744335088111
4.280435390758092
4.2865898629231
4.2865898629231
4.292744335088111
4.292744335088111
4.2865898629231
4.298898807253093
4.292744335088111
4.2865898629231
4.292744335088111
4.2865898629231
4.2865898629231
4.292744335088111
4.292744335088111
4.292744335088111
4.292744335088111
4.280435390758092
4.280435390758092
4.292744335088111
4.2865898629231
4.280435390758092
4.280435390758092
4.2865898629231
4.2865898629231
4.2865898629231
4.2865898629231
4.2865898629231
4.27428091859311
4.27428091859311
4.27428091859311
4.27428091859311
4.2865898629231
4.280435390758092
4.298898807253093
4.298898807253093
4.292744335088111
4.27428091859311
4.27428091859311
4.2865898629231
4.305053279418103
4.323516695913104
4.3112077515831135
4.3112077515831135
4.305053279418103
4.292744335088111
4.292744335088111
4.2865898629231
4.2865898629231
4.27428091859311
4.280435390758092
4.27428091859311
4.261971974263091
4.255817502098108
4.261971974263091
4.261971974263091
4.261971974263091
4.261971974263091
4.249663029933098
4.255817502098108
4.249663029933098
4.255817502098108
4.255817502098108
4.249663029933098
4.255817502098108
4.255817502098108
4.243508557768089
4.231199613438097
4.231199613438097
4.255817502098108
4.3173622237481215
4.40352483405812
4.471224027873144
4.501996388698137
4.495841916533128
4.415833778388112
4.335825640243124
4.243508557768089
4.157345947458091
4.095801225808078
4.101955697973087
4.1327280587980795
4.2065817247780855
4.261971974263091
4.255817502098108
4.261971974263091
4.2681264464281
4.261971974263091
4.243508557768089
4.255817502098108
4.261971974263091
4.243508557768089
4.188118308283084
4.292744335088111
4.298898807253093
4.292744335088111
4.2681264464281
4.261971974263091
4.2681264464281
4.249663029933098
4.2065817247780855
4.218890669108104
4.243508557768089
4.249663029933098
4.255817502098108
4.255817502098108
4.249663029933098
4.255817502098108
4.255817502098108
4.261971974263091
4.27428091859311
4.27428091859311
4.27428091859311
4.27428091859311
4.27428091859311
4.27428091859311
4.280435390758092
4.292744335088111
4.292744335088111
4.305053279418103
4.305053279418103
4.3112077515831135
4.3112077515831135
4.305053279418103
4.298898807253093
4.3173622237481215
4.323516695913104
4.329671168078114
4.335825640243124
4.341980112408105
4.348134584573115
4.341980112408105
4.348134584573115
4.354289056738125
4.366598001068117
4.354289056738125
4.360443528903107
4.354289056738125
4.335825640243124
4.3173622237481215
4.305053279418103
4.298898807253093
4.27428091859311
4.255817502098108
4.249663029933098
4.243508557768089
4.237354085603107
4.218890669108104
4.2065817247780855
4.200427252613103
4.2065817247780855
4.2065817247780855
4.1942727804480935
4.200427252613103
4.181963836118102
4.1758093639530935
4.1942727804480935
4.1942727804480935
4.181963836118102
4.181963836118102
4.1758093639530935
4.1758093639530935
4.181963836118102
4.1758093639530935
4.1758093639530935
4.163500419623101
4.1758093639530935
4.169654891788083
4.181963836118102
4.1758093639530935
4.181963836118102
4.181963836118102
4.1758093639530935
4.1758093639530935
4.188118308283084
4.181963836118102
4.188118308283084
4.188118308283084
4.1942727804480935
4.188118308283084
4.188118308283084
4.181963836118102
4.188118308283084
4.181963836118102
4.181963836118102
4.188118308283084
4.181963836118102
4.188118308283084
4.181963836118102
4.181963836118102
4.188118308283084
4.188118308283084
4.1942727804480935
4.1942727804480935
4.1758093639530935
4.163500419623101
4.169654891788083
4.1758093639530935
4.169654891788083
4.169654891788083
4.1758093639530935
4.169654891788083
4.163500419623101
4.163500419623101
4.163500419623101
4.169654891788083
4.163500419623101
4.169654891788083
4.169654891788083
4.157345947458091
4.163500419623101
4.1758093639530935
4.1758093639530935
4.157345947458091
4.114264642303079
4.200427252613103
4.200427252613103
4.151191475293081
4.138882530963089
4.151191475293081
4.145037003128072
4.157345947458091
4.163500419623101
4.157345947458091
4.163500419623101
4.163500419623101
4.163500419623101
4.163500419623101
4.169654891788083
4.169654891788083
4.169654891788083
4.163500419623101
4.163500419623101
4.169654891788083
4.169654891788083
4.169654891788083
4.163500419623101
4.169654891788083
4.163500419623101
4.169654891788083
4.1758093639530935
4.1758093639530935
4.169654891788083
4.163500419623101
4.157345947458091
4.181963836118102
4.2065817247780855
4.2065817247780855
4.2065817247780855
4.1942727804480935
4.1942727804480935
4.188118308283084
4.181963836118102
4.188118308283084
4.181963836118102
4.1758093639530935
4.120419114468088
4.108110170138069
4.2065817247780855
4.1942727804480935
4.181963836118102
4.1758093639530935
4.1758093639530935
4.163500419623101
4.12657358663307
4.114264642303079
4.1327280587980795
4.138882530963089
4.151191475293081
4.151191475293081
4.151191475293081
4.151191475293081
4.138882530963089
4.145037003128072
4.157345947458091
4.200427252613103
4.280435390758092
4.360443528903107
4.40967930622313
4.421988250553122
4.360443528903107
4.280435390758092
4.188118308283084
4.089646753643067
4.009638615498079
3.9911751990030497
4.021947559828071
4.0711833371480655
4.1327280587980795
4.163500419623101
4.138882530963089
4.114264642303079
4.095801225808078
4.065028864983084
4.052719920653064
4.034256504158063
4.015793087663061
4.021947559828071
4.015793087663061
4.009638615498079
3.9973296711680604
3.9788662546730578
3.9542483660130467
3.9604028381780574
3.9604028381780574
3.9665573103430654
3.9727117825080476
3.9604028381780574
3.9665573103430654
3.9665573103430654
3.9665573103430654
3.9604028381780574
3.9542483660130467
3.9604028381780574
3.9665573103430654
3.9727117825080476
3.9727117825080476
3.9665573103430654
3.9665573103430654
3.948093893848065
3.9604028381780574
3.9788662546730578
3.9727117825080476
3.9727117825080476
3.9788662546730578
3.9788662546730578
3.9850207268380675
3.9727117825080476
3.9850207268380675
3.9727117825080476
3.9850207268380675
3.9911751990030497
4.009638615498079
4.015793087663061
4.009638615498079
3.9850207268380675
3.9727117825080476
4.034256504158063
4.040410976323072
4.034256504158063
4.034256504158063
4.021947559828071
3.9973296711680604
3.9419394216830552
3.9296304773530633
3.9234760051880535
3.8988581165280416
3.8434678670430373
3.763459728898022
3.628061341268002
3.35111009384298
2.6987360443528896
1.1539635309376628
-0.7908496732026148
-1.5663131659927332
-1.5663131659927332
-1.473996083517698
-1.3816790010426905
-1.2832074464026733
-1.1724269474326645
-1.0862643371226666
-1.000101726812641
-0.9200935886676254
-0.8277765061926179
-0.7539228402126119
-0.6862236463975879
-0.6185244525825918
-0.5446707866025856
-0.4708171206225797
-0.396963454642546
-0.3415732051575415
-0.2738740113425453
-0.21232928969253104
-0.16309351237253633
-0.09539431855751236
-0.02769512474251612
0.02769512474251612
0.08923984639250258
0.13232115154751534
0.1938658731975296
0.2431016505175243
0.29233742783754685
0.3415732051575415
0.40927239897256545
0.47697159278756174
0.5200528979425745
0.5631342030975872
0.6123699804175821
0.6616057577376044
0.7108415350575992
0.7539228402126119
0.7908496732026148
0.8339309783576276
0.8831667556776225
0.9262480608326351
0.9570204216576284
1.000101726812641
1.0185651433076426
1.0431830319676536
1.0801098649576568
1.1539635309376628
1.1908903639276658
1.215508252587677
1.2585895577426898
1.2955163907326928
1.3324432237226955
1.3755245288776807
1.4124513618677115
1.4432237226927047
1.467841611352716
1.504768444342719
1.5540042216627135
1.5847765824877347
1.6093944711477182
1.6524757763027311
1.6955570814577436
1.7447928587777384
1.8124920525927626
1.89865466290276
1.966353856717784
2.052516467027782
2.1448335495027893
2.2309961598128147
2.329467714452832
2.378703491772827
2.409475852597848
2.446402685587851
2.4894839907428636
2.5141018794028467
2.544874240227868
2.5694921288878514
2.6002644897128726
2.612573434042864
2.6433457948678853
2.661809211362886
2.6925815721878803
2.704890516517872
2.723353933012873
2.7418173495078744
2.760280766002876
2.766435238167886
2.760280766002876
2.7418173495078744
2.723353933012873
2.6987360443528896
2.6925815721878803
2.6925815721878803
2.704890516517872
2.711044988682881
2.704890516517872
2.704890516517872
2.723353933012873
2.754126293837894
2.7848986546628876
2.7848986546628876
2.797207598992907
2.797207598992907
2.7910531268278973
2.766435238167886
2.8525978484779113
2.8218254876528905
2.8156710154879088
2.8218254876528905
2.83413443198291
2.8402889041478923
2.8649067928079033
2.871061264972913
2.883370209302905
2.907988097962916
2.9387604587879093
2.9572238752829105
2.9818417639429216
3.006459652602933
3.0249230690979347
3.049540957757918
3.074158846417929
3.080313318582939
3.1049312072429505
3.1110856794079322
3.1295490959029335
3.1357035680679433
3.2034027618829395
3.308028788687967
3.418809287657976
3.511126370132983
3.6034434526080172
3.6219068691030203
3.578825563948007
3.5172808422979926
3.4434271763179867
3.381882454667973
3.357264566007961
3.3880369268329824
3.4434271763179867
3.4988174258029914
3.5665166196180156
3.5849800361130173
3.6034434526080172
3.6034434526080172
3.61575239693801
3.628061341268002
3.640370285598021
3.6465247577630033
3.658833702093023
3.671142646423015
3.671142646423015
3.677297118588024
3.6896060629180156
3.695760535083026
3.7080694794130173
3.7265328959080186
3.732687368073029
3.7449963124030208
3.763459728898022
3.781923145393024
3.8065410340530352
3.837313394878028
3.8619312835380395
3.9111670608580615
4.065028864983084
4.2681264464281
4.465069555708134
4.625085831998166
4.717402914473173
4.797411052618189
4.877419190763177
4.945118384578201
4.9881996897332135
5.037435467053208
5.086671244373231
5.129752549528216
5.172833854683229
5.2220696320032225
5.258996464993254
5.283614353653238
5.3143867144782595
5.351313547468262
5.375931436128245
5.394394852623274
5.425167213448267
5.455939574273261
5.468248518603279
5.505175351593283
5.548256656748296
5.554411128913278
5.560565601078289
5.560565601078289
5.560565601078289
5.548256656748296
5.560565601078289
5.554411128913278
5.548256656748296
5.554411128913278
5.535947712418277
5.523638768088285
5.529793240253267
5.517484295923275
5.511329823758264
5.511329823758264
5.499020879428274
5.492866407263264
5.492866407263264
5.480557462933272
5.474402990768262
5.486711935098282
5.480557462933272
5.474402990768262
5.480557462933272
5.486711935098282
5.474402990768262
5.425167213448267
5.505175351593283
5.517484295923275
5.511329823758264
5.505175351593283
5.499020879428274
5.505175351593283
5.480557462933272
5.431321685613277
5.431321685613277
5.412858269118276
5.480557462933272
5.492866407263264
5.474402990768262
5.4620940464382715
5.437476157778259
5.394394852623274
5.406703796953265
5.425167213448267
5.425167213448267
5.431321685613277
5.431321685613277
5.431321685613277
5.431321685613277
5.431321685613277
5.437476157778259
5.425167213448267
5.425167213448267
5.425167213448267
5.425167213448267
5.419012741283257
5.406703796953265
5.412858269118276
5.406703796953265
5.4005493247882566
5.406703796953265
5.4005493247882566
5.388240380458265
5.388240380458265
5.375931436128245
5.382085908293255
5.369776963963263
5.369776963963263
5.357468019633243
5.357468019633243
5.357468019633243
5.345159075303252
5.326695658808251
5.357468019633243
5.375931436128245
5.351313547468262
5.3390046031382425
5.33285013097326
5.289768825818246
5.258996464993254
5.271305409323245
5.271305409323245
5.271305409323245
5.258996464993254
5.246687520663236
5.234378576333243
5.228224104168233
5.2220696320032225
5.203606215508222
5.172833854683229
5.160524910353237
5.135907021693225
5.098980188703223
5.080516772208221
5.05589888354821
5.031280994888199
5.025126522723218
5.012817578393197
5.000508634063205
5.000508634063205
4.994354161898196
4.9881996897332135
4.9881996897332135
4.982045217568204
4.9881996897332135
4.994354161898196
5.012817578393197
5.0497444113832
5.080516772208221
5.098980188703223
5.105134660868233
5.129752549528216
5.160524910353237
5.154370438188227
5.154370438188227
5.148215966023217
5.148215966023217
5.129752549528216
5.111289133033214
5.105134660868233
5.105134660868233
5.092825716538213
5.092825716538213
5.080516772208221
5.0743623000432105
5.068207827878203
5.043589939218219
5.037435467053208
5.037435467053208
5.043589939218219
5.031280994888199
5.025126522723218
5.025126522723218
5.018972050558207
5.000508634063205
4.994354161898196
5.012817578393197
5.068207827878203
5.123598077363234
5.19129727117823
5.21591515983824
5.209760687673231
5.142061493858235
5.05589888354821
4.969736273238212
4.883573662928187
4.809719996948181
4.7912565804531795
4.822028941278172
4.8528013021031935
4.895882607258178
4.9266549680832
4.9389639124131905
4.957427328908192
4.957427328908192
4.9389639124131905
4.9266549680832
4.883573662928187
4.902037079423188
4.895882607258178
4.908191551588198
4.908191551588198
4.908191551588198
4.908191551588198
4.908191551588198
4.895882607258178
4.895882607258178
4.8651102464331855
4.871264718598195
4.877419190763177
4.877419190763177
4.871264718598195
4.871264718598195
4.889728135093197
4.877419190763177
4.871264718598195
4.8651102464331855
4.877419190763177
4.871264718598195
4.871264718598195
4.871264718598195
4.8651102464331855
4.871264718598195
4.871264718598195
4.871264718598195
4.871264718598195
4.871264718598195
4.8651102464331855
4.871264718598195
4.871264718598195
4.871264718598195
4.883573662928187
4.871264718598195
4.871264718598195
4.877419190763177
4.871264718598195
4.877419190763177
4.871264718598195
4.883573662928187
4.883573662928187
4.871264718598195
4.871264718598195
4.8651102464331855
4.8651102464331855
4.8528013021031935
4.834337885608192
4.828183413443182
4.81587446911319
4.828183413443182
4.803565524783171
4.772793163958178
4.754329747463175
4.7420208031331565
4.717402914473173
4.717402914473173
4.705093970143154
4.705093970143154
4.692785025813162
4.686630553648152
4.668167137153151
4.668167137153151
4.67432160931816
4.631240304163148
4.637394776328158
4.637394776328158
4.637394776328158
4.637394776328158
4.637394776328158
4.631240304163148
4.625085831998166
4.625085831998166
4.625085831998166
4.631240304163148
4.625085831998166
4.631240304163148
4.637394776328158
4.631240304163148
4.631240304163148
4.631240304163148
4.631240304163148
4.618931359833156
4.618931359833156
4.612776887668146
4.618931359833156
4.606622415503137
4.606622415503137
4.6004679433381535
4.6004679433381535
4.6004679433381535
4.569695582513134
4.563541110348153
4.551232166018132
4.551232166018132
4.538923221688139
4.508150860863147
4.477378500038126
4.465069555708134
4.428142722718132
4.305053279418103
4.077337809313075
3.2280206505429514
1.104727753617668
0.1384756237125251
0.1261666793825056
0.2000203453625393
0.2738740113425453
0.3354187329925596
0.40311792680755576
0.4708171206225797
0.5446707866025856
0.6062155082525723
0.6677602299025863
0.7108415350575992
0.7723862567076134
0.8277765061926179
0.8708578113476306
0.9324025329976448
0.9816383103176396
1.0124106711426328
1.0370285598026439
1.1478090587726528
1.178581419597674
1.215508252587677
1.2339716690826785
1.2462806134126705
1.3078253350626845
1.3447521680526875
1.3878334732077002
1.4309147783627132
1.467841611352716
1.4986139721777092
1.5293863330027024
1.5663131659927332
1.6093944711477182
1.6463213041377214
1.683248137127724
1.7263294422827367
1.757101803107758
1.7940286360977609
1.8124920525927626
1.855573357747775
1.892500190737778
1.9171180793977614
1.954044912387765
1.9848172732127856
2.003280689707787
2.0278985783677985
2.0586709391927913
2.089443300017785
2.1263701330077875
2.1571424938328088
2.1817603824928202
2.224841687647805
2.2371506319778245
2.249459576307816
2.2679229928028177
2.3171587701228398
2.3663945474428347
2.403321380432838
2.4217847969278394
2.4279392690928487
2.4402482134228407
2.4648661020828517
2.483329518577854
2.501792935072855
2.5141018794028467
2.5325652958978484
2.544874240227868
2.563337656722869
2.587955545382853
2.6002644897128726
2.624882378372884
2.649500267032867
2.667963683527869
2.680272627857888
2.6987360443528896
2.723353933012873
2.7418173495078744
2.7171994608478913
2.772589710332896
2.83413443198291
2.8402889041478923
2.8464433763129016
2.858752320642893
2.877215737137895
2.901833625797906
2.9387604587879093
3.0249230690979347
3.117240151572942
3.1726304010579467
3.160321456727955
3.1110856794079322
3.0618499020879373
2.994150708272913
2.9202970422929075
2.877215737137895
2.901833625797906
2.9633783474479203
3.0249230690979347
3.080313318582939
3.1049312072429505
3.117240151572942
3.1233946237379517
3.1480125123979352
3.166475928892937
3.178784873222956
3.1849393453879378
3.2095572340479492
3.215711706212959
3.2280206505429514
3.2403295948729705
3.264947483532954
3.283410900027955
3.2957198443579747
3.308028788687967
3.3203377330179586
3.3264922051829684
3.3388011495129604
3.357264566007961
3.3695735103379807
3.375727982502963
3.3880369268329824
3.400345871162974
3.418809287657976
3.4311182319879947
3.4311182319879947
3.4311182319879947
3.449581648482997
3.461890592812989
3.486508481473
3.4988174258029914
3.5172808422979926
3.529589786627985
3.548053203123014
3.5665166196180156
3.5972889804430093
3.609597924773
3.658833702093023
3.738841840238039
3.9419394216830552
4.163500419623101
4.255817502098108
4.489687444368147
4.6004679433381535
4.655858192823159
4.723557386638155
4.778947636123188
4.834337885608192
4.871264718598195
4.871264718598195
4.908191551588198
4.963581801073202
5.000508634063205
5.012817578393197
5.031280994888199
5.0497444113832
5.06205335571322
5.0743623000432105
5.092825716538213
5.098980188703223
5.105134660868233
5.111289133033214
5.123598077363234
5.123598077363234
5.135907021693225
5.148215966023217
5.160524910353237
5.160524910353237
5.178988326848239
5.185142799013221
5.19745174334324
5.19745174334324
5.209760687673231
5.21591515983824
5.2220696320032225
5.234378576333243
5.246687520663236
5.252841992828244
5.258996464993254
5.265150937158236
5.265150937158236
5.283614353653238
5.277459881488256
5.283614353653238
5.289768825818246
5.302077770148239
5.295923297983257
5.295923297983257
5.302077770148239
5.308232242313249
5.308232242313249
5.3143867144782595
5.3143867144782595
5.3143867144782595
5.320541186643241
5.326695658808251
5.326695658808251
5.33285013097326
5.320541186643241
5.320541186643241
5.3143867144782595
5.3143867144782595
5.3143867144782595
5.3143867144782595
5.302077770148239
5.320541186643241
5.308232242313249
5.302077770148239
5.295923297983257
5.289768825818246
5.289768825818246
5.289768825818246
5.289768825818246
5.289768825818246
5.283614353653238
5.277459881488256
5.277459881488256
5.271305409323245
5.258996464993254
5.234378576333243
5.117443605198224
4.637394776328158
3.264947483532954
2.329467714452832
2.298695353627811
2.3171587701228398
2.347931130947833
2.3848579639378364
2.4279392690928487
2.4587116299178424
2.4894839907428636
2.526410823732866
2.55102871239285
2.587955545382853
2.606418961877855
2.631036850537866
2.667963683527869
2.680272627857888
2.704890516517872
2.729508405177883
2.754126293837894
2.778744182497905
2.7910531268278973
2.8095165433228986
2.8279799598179
2.8464433763129016
2.8649067928079033
2.8895246814679143
2.895679153632896
2.9202970422929075
2.932605986622927
2.9510694031179288
2.96953281961293
2.9818417639429216
3.006459652602933
3.018768596932925
3.0372320134279267
3.049540957757918
3.0680043742529195
3.074158846417929
3.0987767350779407
3.1110856794079322
3.117240151572942
3.117240151572942
3.2034027618829395
3.215711706212959
3.2034027618829395
3.1849393453879378
3.2095572340479492
3.215711706212959
3.234175122707961
3.264947483532954
3.301874316522957
3.3141832608529764
3.3141832608529764
3.332646677347978
3.332646677347978
3.3264922051829684
3.3388011495129604
3.35111009384298
3.357264566007961
3.3695735103379807
3.3695735103379807
3.381882454667973
3.3880369268329824
3.400345871162974
3.400345871162974
3.4126548154929934
3.4311182319879947
3.437272704152977
3.437272704152977
3.4557361206479786
3.468045064977998
3.4741995371429804
3.48035400930799
3.4926629536379816
3.4926629536379816
3.4988174258029914
3.504971897968001
3.5234353144630024
3.554207675287996
3.634215813433012
3.7265328959080186
3.800386561888025
3.837313394878028
3.8065410340530352
3.720378423743037
3.640370285598021
3.560362147453006
3.48035400930799
3.437272704152977
3.449581648482997
3.4988174258029914
3.554207675287996
3.628061341268002
3.640370285598021
3.6465247577630033
3.6649881742580046
3.671142646423015
3.6834515907530063
3.6896060629180156
3.6896060629180156
3.701915007248036
3.7080694794130173
3.7142239515780275
3.7142239515780275
3.720378423743037
3.7449963124030208
3.7449963124030208
3.738841840238039
3.75115078456803
3.7449963124030208
3.75115078456803
3.75730525673304
3.7757686732280415
3.7757686732280415
3.788077617558033
3.788077617558033
3.800386561888025
3.8188499783830263
3.825004450548036
3.831158922713046
3.8434678670430373
3.8434678670430373
3.855776811373057
3.8619312835380395
3.8680857557030492
3.886549172198051
3.8988581165280416
3.8988581165280416
3.9050125886930522
3.9234760051880535
3.9234760051880535
3.9296304773530633
3.9542483660130467
3.9604028381780574
3.9727117825080476
3.9727117825080476
3.9850207268380675
3.9973296711680604
4.003484143333068
4.015793087663061
4.015793087663061
4.021947559828071
4.028102031993082
4.034256504158063
4.034256504158063
4.040410976323072
4.028102031993082
4.034256504158063
4.028102031993082
4.009638615498079
3.9911751990030497
3.9727117825080476
3.9604028381780574
3.9542483660130467
3.9357849495180455
3.9357849495180455
3.9296304773530633
3.9173215330230438
3.9173215330230438
3.9173215330230438
3.9173215330230438
3.9173215330230438
3.8988581165280416
3.8803947000330408
3.9604028381780574
3.9604028381780574
3.948093893848065
3.9419394216830552
3.9419394216830552
3.9111670608580615
3.831158922713046
3.9357849495180455
3.9542483660130467
3.9542483660130467
3.948093893848065
3.948093893848065
3.9542483660130467
3.9357849495180455
3.9050125886930522
3.9173215330230438
3.9419394216830552
3.9419394216830552
3.9542483660130467
3.9604028381780574
3.9727117825080476
3.9665573103430654
3.9665573103430654
3.9788662546730578
3.9850207268380675
3.9911751990030497
3.9911751990030497
3.9973296711680604
4.003484143333068
4.009638615498079
4.003484143333068
4.009638615498079
4.003484143333068
3.9973296711680604
4.003484143333068
4.009638615498079
4.015793087663061
4.009638615498079
4.015793087663061
4.009638615498079
4.009638615498079
4.003484143333068
3.9973296711680604
4.009638615498079
4.009638615498079
4.003484143333068
3.9727117825080476
3.9419394216830552
3.9234760051880535
3.9050125886930522
3.886549172198051
3.8803947000330408
3.8619312835380395
3.8496223392080475
3.8434678670430373
3.831158922713046
3.8188499783830263
3.8188499783830263
3.825004450548036
3.8188499783830263
3.8126955062180454
3.800386561888025
3.8065410340530352
3.800386561888025
3.800386561888025
3.7942320897230433
3.7942320897230433
3.7942320897230433
3.788077617558033
3.7942320897230433
3.8065410340530352
3.7942320897230433
3.781923145393024
3.788077617558033
3.781923145393024
3.788077617558033
3.7757686732280415
3.781923145393024
3.7757686732280415
3.788077617558033
3.7757686732280415
3.7757686732280415
3.7696142010630322
3.763459728898022
3.763459728898022
3.7696142010630322
3.763459728898022
3.7757686732280415
3.7757686732280415
3.7757686732280415
3.7696142010630322
3.7757686732280415
3.7696142010630322
3.7757686732280415
3.7757686732280415
3.7757686732280415
3.7757686732280415
3.788077617558033
3.800386561888025
3.800386561888025
3.8126955062180454
3.831158922713046
3.8619312835380395
3.9173215330230438
3.948093893848065
3.9604028381780574
3.9665573103430654
4.009638615498079
4.077337809313075
4.145037003128072
4.169654891788083
4.169654891788083
4.181963836118102
4.188118308283084
4.200427252613103
4.1942727804480935
4.200427252613103
4.2065817247780855
4.212736196943095
4.218890669108104
4.212736196943095
4.1758093639530935
4.249663029933098
4.218890669108104
4.188118308283084
4.200427252613103
4.200427252613103
4.212736196943095
4.212736196943095
4.212736196943095
4.212736196943095
4.212736196943095
4.200427252613103
4.188118308283084
4.1942727804480935
4.212736196943095
4.27428091859311
4.37890694539811
4.452760611378115
4.501996388698137
4.471224027873144
4.385061417563119
4.2865898629231
4.188118308283084
4.083492281478085
4.009638615498079
4.015793087663061
4.0465654484880815
4.083492281478085
4.151191475293081
4.1758093639530935
4.1758093639530935
4.181963836118102
4.1758093639530935
4.1758093639530935
4.1758093639530935
4.1758093639530935
4.181963836118102
4.1758093639530935
4.188118308283084
4.188118308283084
4.181963836118102
4.188118308283084
4.181963836118102
4.181963836118102
4.181963836118102
4.188118308283084
4.1942727804480935
4.1942727804480935
4.1942727804480935
4.1942727804480935
4.2065817247780855
4.200427252613103
4.2065817247780855
4.200427252613103
4.2065817247780855
4.2065817247780855
4.2065817247780855
4.200427252613103
4.2065817247780855
4.212736196943095
4.218890669108104
4.218890669108104
4.225045141273086
4.225045141273086
4.237354085603107
4.237354085603107
4.243508557768089
4.243508557768089
4.249663029933098
4.255817502098108
4.2681264464281
4.27428091859311
4.292744335088111
4.292744335088111
4.298898807253093
4.329671168078114
4.354289056738125
4.495841916533128
4.717402914473173
4.846646829938185
4.932809440248209
5.000508634063205
5.0497444113832
5.086671244373231
5.129752549528216
5.160524910353237
5.172833854683229
5.19129727117823
5.19129727117823
5.209760687673231
5.21591515983824
5.2220696320032225
5.234378576333243
5.246687520663236
5.252841992828244
5.258996464993254
5.271305409323245
5.283614353653238
5.277459881488256
5.289768825818246
5.302077770148239
5.3143867144782595
5.326695658808251
5.33285013097326
5.326695658808251
5.345159075303252
5.351313547468262
5.351313547468262
5.357468019633243
5.363622491798253
5.369776963963263
5.375931436128245
5.369776963963263
5.375931436128245
5.382085908293255
5.394394852623274
5.394394852623274
5.394394852623274
5.394394852623274
5.388240380458265
5.394394852623274
5.382085908293255
5.351313547468262
5.419012741283257
5.419012741283257
5.412858269118276
5.406703796953265
5.388240380458265
5.351313547468262
5.363622491798253
5.375931436128245
5.375931436128245
5.388240380458265
5.388240380458265
5.382085908293255
5.375931436128245
5.375931436128245
5.375931436128245
5.382085908293255
5.388240380458265
5.382085908293255
5.382085908293255
5.375931436128245
5.363622491798253
5.363622491798253
5.363622491798253
5.357468019633243
5.351313547468262
5.351313547468262
5.351313547468262
5.345159075303252
5.33285013097326
5.326695658808251
5.320541186643241
5.326695658808251
5.320541186643241
5.3143867144782595
5.3143867144782595
5.308232242313249
5.295923297983257
5.295923297983257
5.295923297983257
5.295923297983257
5.289768825818246
5.277459881488256
5.271305409323245
5.271305409323245
5.271305409323245
5.265150937158236
5.265150937158236
5.258996464993254
5.246687520663236
5.252841992828244
5.2405330484982535
5.2405330484982535
5.228224104168233
5.228224104168233
5.228224104168233
5.2220696320032225
5.21591515983824
5.203606215508222
5.19129727117823
5.185142799013221
5.19129727117823
5.185142799013221
5.185142799013221
5.19745174334324
5.178988326848239
5.178988326848239
5.178988326848239
5.160524910353237
5.166679382518219
5.166679382518219
5.154370438188227
5.160524910353237
5.160524910353237
5.148215966023217
5.135907021693225
5.0743623000432105
5.148215966023217
5.178988326848239
5.178988326848239
5.178988326848239
5.160524910353237
5.148215966023217
5.129752549528216
5.080516772208221
5.080516772208221
5.086671244373231
5.080516772208221
5.068207827878203
5.068207827878203
5.06205335571322
5.05589888354821
5.043589939218219
5.05589888354821
5.0497444113832
5.043589939218219
5.037435467053208
5.037435467053208
5.037435467053208
5.018972050558207
5.006663106228215
5.012817578393197
5.006663106228215
5.006663106228215
5.000508634063205
4.994354161898196
5.012817578393197
5.06205335571322
5.148215966023217
5.21591515983824
5.246687520663236
5.209760687673231
5.129752549528216
5.06205335571322
4.963581801073202
4.858955774268176
4.797411052618189
4.778947636123188
4.809719996948181
4.822028941278172
4.858955774268176
4.883573662928187
4.877419190763177
4.902037079423188
4.895882607258178
4.908191551588198
4.91434602375318
4.91434602375318
4.908191551588198
4.908191551588198
4.908191551588198
4.908191551588198
4.91434602375318
4.91434602375318
4.908191551588198
4.908191551588198
4.91434602375318
4.902037079423188
4.902037079423188
4.889728135093197
4.902037079423188
4.908191551588198
4.895882607258178
4.902037079423188
4.908191551588198
4.895882607258178
4.895882607258178
4.902037079423188
4.902037079423188
4.895882607258178
4.895882607258178
4.895882607258178
4.889728135093197
4.889728135093197
4.895882607258178
4.895882607258178
4.895882607258178
4.902037079423188
4.895882607258178
4.895882607258178
4.902037079423188
4.908191551588198
4.902037079423188
4.902037079423188
4.908191551588198
4.902037079423188
4.908191551588198
4.908191551588198
4.91434602375318
4.908191551588198
4.902037079423188
4.908191551588198
4.902037079423188
4.902037079423188
4.889728135093197
4.889728135093197
4.871264718598195
4.846646829938185
4.828183413443182
4.81587446911319
4.797411052618189
4.778947636123188
4.760484219628157
4.748175275298167
4.735866330968175
4.711248442308165
4.723557386638155
4.717402914473173
4.705093970143154
4.705093970143154
4.698939497978172
4.692785025813162
4.686630553648152
4.68047608148317
4.686630553648152
4.686630553648152
4.68047608148317
4.668167137153151
4.668167137153151
4.67432160931816
4.668167137153151
4.655858192823159
4.662012664988168
4.668167137153151
4.655858192823159
4.662012664988168
4.655858192823159
4.655858192823159
4.655858192823159
4.649703720658149
4.662012664988168
4.662012664988168
4.655858192823159
4.649703720658149
4.655858192823159
4.655858192823159
4.649703720658149
4.6435492484931675
4.649703720658149
4.649703720658149
4.6435492484931675
4.637394776328158
4.637394776328158
4.6435492484931675
4.631240304163148
4.631240304163148
4.637394776328158
4.637394776328158
4.631240304163148
4.631240304163148
4.618931359833156
4.612776887668146
4.612776887668146
4.606622415503137
4.612776887668146
4.606622415503137
4.606622415503137
4.5943134711731455
4.5943134711731455
4.6004679433381535
4.588158999008135
4.588158999008135
4.5943134711731455
4.575850054678144
4.538923221688139
4.618931359833156
4.612776887668146
4.612776887668146
4.575850054678144
4.557386638183142
4.575850054678144
4.5820045268431535
4.5820045268431535
4.569695582513134
4.569695582513134
4.575850054678144
4.563541110348153
4.563541110348153
4.563541110348153
4.569695582513134
4.563541110348153
4.563541110348153
4.563541110348153
4.54507769385315
4.5327687495231315
4.538923221688139
4.54507769385315
4.538923221688139
4.538923221688139
4.538923221688139
4.54507769385315
4.5327687495231315
4.5327687495231315
4.538923221688139
4.538923221688139
4.538923221688139
4.5327687495231315
4.538923221688139
4.54507769385315
4.538923221688139
4.538923221688139
4.54507769385315
4.54507769385315
4.5327687495231315
4.520459805193139
4.5327687495231315
4.538923221688139
4.557386638183142
4.557386638183142
4.551232166018132
4.54507769385315
4.5327687495231315
4.5327687495231315
4.5327687495231315
4.526614277358149
4.514305333028129
4.508150860863147
4.495841916533128
4.501996388698137
4.495841916533128
4.489687444368147
4.495841916533128
4.489687444368147
4.483532972203136
4.489687444368147
4.489687444368147
4.489687444368147
4.483532972203136
4.495841916533128
4.483532972203136
4.477378500038126
4.465069555708134
4.471224027873144
4.458915083543125
4.483532972203136
4.5327687495231315
4.606622415503137
4.67432160931816
4.711248442308165
4.698939497978172
4.637394776328158
4.563541110348153
4.483532972203136
4.391215889728128
4.323516695913104
4.3112077515831135
4.329671168078114
4.366598001068117
4.421988250553122
4.446606139213133
4.452760611378115
4.452760611378115
4.477378500038126
4.465069555708134
4.465069555708134
4.458915083543125
4.458915083543125
4.458915083543125
4.458915083543125
4.452760611378115
4.452760611378115
4.458915083543125
4.446606139213133
4.446606139213133
4.446606139213133
4.446606139213133
4.428142722718132
4.440451667048122
4.440451667048122
4.446606139213133
4.440451667048122
4.446606139213133
4.458915083543125
4.465069555708134
4.458915083543125
4.465069555708134
4.465069555708134
4.465069555708134
4.465069555708134
4.471224027873144
4.477378500038126
4.477378500038126
4.483532972203136
4.483532972203136
4.489687444368147
4.471224027873144
4.434297194883113
4.526614277358149
4.5327687495231315
4.538923221688139
4.526614277358149
4.5327687495231315
4.538923221688139
4.526614277358149
4.477378500038126
4.489687444368147
4.508150860863147
4.514305333028129
4.520459805193139
4.526614277358149
4.520459805193139
4.520459805193139
4.508150860863147
4.501996388698137
4.489687444368147
4.477378500038126
4.471224027873144
4.452760611378115
4.434297194883113
4.397370361893111
4.348134584573115
4.440451667048122
4.421988250553122
4.40967930622313
4.397370361893111
4.37890694539811
4.3727524732331275
4.335825640243124
4.3173622237481215
4.329671168078114
4.354289056738125
4.354289056738125
4.354289056738125
4.360443528903107
4.348134584573115
4.341980112408105
4.354289056738125
4.348134584573115
4.348134584573115
4.354289056738125
4.354289056738125
4.354289056738125
4.360443528903107
4.341980112408105
4.329671168078114
4.329671168078114
4.341980112408105
4.348134584573115
4.348134584573115
4.354289056738125
4.354289056738125
4.354289056738125
4.348134584573115
4.354289056738125
4.354289056738125
4.354289056738125
4.348134584573115
4.354289056738125
4.366598001068117
4.360443528903107
4.360443528903107
4.354289056738125
4.354289056738125
4.366598001068117
4.366598001068117
4.360443528903107
4.348134584573115
4.354289056738125
4.354289056738125
4.354289056738125
4.360443528903107
4.360443528903107
4.354289056738125
4.360443528903107
4.354289056738125
4.354289056738125
4.360443528903107
4.360443528903107
4.354289056738125
4.354289056738125
4.348134584573115
4.348134584573115
4.329671168078114
4.335825640243124
4.341980112408105
4.341980112408105
4.329671168078114
4.335825640243124
4.329671168078114
4.335825640243124
4.335825640243124
4.323516695913104
4.323516695913104
4.335825640243124
4.329671168078114
4.329671168078114
4.329671168078114
4.329671168078114
4.323516695913104
4.3173622237481215
4.3173622237481215
4.323516695913104
4.329671168078114
4.3173622237481215
4.323516695913104
4.3173622237481215
4.3173622237481215
4.323516695913104
4.323516695913104
4.323516695913104
4.323516695913104
4.3173622237481215
4.323516695913104
4.3112077515831135
4.3173622237481215
4.323516695913104
4.3173622237481215
4.305053279418103
4.2681264464281
4.360443528903107
4.366598001068117
4.329671168078114
4.305053279418103
4.323516695913104
4.3173622237481215
4.3173622237481215
4.341980112408105
4.354289056738125
4.37890694539811
4.3727524732331275
4.3727524732331275
4.360443528903107
4.354289056738125
4.348134584573115
4.335825640243124
4.335825640243124
4.335825640243124
4.323516695913104
4.3112077515831135
4.305053279418103
4.2865898629231
4.298898807253093
4.292744335088111
4.305053279418103
4.298898807253093
4.305053279418103
4.298898807253093
4.298898807253093
4.3112077515831135
4.305053279418103
4.305053279418103
4.305053279418103
4.3112077515831135
4.292744335088111
4.27428091859311
4.292744335088111
4.329671168078114
4.385061417563119
4.471224027873144
4.526614277358149
4.551232166018132
4.508150860863147
4.428142722718132
4.354289056738125
4.27428091859311
4.188118308283084
4.145037003128072
4.151191475293081
4.188118308283084
4.237354085603107
4.2865898629231
4.292744335088111
4.292744335088111
4.298898807253093
4.298898807253093
4.292744335088111
4.2865898629231
4.2865898629231
4.298898807253093
4.298898807253093
4.298898807253093
4.305053279418103
4.3173622237481215
4.305053279418103
4.298898807253093
4.3112077515831135
4.3112077515831135
4.3112077515831135
4.3173622237481215
4.3173622237481215
4.323516695913104
4.329671168078114
4.323516695913104
4.323516695913104
4.323516695913104
4.3173622237481215
4.329671168078114
4.335825640243124
4.329671168078114
4.348134584573115
4.341980112408105
4.329671168078114
4.341980112408105
4.341980112408105
4.348134584573115
4.360443528903107
4.354289056738125
4.360443528903107
4.3727524732331275
4.37890694539811
4.391215889728128
4.385061417563119
4.391215889728128
4.397370361893111
4.40967930622313
4.397370361893111
4.40352483405812
4.421988250553122
4.415833778388112
4.421988250553122
4.415833778388112
4.421988250553122
4.415833778388112
4.40967930622313
4.40967930622313
4.40352483405812
4.385061417563119
4.37890694539811
4.366598001068117
4.341980112408105
4.335825640243124
4.3112077515831135
4.305053279418103
4.292744335088111
4.280435390758092
4.2865898629231
4.2865898629231
4.27428091859311
4.261971974263091
4.237354085603107
4.2065817247780855
4.292744335088111
4.2865898629231
4.27428091859311
4.27428091859311
4.2681264464281
4.249663029933098
4.212736196943095
4.218890669108104
4.225045141273086
4.218890669108104
4.231199613438097
4.243508557768089
4.243508557768089
4.237354085603107
4.237354085603107
4.237354085603107
4.237354085603107
4.243508557768089
4.243508557768089
4.243508557768089
4.249663029933098
4.249663029933098
4.255817502098108
4.261971974263091
4.255817502098108
4.261971974263091
4.255817502098108
4.255817502098108
4.249663029933098
4.243508557768089
4.249663029933098
4.255817502098108
4.255817502098108
4.249663029933098
4.249663029933098
4.249663029933098
4.249663029933098
4.249663029933098
4.255817502098108
4.261971974263091
4.261971974263091
4.261971974263091
4.261971974263091
4.261971974263091
4.2681264464281
4.255817502098108
4.261971974263091
4.2681264464281
4.2681264464281
4.261971974263091
4.261971974263091
4.261971974263091
4.261971974263091
4.255817502098108
4.255817502098108
4.261971974263091
4.261971974263091
4.261971974263091
4.261971974263091
4.255817502098108
4.255817502098108
4.255817502098108
4.261971974263091
4.280435390758092
4.27428091859311
4.27428091859311
4.2681264464281
4.2681264464281
4.261971974263091
4.2681264464281
4.2681264464281
4.27428091859311
4.27428091859311
4.27428091859311
4.27428091859311
4.27428091859311
4.261971974263091
4.261971974263091
4.2681264464281
4.261971974263091
4.2681264464281
4.2681264464281
4.261971974263091
4.2681264464281
4.255817502098108
4.2681264464281
4.2681264464281
4.2681264464281
4.2681264464281
4.261971974263091
4.2681264464281
4.249663029933098
4.218890669108104
4.280435390758092
4.292744335088111
4.2865898629231
4.292744335088111
4.2865898629231
4.2865898629231
4.2681264464281
4.237354085603107
4.243508557768089
4.243508557768089
4.243508557768089
4.255817502098108
4.261971974263091
4.292744335088111
4.298898807253093
4.305053279418103
4.292744335088111
4.2865898629231
4.292744335088111
4.2865898629231
4.280435390758092
4.280435390758092
4.27428091859311
4.2681264464281
4.2681264464281
4.27428091859311
4.27428091859311
4.255817502098108
4.212736196943095
4.292744335088111
4.255817502098108
4.225045141273086
4.243508557768089
4.249663029933098
4.243508557768089
4.249663029933098
4.255817502098108
4.249663029933098
4.237354085603107
4.231199613438097
4.231199613438097
4.231199613438097
4.255817502098108
4.305053279418103
4.397370361893111
4.465069555708134
4.501996388698137
4.495841916533128
4.428142722718132
4.335825640243124
4.249663029933098
4.163500419623101
4.089646753643067
4.083492281478085
4.108110170138069
4.157345947458091
4.218890669108104
4.231199613438097
4.243508557768089
4.231199613438097
4.237354085603107
4.237354085603107
4.237354085603107
4.249663029933098
4.249663029933098
4.249663029933098
4.261971974263091
4.255817502098108
4.2681264464281
4.261971974263091
4.255817502098108
4.2681264464281
4.2681264464281
4.261971974263091
4.2681264464281
4.2681264464281
4.27428091859311
4.2681264464281
4.2681264464281
4.27428091859311
4.280435390758092
4.2865898629231
4.2865898629231
4.2865898629231
4.292744335088111
4.2865898629231
4.298898807253093
4.298898807253093
4.305053279418103
4.305053279418103
4.3112077515831135
4.305053279418103
4.329671168078114
4.335825640243124
4.341980112408105
4.341980112408105
4.341980112408105
4.354289056738125
4.360443528903107
4.360443528903107
4.366598001068117
4.366598001068117
4.3727524732331275
4.385061417563119
4.391215889728128
4.385061417563119
4.397370361893111
4.37890694539811
4.385061417563119
4.37890694539811
4.37890694539811
4.3727524732331275
4.360443528903107
4.341980112408105
4.335825640243124
4.3112077515831135
4.298898807253093
4.2865898629231
4.280435390758092
4.261971974263091
4.255817502098108
4.249663029933098
4.237354085603107
4.237354085603107
4.231199613438097
4.231199613438097
4.237354085603107
4.231199613438097
4.231199613438097
4.225045141273086
4.231199613438097
4.225045141273086
4.225045141273086
4.231199613438097
4.231199613438097
4.225045141273086
4.237354085603107
4.231199613438097
4.237354085603107
4.231199613438097
4.231199613438097
4.231199613438097
4.231199613438097
4.237354085603107
4.243508557768089
4.243508557768089
4.243508557768089
4.237354085603107
4.237354085603107
4.225045141273086
4.181963836118102
4.27428091859311
4.27428091859311
4.2681264464281
4.255817502098108
4.243508557768089
4.1942727804480935
4.212736196943095
4.212736196943095
4.218890669108104
4.225045141273086
4.225045141273086
4.218890669108104
4.225045141273086
4.225045141273086
4.231199613438097
4.231199613438097
4.231199613438097
4.225045141273086
4.231199613438097
4.225045141273086
4.225045141273086
4.218890669108104
4.218890669108104
4.231199613438097
4.231199613438097
4.225045141273086
4.218890669108104
4.218890669108104
4.218890669108104
4.225045141273086
4.225045141273086
4.218890669108104
4.225045141273086
4.218890669108104
4.225045141273086
4.218890669108104
4.212736196943095
4.212736196943095
4.218890669108104
4.218890669108104
4.218890669108104
4.225045141273086
4.212736196943095
4.2065817247780855
4.2065817247780855
4.218890669108104
4.212736196943095
4.225045141273086
4.218890669108104
4.225045141273086
4.218890669108104
4.218890669108104
4.218890669108104
4.225045141273086
4.225045141273086
4.225045141273086
4.225045141273086
4.225045141273086
4.225045141273086
4.212736196943095
4.212736196943095
4.218890669108104
4.2065817247780855
4.218890669108104
4.212736196943095
4.231199613438097
4.231199613438097
4.225045141273086
4.225045141273086
4.231199613438097
4.225045141273086
4.225045141273086
4.225045141273086
4.225045141273086
4.225045141273086
4.218890669108104
4.225045141273086
4.225045141273086
4.231199613438097
4.212736196943095
4.212736196943095
4.218890669108104
4.218890669108104
4.212736196943095
4.231199613438097
4.231199613438097
4.231199613438097
4.225045141273086
4.225045141273086
4.218890669108104
4.225045141273086
4.243508557768089
4.2681264464281
4.292744335088111
4.27428091859311
4.27428091859311
4.261971974263091
4.261971974263091
4.255817502098108
4.249663029933098
4.249663029933098
4.231199613438097
4.231199613438097
4.225045141273086
4.231199613438097
4.225045141273086
4.2065817247780855
4.1942727804480935
4.200427252613103
4.212736196943095
4.2065817247780855
4.212736196943095
4.212736196943095
4.212736196943095
4.2065817247780855
4.212736196943095
4.218890669108104
4.218890669108104
4.218890669108104
4.218890669108104
4.200427252613103
4.169654891788083
4.200427252613103
4.212736196943095
4.292744335088111
4.385061417563119
4.458915083543125
4.501996388698137
4.483532972203136
4.40352483405812
4.323516695913104
4.237354085603107
4.151191475293081
4.089646753643067
4.095801225808078
4.114264642303079
4.138882530963089
4.1942727804480935
4.225045141273086
4.243508557768089
4.243508557768089
4.243508557768089
4.237354085603107
4.249663029933098
4.249663029933098
4.243508557768089
4.249663029933098
4.237354085603107
4.225045141273086
4.243508557768089
4.237354085603107
4.249663029933098
4.249663029933098
4.237354085603107
4.255817502098108
4.255817502098108
4.2681264464281
4.27428091859311
4.27428091859311
4.27428091859311
4.2865898629231
4.243508557768089
4.255817502098108
4.329671168078114
4.3173622237481215
4.305053279418103
4.305053279418103
4.3112077515831135
4.298898807253093
4.2681264464281
4.255817502098108
4.2681264464281
4.2865898629231
4.292744335088111
4.292744335088111
4.298898807253093
4.305053279418103
4.3112077515831135
4.3173622237481215
4.323516695913104
4.335825640243124
4.335825640243124
4.341980112408105
4.348134584573115
4.348134584573115
4.348134584573115
4.348134584573115
4.360443528903107
4.360443528903107
4.366598001068117
4.360443528903107
4.360443528903107
4.348134584573115
4.329671168078114
4.329671168078114
4.305053279418103
4.2865898629231
4.280435390758092
4.261971974263091
4.255817502098108
4.237354085603107
4.225045141273086
4.218890669108104
4.2065817247780855
4.200427252613103
4.200427252613103
4.200427252613103
4.1942727804480935
4.181963836118102
4.188118308283084
4.188118308283084
4.188118308283084
4.1942727804480935
4.188118308283084
4.188118308283084
4.188118308283084
4.1758093639530935
4.1758093639530935
4.1758093639530935
4.181963836118102
4.181963836118102
4.181963836118102
4.1758093639530935
4.181963836118102
4.169654891788083
4.1758093639530935
4.1942727804480935
4.188118308283084
4.188118308283084
4.1942727804480935
4.181963836118102
4.1758093639530935
4.181963836118102
4.1942727804480935
4.1942727804480935
4.1942727804480935
4.1942727804480935
4.188118308283084
4.200427252613103
4.200427252613103
4.1942727804480935
4.200427252613103
4.188118308283084
4.151191475293081
4.243508557768089
4.231199613438097
4.231199613438097
4.200427252613103
4.163500419623101
4.169654891788083
4.181963836118102
4.188118308283084
4.188118308283084
4.1942727804480935
4.1942727804480935
4.188118308283084
4.188118308283084
4.188118308283084
4.188118308283084
4.188118308283084
4.188118308283084
4.188118308283084
4.188118308283084
4.181963836118102
4.188118308283084
4.188118308283084
4.200427252613103
4.1942727804480935
4.200427252613103
4.200427252613103
4.1942727804480935
4.1942727804480935
4.200427252613103
4.200427252613103
4.200427252613103
4.200427252613103
4.1942727804480935
4.1942727804480935
4.1942727804480935
4.1942727804480935
4.1942727804480935
4.200427252613103
4.1942727804480935
4.200427252613103
4.2065817247780855
4.200427252613103
4.225045141273086
4.218890669108104
4.200427252613103
4.1942727804480935
4.188118308283084
4.200427252613103
4.225045141273086
4.237354085603107
4.231199613438097
4.231199613438097
4.225045141273086
4.225045141273086
4.212736196943095
4.212736196943095
4.2065817247780855
4.200427252613103
4.1942727804480935
4.188118308283084
4.1942727804480935
4.188118308283084
4.181963836118102
4.188118308283084
4.181963836118102
4.188118308283084
4.1758093639530935
4.1942727804480935
4.188118308283084
4.188118308283084
4.181963836118102
4.188118308283084
4.188118308283084
4.188118308283084
4.169654891788083
4.169654891788083
4.169654891788083
4.188118308283084
4.255817502098108
4.329671168078114
4.397370361893111
4.428142722718132
4.40967930622313
4.354289056738125
4.280435390758092
4.212736196943095
4.120419114468088
4.0465654484880815
4.040410976323072
4.077337809313075
4.083492281478085
4.114264642303079
4.169654891788083
4.181963836118102
4.188118308283084
4.188118308283084
4.181963836118102
4.188118308283084
4.188118308283084
4.1942727804480935
4.1942727804480935
4.200427252613103
4.2065817247780855
4.200427252613103
4.2065817247780855
4.1942727804480935
4.2065817247780855
4.218890669108104
4.212736196943095
4.212736196943095
4.212736196943095
4.225045141273086
4.218890669108104
4.218890669108104
4.225045141273086
4.231199613438097
4.225045141273086
4.231199613438097
4.231199613438097
4.237354085603107
4.225045141273086
4.169654891788083
4.261971974263091
4.280435390758092
4.27428091859311
4.2681264464281
4.27428091859311
4.280435390758092
4.27428091859311
4.231199613438097
4.231199613438097
4.255817502098108
4.2681264464281
4.27428091859311
4.2865898629231
4.292744335088111
4.335825640243124
4.3173622237481215
4.2865898629231
4.298898807253093
4.305053279418103
4.305053279418103
4.305053279418103
4.305053279418103
4.305053279418103
4.298898807253093
4.2865898629231
4.2681264464281
4.261971974263091
4.249663029933098
4.231199613438097
4.218890669108104
4.1942727804480935
4.1942727804480935
4.181963836118102
4.1758093639530935
4.169654891788083
4.157345947458091
4.151191475293081
4.151191475293081
4.151191475293081
4.145037003128072
4.151191475293081
4.138882530963089
4.145037003128072
4.145037003128072
4.145037003128072
4.138882530963089
4.1327280587980795
4.138882530963089
4.145037003128072
4.145037003128072
4.145037003128072
4.138882530963089
4.145037003128072
4.145037003128072
4.145037003128072
4.163500419623101
4.157345947458091
4.151191475293081
4.151191475293081
4.151191475293081
4.145037003128072
4.138882530963089
4.1327280587980795
4.157345947458091
4.157345947458091
4.145037003128072
4.157345947458091
4.151191475293081
4.151191475293081
4.145037003128072
4.138882530963089
4.145037003128072
4.145037003128072
4.145037003128072
4.151191475293081
4.151191475293081
4.145037003128072
4.145037003128072
4.151191475293081
4.151191475293081
4.145037003128072
4.151191475293081
4.151191475293081
4.157345947458091
4.157345947458091
4.151191475293081
4.157345947458091
4.157345947458091
4.157345947458091
4.157345947458091
4.151191475293081
4.151191475293081
4.151191475293081
4.145037003128072
4.145037003128072
4.151191475293081
4.151191475293081
4.151191475293081
4.157345947458091
4.151191475293081
4.151191475293081
4.151191475293081
4.163500419623101
4.163500419623101
4.163500419623101
4.163500419623101
4.163500419623101
4.163500419623101
4.145037003128072
4.120419114468088
4.188118308283084
4.200427252613103
4.1942727804480935
4.188118308283084
4.1758093639530935
4.181963836118102
4.157345947458091
4.120419114468088
4.1327280587980795
4.151191475293081
4.145037003128072
4.114264642303079
4.188118308283084
4.200427252613103
4.157345947458091
4.12657358663307
4.151191475293081
4.151191475293081
4.157345947458091
4.169654891788083
4.163500419623101
4.163500419623101
4.169654891788083
4.188118308283084
4.200427252613103
4.2065817247780855
4.2065817247780855
4.218890669108104
4.2065817247780855
4.2065817247780855
4.200427252613103
4.200427252613103
4.200427252613103
4.188118308283084
4.181963836118102
4.1758093639530935
4.1758093639530935
4.163500419623101
4.163500419623101
4.163500419623101
4.169654891788083
4.151191475293081
4.157345947458091
4.157345947458091
4.163500419623101
4.169654891788083
4.163500419623101
4.163500419623101
4.169654891788083
4.169654891788083
4.157345947458091
4.169654891788083
4.188118308283084
4.255817502098108
4.329671168078114
4.391215889728128
4.415833778388112
4.397370361893111
4.329671168078114
4.249663029933098
4.169654891788083
4.095801225808078
4.028102031993082
4.034256504158063
4.0711833371480655
4.120419114468088
4.169654891788083
4.181963836118102
4.181963836118102
4.1758093639530935
4.181963836118102
4.181963836118102
4.181963836118102
4.181963836118102
4.181963836118102
4.1942727804480935
4.188118308283084
4.188118308283084
4.188118308283084
4.200427252613103
4.1942727804480935
4.200427252613103
4.218890669108104
4.218890669108104
4.218890669108104
4.218890669108104
4.212736196943095
4.218890669108104
4.218890669108104
4.225045141273086
4.218890669108104
4.225045141273086
4.225045141273086
4.218890669108104
4.225045141273086
4.231199613438097
4.231199613438097
4.237354085603107
4.231199613438097
4.243508557768089
4.237354085603107
4.249663029933098
4.261971974263091
4.261971974263091
4.2681264464281
4.27428091859311
4.2865898629231
4.292744335088111
4.2865898629231
4.3173622237481215
4.329671168078114
4.329671168078114
4.323516695913104
4.329671168078114
4.323516695913104
4.323516695913104
4.3173622237481215
4.323516695913104
4.335825640243124
4.3173622237481215
4.3173622237481215
4.305053279418103
4.2865898629231
4.255817502098108
4.231199613438097
4.231199613438097
4.225045141273086
4.212736196943095
4.200427252613103
4.188118308283084
4.181963836118102
4.181963836118102
4.163500419623101
4.12657358663307
4.200427252613103
4.1942727804480935
4.1942727804480935
4.188118308283084
4.181963836118102
4.1758093639530935
4.12657358663307
4.12657358663307
4.145037003128072
4.151191475293081
4.151191475293081
4.151191475293081
4.151191475293081
4.163500419623101
4.157345947458091
4.163500419623101
4.163500419623101
4.169654891788083
4.169654891788083
4.163500419623101
4.163500419623101
4.169654891788083
4.169654891788083
4.181963836118102
4.181963836118102
4.1758093639530935
4.181963836118102
4.1758093639530935
4.181963836118102
4.1758093639530935
4.188118308283084
4.181963836118102
4.1942727804480935
4.1942727804480935
4.188118308283084
4.200427252613103
4.1942727804480935
4.188118308283084
4.1942727804480935
4.200427252613103
4.1942727804480935
4.200427252613103
4.1942727804480935
4.200427252613103
4.1942727804480935
4.188118308283084
4.200427252613103
4.1942727804480935
4.1942727804480935
4.1942727804480935
4.2065817247780855
4.200427252613103
4.200427252613103
4.200427252613103
4.200427252613103
4.200427252613103
4.200427252613103
4.212736196943095
4.212736196943095
4.2065817247780855
4.212736196943095
4.2065817247780855
4.212736196943095
4.218890669108104
4.212736196943095
4.212736196943095
4.2065817247780855
4.212736196943095
4.200427252613103
4.212736196943095
4.2065817247780855
4.2065817247780855
4.200427252613103
4.2065817247780855
4.2065817247780855
4.200427252613103
4.200427252613103
4.200427252613103
4.200427252613103
4.2065817247780855
4.200427252613103
4.1942727804480935
4.200427252613103
4.200427252613103
4.1942727804480935
4.188118308283084
4.1942727804480935
4.1942727804480935
4.200427252613103
4.1942727804480935
4.1942727804480935
4.200427252613103
4.1942727804480935
4.2065817247780855
4.200427252613103
4.200427252613103
4.1942727804480935
4.1942727804480935
4.200427252613103
4.188118308283084
4.188118308283084
4.1942727804480935
4.1942727804480935
4.200427252613103
4.2065817247780855
4.212736196943095
4.200427252613103
4.1942727804480935
4.1942727804480935
4.2065817247780855
4.231199613438097
4.249663029933098
4.249663029933098
4.249663029933098
4.231199613438097
4.231199613438097
4.231199613438097
4.225045141273086
4.225045141273086
4.218890669108104
4.200427252613103
4.151191475293081
4.237354085603107
4.200427252613103
4.169654891788083
4.181963836118102
4.188118308283084
4.181963836118102
4.181963836118102
4.188118308283084
4.188118308283084
4.188118308283084
4.188118308283084
4.1942727804480935
4.1942727804480935
4.1942727804480935
4.1942727804480935
4.188118308283084
4.181963836118102
4.181963836118102
4.2065817247780855
4.27428091859311
4.366598001068117
4.434297194883113
4.458915083543125
4.421988250553122
4.348134584573115
4.255817502098108
4.181963836118102
4.089646753643067
4.034256504158063
4.034256504158063
4.065028864983084
4.108110170138069
4.151191475293081
4.181963836118102
4.188118308283084
4.181963836118102
4.181963836118102
4.181963836118102
4.181963836118102
4.188118308283084
4.188118308283084
4.1942727804480935
4.1942727804480935
4.200427252613103
4.188118308283084
4.188118308283084
4.181963836118102
4.188118308283084
4.1942727804480935
4.1942727804480935
4.200427252613103
4.200427252613103
4.200427252613103
4.200427252613103
4.200427252613103
4.2065817247780855
4.145037003128072
4.200427252613103
4.255817502098108
4.255817502098108
4.243508557768089
4.237354085603107
4.243508557768089
4.237354085603107
4.200427252613103
4.1942727804480935
4.212736196943095
4.231199613438097
4.243508557768089
4.243508557768089
4.249663029933098
4.261971974263091
4.261971974263091
4.27428091859311
4.27428091859311
4.2865898629231
4.298898807253093
4.298898807253093
4.3112077515831135
4.298898807253093
4.3112077515831135
4.3173622237481215
4.3112077515831135
4.3112077515831135
4.3112077515831135
4.3112077515831135
4.3112077515831135
4.298898807253093
4.2865898629231
4.261971974263091
4.249663029933098
4.231199613438097
4.218890669108104
4.200427252613103
4.188118308283084
4.169654891788083
4.1758093639530935
4.163500419623101
4.157345947458091
4.157345947458091
4.157345947458091
4.151191475293081
4.151191475293081
4.138882530963089
4.145037003128072
4.145037003128072
4.145037003128072
4.145037003128072
4.145037003128072
4.138882530963089
4.138882530963089
4.145037003128072
4.145037003128072
4.145037003128072
4.145037003128072
4.145037003128072
4.145037003128072
4.145037003128072
4.145037003128072
4.1327280587980795
4.1327280587980795
4.101955697973087
4.169654891788083
4.169654891788083
4.169654891788083
4.163500419623101
4.157345947458091
4.114264642303079
4.1327280587980795
4.138882530963089
4.145037003128072
4.151191475293081
4.151191475293081
4.151191475293081
4.151191475293081
4.163500419623101
4.163500419623101
4.157345947458091
4.163500419623101
4.157345947458091
4.157345947458091
4.157345947458091
4.151191475293081
4.163500419623101
4.163500419623101
4.163500419623101
4.163500419623101
4.163500419623101
4.163500419623101
4.157345947458091
4.157345947458091
4.163500419623101
4.163500419623101
4.163500419623101
4.1758093639530935
4.188118308283084
4.181963836118102
4.1758093639530935
4.169654891788083
4.181963836118102
4.1758093639530935
4.1758093639530935
4.1758093639530935
4.1758093639530935
4.1758093639530935
4.169654891788083
4.169654891788083
4.163500419623101
4.151191475293081
4.151191475293081
4.157345947458091
4.163500419623101
4.157345947458091
4.151191475293081
4.151191475293081
4.163500419623101
4.169654891788083
4.157345947458091
4.163500419623101
4.163500419623101
4.169654891788083
4.163500419623101
4.157345947458091
4.163500419623101
4.163500419623101
4.1758093639530935
4.1758093639530935
4.1758093639530935
4.169654891788083
4.163500419623101
4.163500419623101
4.169654891788083
4.1758093639530935
4.188118308283084
4.188118308283084
4.188118308283084
4.188118308283084
4.1758093639530935
4.1942727804480935
4.2065817247780855
4.231199613438097
4.225045141273086
4.218890669108104
4.2065817247780855
4.200427252613103
4.200427252613103
4.1942727804480935
4.1942727804480935
4.181963836118102
4.163500419623101
4.157345947458091
4.157345947458091
4.163500419623101
4.157345947458091
4.157345947458091
4.151191475293081
4.163500419623101
4.157345947458091
4.157345947458091
4.169654891788083
4.169654891788083
4.163500419623101
4.169654891788083
4.157345947458091
4.157345947458091
4.151191475293081
4.151191475293081
4.145037003128072
4.1758093639530935
4.243508557768089
4.329671168078114
4.40352483405812
4.434297194883113
4.40967930622313
4.3173622237481215
4.237354085603107
4.157345947458091
4.077337809313075
4.009638615498079
4.003484143333068
4.040410976323072
4.0711833371480655
4.12657358663307
4.108110170138069
4.145037003128072
4.138882530963089
4.151191475293081
4.157345947458091
4.151191475293081
4.157345947458091
4.157345947458091
4.151191475293081
4.151191475293081
4.163500419623101
4.163500419623101
4.169654891788083
4.163500419623101
4.169654891788083
4.169654891788083
4.1758093639530935
4.169654891788083
4.188118308283084
4.188118308283084
4.188118308283084
4.1942727804480935
4.1942727804480935
4.188118308283084
4.1942727804480935
4.188118308283084
4.200427252613103
4.200427252613103
4.200427252613103
4.200427252613103
4.200427252613103
4.200427252613103
4.200427252613103
4.212736196943095
4.218890669108104
4.225045141273086
4.225045141273086
4.237354085603107
4.243508557768089
4.237354085603107
4.255817502098108
4.255817502098108
4.2681264464281
4.2681264464281
4.27428091859311
4.2865898629231
4.2865898629231
4.2865898629231
4.2865898629231
4.280435390758092
4.2865898629231
4.2865898629231
4.2865898629231
4.27428091859311
4.261971974263091
4.243508557768089
4.231199613438097
4.212736196943095
4.2065817247780855
4.1942727804480935
4.181963836118102
4.169654891788083
4.157345947458091
4.145037003128072
4.138882530963089
4.138882530963089
4.12657358663307
4.120419114468088
4.120419114468088
4.12657358663307
4.12657358663307
4.138882530963089
4.1327280587980795
4.108110170138069
4.120419114468088
4.108110170138069
4.114264642303079
4.114264642303079
4.108110170138069
4.108110170138069
4.120419114468088
4.120419114468088
4.120419114468088
4.12657358663307
4.120419114468088
4.12657358663307
4.1327280587980795
4.120419114468088
4.12657358663307
4.1327280587980795
4.1327280587980795
4.12657358663307
4.1327280587980795
4.145037003128072
4.138882530963089
4.138882530963089
4.145037003128072
4.151191475293081
4.157345947458091
4.151191475293081
4.163500419623101
4.157345947458091
4.157345947458091
4.145037003128072
4.157345947458091
4.157345947458091
4.157345947458091
4.157345947458091
4.157345947458091
4.157345947458091
4.145037003128072
4.151191475293081
4.145037003128072
4.145037003128072
4.145037003128072
4.151191475293081
4.151191475293081
4.151191475293081
4.169654891788083
4.163500419623101
4.145037003128072
4.1327280587980795
4.108110170138069
4.188118308283084
4.181963836118102
4.1758093639530935
4.12657358663307
4.065028864983084
4.163500419623101
4.1758093639530935
4.163500419623101
4.169654891788083
4.163500419623101
4.157345947458091
4.1327280587980795
4.108110170138069
4.1327280587980795
4.138882530963089
4.145037003128072
4.145037003128072
4.151191475293081
4.151191475293081
4.145037003128072
4.151191475293081
4.157345947458091
4.157345947458091
4.151191475293081
4.151191475293081
4.157345947458091
4.157345947458091
4.169654891788083
4.1758093639530935
4.169654891788083
4.157345947458091
4.169654891788083
4.181963836118102
4.2065817247780855
4.212736196943095
4.200427252613103
4.1942727804480935
4.188118308283084
4.188118308283084
4.181963836118102
4.1758093639530935
4.181963836118102
4.181963836118102
4.169654891788083
4.145037003128072
4.151191475293081
4.157345947458091
4.157345947458091
4.145037003128072
4.151191475293081
4.151191475293081
4.145037003128072
4.145037003128072
4.145037003128072
4.145037003128072
4.157345947458091
4.157345947458091
4.151191475293081
4.145037003128072
4.1327280587980795
4.138882530963089
4.138882530963089
4.1942727804480935
4.280435390758092
4.366598001068117
4.428142722718132
4.428142722718132
4.366598001068117
4.292744335088111
4.1942727804480935
4.095801225808078
4.015793087663061
3.9727117825080476
3.9911751990030497
4.021947559828071
4.083492281478085
4.12657358663307
4.145037003128072
4.145037003128072
4.145037003128072
4.151191475293081
4.145037003128072
4.145037003128072
4.151191475293081
4.157345947458091
4.157345947458091
4.163500419623101
4.157345947458091
4.169654891788083
4.157345947458091
4.163500419623101
4.169654891788083
4.1758093639530935
4.1758093639530935
4.1758093639530935
4.1758093639530935
4.188118308283084
4.188118308283084
4.181963836118102
4.1942727804480935
4.188118308283084
4.200427252613103
4.1942727804480935
4.1942727804480935
4.200427252613103
4.200427252613103
4.2065817247780855
4.2065817247780855
4.218890669108104
4.218890669108104
4.225045141273086
4.218890669108104
4.225045141273086
4.225045141273086
4.231199613438097
4.237354085603107
4.255817502098108
4.27428091859311
4.27428091859311
4.2681264464281
4.255817502098108
4.212736196943095
4.3173622237481215
4.329671168078114
4.323516695913104
4.3112077515831135
4.3173622237481215
4.3112077515831135
4.292744335088111
4.243508557768089
4.237354085603107
4.237354085603107
4.237354085603107
4.218890669108104
4.212736196943095
4.200427252613103
4.181963836118102
4.163500419623101
4.163500419623101
4.157345947458091
4.145037003128072
4.138882530963089
4.138882530963089
4.12657358663307
4.101955697973087
4.095801225808078
4.114264642303079
4.114264642303079
4.114264642303079
4.120419114468088
4.114264642303079
4.114264642303079
4.108110170138069
4.120419114468088
4.120419114468088
4.114264642303079
4.120419114468088
4.1327280587980795
4.145037003128072
4.12657358663307
4.1327280587980795
4.120419114468088
4.12657358663307
4.12657358663307
4.12657358663307
4.120419114468088
4.120419114468088
4.120419114468088
4.120419114468088
4.120419114468088
4.12657358663307
4.114264642303079
4.095801225808078
4.101955697973087
4.108110170138069
4.108110170138069
4.114264642303079
4.120419114468088
4.108110170138069
4.120419114468088
4.120419114468088
4.120419114468088
4.120419114468088
4.108110170138069
4.101955697973087
4.151191475293081
4.1327280587980795
4.1327280587980795
4.1327280587980795
4.120419114468088
4.12657358663307
4.120419114468088
4.114264642303079
4.120419114468088
4.114264642303079
4.120419114468088
4.114264642303079
4.114264642303079
4.114264642303079
4.083492281478085
4.095801225808078
4.101955697973087
4.101955697973087
4.095801225808078
4.101955697973087
4.101955697973087
4.108110170138069
4.101955697973087
4.101955697973087
4.101955697973087
4.114264642303079
4.108110170138069
4.108110170138069
4.108110170138069
4.095801225808078
4.101955697973087
4.101955697973087
4.101955697973087
4.101955697973087
4.114264642303079
4.114264642303079
4.108110170138069
4.114264642303079
4.101955697973087
4.108110170138069
4.114264642303079
4.108110170138069
4.108110170138069
4.114264642303079
4.114264642303079
4.101955697973087
4.101955697973087
4.12657358663307
4.120419114468088
4.120419114468088
4.12657358663307
4.120419114468088
4.120419114468088
4.114264642303079
4.120419114468088
4.145037003128072
4.151191475293081
4.145037003128072
4.101955697973087
4.169654891788083
4.1758093639530935
4.1327280587980795
4.108110170138069
4.120419114468088
4.120419114468088
4.12657358663307
4.120419114468088
4.120419114468088
4.120419114468088
4.114264642303079
4.120419114468088
4.12657358663307
4.120419114468088
4.12657358663307
4.12657358663307
4.12657358663307
4.138882530963089
4.12657358663307
4.1327280587980795
4.138882530963089
4.145037003128072
4.138882530963089
4.1327280587980795
4.12657358663307
4.12657358663307
4.157345947458091
4.231199613438097
4.3173622237481215
4.3727524732331275
4.40352483405812
4.354289056738125
4.2865898629231
4.200427252613103
4.114264642303079
4.034256504158063
3.9727117825080476
3.9727117825080476
3.9911751990030497
4.028102031993082
4.065028864983084
4.114264642303079
4.1327280587980795
4.1327280587980795
4.12657358663307
4.1327280587980795
4.138882530963089
4.1327280587980795
4.138882530963089
4.1327280587980795
4.145037003128072
4.151191475293081
4.151191475293081
4.151191475293081
4.151191475293081
4.157345947458091
4.157345947458091
4.157345947458091
4.163500419623101
4.163500419623101
4.163500419623101
4.163500419623101
4.169654891788083
4.188118308283084
4.1758093639530935
4.1758093639530935
4.188118308283084
4.188118308283084
4.1942727804480935
4.1942727804480935
4.1942727804480935
4.200427252613103
4.200427252613103
4.163500419623101
4.231199613438097
4.249663029933098
4.255817502098108
4.255817502098108
4.255817502098108
4.261971974263091
4.249663029933098
4.218890669108104
4.225045141273086
4.237354085603107
4.255817502098108
4.2681264464281
4.27428091859311
4.27428091859311
4.27428091859311
4.280435390758092
4.292744335088111
4.292744335088111
4.280435390758092
4.280435390758092
4.27428091859311
4.261971974263091
4.243508557768089
4.237354085603107
4.218890669108104
4.212736196943095
4.200427252613103
4.181963836118102
4.169654891788083
4.163500419623101
4.157345947458091
4.163500419623101
4.163500419623101
4.151191475293081
4.151191475293081
4.145037003128072
4.145037003128072
4.145037003128072
4.1327280587980795
4.1327280587980795
4.145037003128072
4.1327280587980795
4.138882530963089
4.1327280587980795
4.1327280587980795
4.120419114468088
4.101955697973087
4.0711833371480655
4.163500419623101
4.163500419623101
4.163500419623101
4.157345947458091
4.151191475293081
4.145037003128072
4.089646753643067
4.095801225808078
4.114264642303079
4.12657358663307
4.151191475293081
4.169654891788083
4.163500419623101
4.151191475293081
4.163500419623101
4.157345947458091
4.163500419623101
4.169654891788083
4.1758093639530935
4.169654891788083
4.169654891788083
4.169654891788083
4.169654891788083
4.1758093639530935
4.157345947458091
4.157345947458091
4.169654891788083
4.169654891788083
4.169654891788083
4.1758093639530935
4.1758093639530935
4.1758093639530935
4.181963836118102
4.181963836118102
4.181963836118102
4.181963836118102
4.1758093639530935
4.169654891788083
4.1758093639530935
4.1758093639530935
4.163500419623101
4.163500419623101
4.157345947458091
4.169654891788083
4.163500419623101
4.163500419623101
4.1758093639530935
4.169654891788083
4.1758093639530935
4.1758093639530935
4.1758093639530935
4.181963836118102
4.1758093639530935
4.1758093639530935
4.181963836118102
4.188118308283084
4.188118308283084
4.181963836118102
4.181963836118102
4.1758093639530935
4.181963836118102
4.1758093639530935
4.1758093639530935
4.188118308283084
4.188118308283084
4.188118308283084
4.200427252613103
4.1942727804480935
4.188118308283084
4.181963836118102
4.188118308283084
4.188118308283084
4.188118308283084
4.181963836118102
4.181963836118102
4.181963836118102
4.188118308283084
4.1942727804480935
4.1942727804480935
4.181963836118102
4.1758093639530935
4.181963836118102
4.188118308283084
4.188118308283084
4.188118308283084
4.200427252613103
4.200427252613103
4.200427252613103
4.188118308283084
4.1942727804480935
4.200427252613103
4.225045141273086
4.243508557768089
4.249663029933098
4.237354085603107
4.231199613438097
4.218890669108104
4.218890669108104
4.212736196943095
4.212736196943095
4.2065817247780855
4.212736196943095
4.1942727804480935
4.200427252613103
4.1942727804480935
4.1942727804480935
4.188118308283084
4.181963836118102
4.188118308283084
4.1942727804480935
4.1942727804480935
4.1942727804480935
4.188118308283084
4.200427252613103
4.1942727804480935
4.200427252613103
4.200427252613103
4.188118308283084
4.188118308283084
4.181963836118102
4.2065817247780855
4.218890669108104
4.3727524732331275
4.40967930622313
4.421988250553122
4.415833778388112
4.348134584573115
4.27428091859311
4.200427252613103
4.12657358663307
4.052719920653064
4.034256504158063
4.065028864983084
4.108110170138069
4.163500419623101
4.181963836118102
4.188118308283084
4.188118308283084
4.181963836118102
4.169654891788083
4.188118308283084
4.181963836118102
4.1758093639530935
4.188118308283084
4.188118308283084
4.181963836118102
4.188118308283084
4.188118308283084
4.181963836118102
4.188118308283084
4.188118308283084
4.1942727804480935
4.200427252613103
4.1942727804480935
4.200427252613103
4.200427252613103
4.2065817247780855
4.2065817247780855
4.212736196943095
4.218890669108104
4.225045141273086
4.218890669108104
4.218890669108104
4.225045141273086
4.225045141273086
4.231199613438097
4.231199613438097
4.237354085603107
4.243508557768089
4.243508557768089
4.243508557768089
4.249663029933098
4.2681264464281
4.2681264464281
4.27428091859311
4.280435390758092
4.280435390758092
4.2865898629231
4.2865898629231
4.298898807253093
4.305053279418103
4.305053279418103
4.3173622237481215
4.3112077515831135
4.3112077515831135
4.329671168078114
4.3112077515831135
4.3173622237481215
4.3173622237481215
4.323516695913104
4.298898807253093
4.2865898629231
4.2681264464281
4.243508557768089
4.231199613438097
4.225045141273086
4.200427252613103
4.188118308283084
4.181963836118102
4.1758093639530935
4.1758093639530935
4.163500419623101
4.151191475293081
4.138882530963089
4.138882530963089
4.138882530963089
4.145037003128072
4.145037003128072
4.138882530963089
4.1327280587980795
4.1327280587980795
4.145037003128072
4.145037003128072
4.138882530963089
4.145037003128072
4.145037003128072
4.163500419623101
4.151191475293081
4.157345947458091
4.151191475293081
4.151191475293081
4.145037003128072
4.145037003128072
4.151191475293081
4.151191475293081
4.145037003128072
4.145037003128072
4.145037003128072
4.151191475293081
4.151191475293081
4.138882530963089
4.145037003128072
4.151191475293081
4.145037003128072
4.151191475293081
4.163500419623101
4.169654891788083
4.163500419623101
4.169654891788083
4.169654891788083
4.169654891788083
4.163500419623101
4.157345947458091
4.120419114468088
4.200427252613103
4.2065817247780855
4.200427252613103
4.188118308283084
4.163500419623101
4.12657358663307
4.138882530963089
4.145037003128072
4.151191475293081
4.151191475293081
4.151191475293081
4.151191475293081
4.151191475293081
4.157345947458091
4.157345947458091
4.163500419623101
4.169654891788083
4.163500419623101
4.169654891788083
4.163500419623101
4.120419114468088
4.1327280587980795
4.212736196943095
4.200427252613103
4.200427252613103
4.188118308283084
4.1942727804480935
4.2065817247780855
4.157345947458091
4.138882530963089
4.151191475293081
4.163500419623101
4.169654891788083
4.169654891788083
4.163500419623101
4.163500419623101
4.157345947458091
4.157345947458091
4.169654891788083
4.163500419623101
4.151191475293081
4.138882530963089
4.145037003128072
4.157345947458091
4.157345947458091
4.151191475293081
4.157345947458091
4.163500419623101
4.169654891788083
4.169654891788083
4.157345947458091
4.163500419623101
4.163500419623101
4.163500419623101
4.181963836118102
4.181963836118102
4.169654891788083
4.169654891788083
4.169654891788083
4.163500419623101
4.169654891788083
4.169654891788083
4.1758093639530935
4.1758093639530935
4.1758093639530935
4.181963836118102
4.181963836118102
4.169654891788083
4.181963836118102
4.1758093639530935
4.181963836118102
4.1758093639530935
4.181963836118102
4.181963836118102
4.188118308283084
4.188118308283084
4.1758093639530935
4.1758093639530935
4.1758093639530935
4.200427252613103
4.225045141273086
4.218890669108104
4.2065817247780855
4.2065817247780855
4.2065817247780855
4.218890669108104
4.2065817247780855
4.212736196943095
4.2065817247780855
4.1942727804480935
4.188118308283084
4.181963836118102
4.181963836118102
4.181963836118102
4.188118308283084
4.181963836118102
4.181963836118102
4.181963836118102
4.1758093639530935
4.1758093639530935
4.181963836118102
4.188118308283084
4.188118308283084
4.188118308283084
4.188118308283084
4.188118308283084
4.181963836118102
4.188118308283084
4.1942727804480935
4.200427252613103
4.181963836118102
4.1942727804480935
4.243508557768089
4.3173622237481215
4.391215889728128
4.434297194883113
4.440451667048122
4.37890694539811
4.2865898629231
4.212736196943095
4.120419114468088
4.009638615498079
4.003484143333068
4.003484143333068
4.065028864983084
4.1327280587980795
4.169654891788083
4.1758093639530935
4.181963836118102
4.181963836118102
4.1758093639530935
4.1758093639530935
4.1758093639530935
4.181963836118102
4.1758093639530935
4.188118308283084
4.1942727804480935
4.188118308283084
4.181963836118102
4.188118308283084
4.181963836118102
4.1942727804480935
4.1942727804480935
4.188118308283084
4.1942727804480935
4.188118308283084
4.1942727804480935
4.2065817247780855
4.2065817247780855
4.2065817247780855
4.225045141273086
4.225045141273086
4.225045141273086
4.218890669108104
4.225045141273086
4.231199613438097
4.231199613438097
4.231199613438097
4.243508557768089
4.237354085603107
4.243508557768089
4.249663029933098
4.243508557768089
4.249663029933098
4.237354085603107
4.249663029933098
4.255817502098108
4.261971974263091
4.2681264464281
4.2681264464281
4.280435390758092
4.2865898629231
4.298898807253093
4.292744335088111
4.298898807253093
4.298898807253093
4.292744335088111
4.298898807253093
4.305053279418103
4.298898807253093
4.292744335088111
4.280435390758092
4.2681264464281
4.249663029933098
4.225045141273086
4.218890669108104
4.212736196943095
4.1942727804480935
4.181963836118102
4.163500419623101
4.157345947458091
4.157345947458091
4.151191475293081
4.145037003128072
4.145037003128072
4.138882530963089
4.145037003128072
4.138882530963089
4.138882530963089
4.138882530963089
4.145037003128072
4.151191475293081
4.157345947458091
4.157345947458091
4.151191475293081
4.145037003128072
4.145037003128072
4.145037003128072
4.138882530963089
4.145037003128072
4.145037003128072
4.145037003128072
4.145037003128072
4.145037003128072
4.145037003128072
4.151191475293081
4.145037003128072
4.151191475293081
4.157345947458091
4.157345947458091
4.157345947458091
4.151191475293081
4.151191475293081
4.157345947458091
4.151191475293081
4.163500419623101
4.163500419623101
4.163500419623101
4.157345947458091
4.157345947458091
4.157345947458091
4.157345947458091
4.169654891788083
4.163500419623101
4.163500419623101
4.163500419623101
4.157345947458091
4.157345947458091
4.157345947458091
4.151191475293081
4.145037003128072
4.151191475293081
4.145037003128072
4.12657358663307
4.1942727804480935
4.181963836118102
4.1758093639530935
4.138882530963089
4.101955697973087
4.120419114468088
4.12657358663307
4.12657358663307
4.12657358663307
4.120419114468088
4.12657358663307
4.120419114468088
4.12657358663307
4.1327280587980795
4.1327280587980795
4.157345947458091
4.163500419623101
4.151191475293081
4.157345947458091
4.138882530963089
4.138882530963089
4.145037003128072
4.145037003128072
4.145037003128072
4.145037003128072
4.138882530963089
4.138882530963089
4.138882530963089
4.138882530963089
4.12657358663307
4.12657358663307
4.1327280587980795
4.138882530963089
4.138882530963089
4.1327280587980795
4.1327280587980795
4.1327280587980795
4.145037003128072
4.145037003128072
4.145037003128072
4.1327280587980795
4.138882530963089
4.157345947458091
4.151191475293081
4.1327280587980795
4.138882530963089
4.138882530963089
4.145037003128072
4.151191475293081
4.145037003128072
4.145037003128072
4.151191475293081
4.157345947458091
4.163500419623101
4.169654891788083
4.169654891788083
4.188118308283084
4.200427252613103
4.181963836118102
4.181963836118102
4.1942727804480935
4.212736196943095
4.218890669108104
4.231199613438097
4.212736196943095
4.200427252613103
4.200427252613103
4.1942727804480935
4.200427252613103
4.1942727804480935
4.163500419623101
4.163500419623101
4.163500419623101
4.163500419623101
4.151191475293081
4.151191475293081
4.151191475293081
4.157345947458091
4.157345947458091
4.157345947458091
4.151191475293081
4.151191475293081
4.151191475293081
4.157345947458091
4.169654891788083
4.163500419623101
4.163500419623101
4.157345947458091
4.151191475293081
4.145037003128072
4.151191475293081
4.27428091859311
4.366598001068117
4.421988250553122
4.428142722718132
4.366598001068117
4.2865898629231
4.188118308283084
4.0711833371480655
3.9973296711680604
3.948093893848065
3.9604028381780574
3.9973296711680604
4.028102031993082
4.0711833371480655
4.101955697973087
4.120419114468088
4.12657358663307
4.120419114468088
4.12657358663307
4.120419114468088
4.114264642303079
4.108110170138069
4.120419114468088
4.12657358663307
4.120419114468088
4.1327280587980795
4.138882530963089
4.138882530963089
4.138882530963089
4.12657358663307
4.077337809313075
4.181963836118102
4.181963836118102
4.181963836118102
4.1758093639530935
4.1758093639530935
4.181963836118102
4.169654891788083
4.12657358663307
4.138882530963089
4.151191475293081
4.163500419623101
4.169654891788083
4.169654891788083
4.1758093639530935
4.1758093639530935
4.1758093639530935
4.1942727804480935
4.2065817247780855
4.212736196943095
4.212736196943095
4.225045141273086
4.225045141273086
4.225045141273086
4.231199613438097
4.237354085603107
4.249663029933098
4.261971974263091
4.261971974263091
4.27428091859311
4.27428091859311
4.255817502098108
4.255817502098108
4.261971974263091
4.2681264464281
4.2681264464281
4.2681264464281
4.255817502098108
4.255817502098108
4.237354085603107
4.218890669108104
4.212736196943095
4.188118308283084
4.1758093639530935
4.163500419623101
4.163500419623101
4.145037003128072
4.1327280587980795
4.1327280587980795
4.12657358663307
4.120419114468088
4.114264642303079
4.108110170138069
4.108110170138069
4.108110170138069
4.101955697973087
4.108110170138069
4.108110170138069
4.095801225808078
4.089646753643067
4.101955697973087
4.101955697973087
4.095801225808078
4.077337809313075
4.101955697973087
4.095801225808078
4.095801225808078
4.089646753643067
4.095801225808078
4.095801225808078
4.095801225808078
4.095801225808078
4.095801225808078
4.095801225808078
4.101955697973087
4.095801225808078
4.101955697973087
4.089646753643067
4.089646753643067
4.095801225808078
4.095801225808078
4.095801225808078
4.101955697973087
4.101955697973087
4.095801225808078
4.108110170138069
4.095801225808078
4.101955697973087
4.101955697973087
4.095801225808078
4.095801225808078
4.101955697973087
4.095801225808078
4.095801225808078
4.083492281478085
4.083492281478085
4.095801225808078
4.089646753643067
4.089646753643067
4.089646753643067
4.083492281478085
4.077337809313075
4.077337809313075
4.0711833371480655
4.077337809313075
4.077337809313075
4.0711833371480655
4.0711833371480655
4.077337809313075
4.0711833371480655
4.065028864983084
4.083492281478085
4.089646753643067
4.108110170138069
4.114264642303079
4.101955697973087
4.101955697973087
4.095801225808078
4.095801225808078
4.095801225808078
4.101955697973087
4.089646753643067
4.058874392818074
4.12657358663307
4.12657358663307
4.101955697973087
4.052719920653064
4.052719920653064
4.0711833371480655
4.0711833371480655
4.077337809313075
4.089646753643067
4.083492281478085
4.077337809313075
4.083492281478085
4.083492281478085
4.089646753643067
4.095801225808078
4.095801225808078
4.095801225808078
4.108110170138069
4.114264642303079
4.108110170138069
4.108110170138069
4.101955697973087
4.120419114468088
4.1327280587980795
4.151191475293081
4.145037003128072
4.1327280587980795
4.12657358663307
4.12657358663307
4.1327280587980795
4.1327280587980795
4.114264642303079
4.101955697973087
4.089646753643067
4.083492281478085
4.089646753643067
4.095801225808078
4.095801225808078
4.095801225808078
4.101955697973087
4.095801225808078
4.089646753643067
4.095801225808078
4.101955697973087
4.101955697973087
4.095801225808078
4.101955697973087
4.095801225808078
4.101955697973087
4.083492281478085
4.089646753643067
4.101955697973087
4.151191475293081
4.218890669108104
4.2865898629231
4.348134584573115
4.360443528903107
4.305053279418103
4.225045141273086
4.163500419623101
4.077337809313075
3.9850207268380675
3.9419394216830552
3.9727117825080476
3.9973296711680604
4.040410976323072
4.089646753643067
4.114264642303079
4.114264642303079
4.108110170138069
4.114264642303079
4.114264642303079
4.120419114468088
4.1327280587980795
4.1327280587980795
4.1327280587980795
4.1327280587980795
4.138882530963089
4.145037003128072
4.138882530963089
4.138882530963089
4.1327280587980795
4.145037003128072
4.145037003128072
4.138882530963089
4.138882530963089
4.120419114468088
4.12657358663307
4.1327280587980795
4.138882530963089
4.145037003128072
4.145037003128072
4.145037003128072
4.151191475293081
4.157345947458091
4.163500419623101
4.163500419623101
4.157345947458091
4.163500419623101
4.1758093639530935
4.181963836118102
4.1758093639530935
4.188118308283084
4.188118308283084
4.188118308283084
4.2065817247780855
4.212736196943095
4.218890669108104
4.218890669108104
4.225045141273086
4.231199613438097
4.237354085603107
4.243508557768089
4.249663029933098
4.255817502098108
4.261971974263091
4.261971974263091
4.2681264464281
4.261971974263091
4.261971974263091
4.237354085603107
4.181963836118102
4.255817502098108
4.249663029933098
4.218890669108104
4.200427252613103
4.181963836118102
4.169654891788083
4.108110170138069
4.108110170138069
4.114264642303079
4.108110170138069
4.101955697973087
4.101955697973087
4.101955697973087
4.095801225808078
4.095801225808078
4.101955697973087
4.095801225808078
4.095801225808078
4.095801225808078
4.083492281478085
4.083492281478085
4.083492281478085
4.089646753643067
4.108110170138069
4.101955697973087
4.101955697973087
4.108110170138069
4.101955697973087
4.101955697973087
4.101955697973087
4.108110170138069
4.114264642303079
4.114264642303079
4.12657358663307
4.120419114468088
4.120419114468088
4.120419114468088
4.052719920653064
4.114264642303079
4.157345947458091
4.145037003128072
4.138882530963089
4.1327280587980795
4.1327280587980795
4.1327280587980795
4.083492281478085
4.083492281478085
4.095801225808078
4.095801225808078
4.101955697973087
4.108110170138069
4.114264642303079
4.114264642303079
4.108110170138069
4.114264642303079
4.108110170138069
4.120419114468088
4.114264642303079
4.108110170138069
4.114264642303079
4.114264642303079
4.120419114468088
4.120419114468088
4.120419114468088
4.120419114468088
4.12657358663307
4.12657358663307
4.12657358663307
4.1327280587980795
4.1327280587980795
4.1327280587980795
4.120419114468088
4.1327280587980795
4.12657358663307
4.1327280587980795
4.12657358663307
4.12657358663307
4.120419114468088
4.12657358663307
4.12657358663307
4.120419114468088
4.114264642303079
4.120419114468088
4.114264642303079
4.114264642303079
4.120419114468088
4.12657358663307
4.1327280587980795
4.1327280587980795
4.1327280587980795
4.138882530963089
4.1327280587980795
4.120419114468088
4.12657358663307
4.1327280587980795
4.1327280587980795
4.138882530963089
4.151191475293081
4.151191475293081
4.151191475293081
4.1327280587980795
4.157345947458091
4.157345947458091
4.163500419623101
4.157345947458091
4.151191475293081
4.151191475293081
4.145037003128072
4.151191475293081
4.1758093639530935
4.1942727804480935
4.1942727804480935
4.1758093639530935
4.169654891788083
4.181963836118102
4.188118308283084
4.181963836118102
4.1758093639530935
4.181963836118102
4.163500419623101
4.151191475293081
4.114264642303079
4.181963836118102
4.138882530963089
4.120419114468088
4.12657358663307
4.1327280587980795
4.138882530963089
4.12657358663307
4.120419114468088
4.1327280587980795
4.1327280587980795
4.138882530963089
4.1327280587980795
4.1327280587980795
4.12657358663307
4.120419114468088
4.12657358663307
4.157345947458091
4.218890669108104
4.3112077515831135
4.366598001068117
4.40352483405812
4.366598001068117
4.292744335088111
4.2065817247780855
4.12657358663307
4.0465654484880815
3.9911751990030497
3.9973296711680604
4.034256504158063
4.077337809313075
4.12657358663307
4.145037003128072
4.138882530963089
4.138882530963089
4.1327280587980795
4.1327280587980795
4.138882530963089
4.145037003128072
4.145037003128072
4.145037003128072
4.145037003128072
4.151191475293081
4.145037003128072
4.151191475293081
4.151191475293081
4.145037003128072
4.157345947458091
4.157345947458091
4.138882530963089
4.151191475293081
4.163500419623101
4.169654891788083
4.169654891788083
4.169654891788083
4.169654891788083
4.1758093639530935
4.169654891788083
4.1758093639530935
4.1758093639530935
4.181963836118102
4.188118308283084
4.188118308283084
4.188118308283084
4.200427252613103
4.1942727804480935
4.200427252613103
4.200427252613103
4.212736196943095
4.212736196943095
4.225045141273086
4.225045141273086
4.231199613438097
4.237354085603107
4.243508557768089
4.261971974263091
4.27428091859311
4.280435390758092
4.27428091859311
4.2865898629231
4.292744335088111
4.292744335088111
4.298898807253093
4.298898807253093
4.298898807253093
4.280435390758092
4.2681264464281
4.261971974263091
4.243508557768089
4.225045141273086
4.212736196943095
4.1942727804480935
4.181963836118102
4.1758093639530935
4.169654891788083
4.163500419623101
4.145037003128072
4.138882530963089
4.145037003128072
4.145037003128072
4.145037003128072
4.138882530963089
4.145037003128072
4.138882530963089
4.12657358663307
4.138882530963089
4.145037003128072
4.138882530963089
4.138882530963089
4.145037003128072
4.138882530963089
4.1327280587980795
4.138882530963089
4.138882530963089
4.138882530963089
4.138882530963089
4.138882530963089
4.145037003128072
4.138882530963089
4.145037003128072
4.145037003128072
4.12657358663307
4.108110170138069
4.1758093639530935
4.181963836118102
4.1758093639530935
4.1758093639530935
4.151191475293081
4.108110170138069
4.120419114468088
4.1327280587980795
4.138882530963089
4.138882530963089
4.1327280587980795
4.138882530963089
4.12657358663307
4.1327280587980795
4.138882530963089
4.1327280587980795
4.138882530963089
4.138882530963089
4.145037003128072
4.138882530963089
4.138882530963089
4.120419114468088
4.12657358663307
4.12657358663307
4.12657358663307
4.12657358663307
4.1327280587980795
4.138882530963089
4.1327280587980795
4.138882530963089
4.145037003128072
4.145037003128072
4.151191475293081
4.138882530963089
4.151191475293081
4.145037003128072
4.138882530963089
4.145037003128072
4.151191475293081
4.138882530963089
4.145037003128072
4.145037003128072
4.145037003128072
4.145037003128072
4.138882530963089
4.151191475293081
4.157345947458091
4.151191475293081
4.157345947458091
4.157345947458091
4.145037003128072
4.138882530963089
4.138882530963089
4.145037003128072
4.145037003128072
4.151191475293081
4.151191475293081
4.151191475293081
4.151191475293081
4.145037003128072
4.151191475293081
4.157345947458091
4.157345947458091
4.163500419623101
4.163500419623101
4.163500419623101
4.157345947458091
4.163500419623101
4.169654891788083
4.1758093639530935
4.163500419623101
4.157345947458091
4.163500419623101
4.169654891788083
4.200427252613103
4.2065817247780855
4.2065817247780855
4.2065817247780855
4.188118308283084
4.1942727804480935
4.1942727804480935
4.1942727804480935
4.181963836118102
4.1758093639530935
4.181963836118102
4.1758093639530935
4.169654891788083
4.163500419623101
4.163500419623101
4.163500419623101
4.151191475293081
4.151191475293081
4.157345947458091
4.163500419623101
4.157345947458091
4.163500419623101
4.169654891788083
4.163500419623101
4.163500419623101
4.163500419623101
4.163500419623101
4.151191475293081
4.151191475293081
4.1942727804480935
4.249663029933098
4.335825640243124
4.3727524732331275
4.40352483405812
4.458915083543125
4.3727524732331275
4.280435390758092
4.188118308283084
4.095801225808078
4.028102031993082
3.9973296711680604
4.003484143333068
4.083492281478085
4.151191475293081
4.169654891788083
4.163500419623101
4.151191475293081
4.12657358663307
4.151191475293081
4.145037003128072
4.163500419623101
4.163500419623101
4.1758093639530935
4.169654891788083
4.1758093639530935
4.1758093639530935
4.163500419623101
4.163500419623101
4.169654891788083
4.1758093639530935
4.1758093639530935
4.181963836118102
4.181963836118102
4.1758093639530935
4.181963836118102
4.181963836118102
4.1942727804480935
4.188118308283084
4.188118308283084
4.1942727804480935
4.200427252613103
4.1942727804480935
4.188118308283084
4.1942727804480935
4.1942727804480935
4.188118308283084
4.188118308283084
4.200427252613103
4.200427252613103
4.200427252613103
4.200427252613103
4.212736196943095
4.212736196943095
4.225045141273086
4.243508557768089
4.237354085603107
4.237354085603107
4.237354085603107
4.255817502098108
4.255817502098108
4.261971974263091
4.261971974263091
4.261971974263091
4.261971974263091
4.2681264464281
4.249663029933098
4.255817502098108
4.255817502098108
4.243508557768089
4.231199613438097
4.218890669108104
4.2065817247780855
4.188118308283084
4.163500419623101
4.163500419623101
4.151191475293081
4.145037003128072
4.1327280587980795
4.1327280587980795
4.120419114468088
4.101955697973087
4.114264642303079
4.114264642303079
4.114264642303079
4.114264642303079
4.114264642303079
4.108110170138069
4.108110170138069
4.108110170138069
4.120419114468088
4.120419114468088
4.120419114468088
4.120419114468088
4.120419114468088
4.12657358663307
4.120419114468088
4.114264642303079
4.114264642303079
4.1327280587980795
4.12657358663307
4.12657358663307
4.1327280587980795
4.138882530963089
4.1327280587980795
4.138882530963089
4.138882530963089
4.145037003128072
4.145037003128072
4.145037003128072
4.163500419623101
4.157345947458091
4.151191475293081
4.157345947458091
4.163500419623101
4.163500419623101
4.157345947458091
4.157345947458091
4.163500419623101
4.169654891788083
4.169654891788083
4.157345947458091
4.163500419623101
4.163500419623101
4.163500419623101
4.163500419623101
4.163500419623101
4.169654891788083
4.163500419623101
4.169654891788083
4.169654891788083
4.169654891788083
4.169654891788083
4.169654891788083
4.1758093639530935
4.169654891788083
4.163500419623101
4.1758093639530935
4.169654891788083
4.157345947458091
4.120419114468088
4.200427252613103
4.212736196943095
4.2065817247780855
4.163500419623101
4.1327280587980795
4.151191475293081
4.151191475293081
4.157345947458091
4.163500419623101
4.169654891788083
4.188118308283084
4.1758093639530935
4.1758093639530935
4.169654891788083
4.163500419623101
4.163500419623101
4.163500419623101
4.163500419623101
4.157345947458091
4.157345947458091
4.157345947458091
4.163500419623101
4.163500419623101
4.157345947458091
4.151191475293081
4.151191475293081
4.151191475293081
4.145037003128072
4.151191475293081
4.163500419623101
4.181963836118102
4.200427252613103
4.200427252613103
4.188118308283084
4.181963836118102
4.181963836118102
4.181963836118102
4.188118308283084
4.169654891788083
4.1758093639530935
4.169654891788083
4.163500419623101
4.157345947458091
4.151191475293081
4.157345947458091
4.157345947458091
4.157345947458091
4.157345947458091
4.151191475293081
4.151191475293081
4.157345947458091
4.163500419623101
4.163500419623101
4.163500419623101
4.163500419623101
4.151191475293081
4.151191475293081
4.151191475293081
4.138882530963089
4.157345947458091
4.225045141273086
4.305053279418103
4.3727524732331275
4.415833778388112
4.385061417563119
4.305053279418103
4.237354085603107
4.157345947458091
4.058874392818074
3.9911751990030497
3.9850207268380675
4.009638615498079
4.034256504158063
4.065028864983084
4.114264642303079
4.138882530963089
4.145037003128072
4.145037003128072
4.138882530963089
4.138882530963089
4.138882530963089
4.145037003128072
4.145037003128072
4.157345947458091
4.157345947458091
4.151191475293081
4.151191475293081
4.151191475293081
4.157345947458091
4.163500419623101
4.163500419623101
4.1758093639530935
4.1758093639530935
4.163500419623101
4.1758093639530935
4.1758093639530935
4.181963836118102
4.188118308283084
4.181963836118102
4.1942727804480935
4.200427252613103
4.200427252613103
4.2065817247780855
4.212736196943095
4.212736196943095
4.212736196943095
4.225045141273086
4.231199613438097
4.231199613438097
4.243508557768089
4.237354085603107
4.243508557768089
4.243508557768089
4.243508557768089
4.255817502098108
4.261971974263091
4.27428091859311
4.280435390758092
4.280435390758092
4.292744335088111
4.280435390758092
4.231199613438097
4.323516695913104
4.335825640243124
4.329671168078114
4.329671168078114
4.3112077515831135
4.3173622237481215
4.298898807253093
4.243508557768089
4.225045141273086
4.231199613438097
4.225045141273086
4.2065817247780855
4.2065817247780855
4.1942727804480935
4.181963836118102
4.169654891788083
4.169654891788083
4.163500419623101
4.157345947458091
4.163500419623101
4.157345947458091
4.157345947458091
4.145037003128072
4.145037003128072
4.157345947458091
4.157345947458091
4.145037003128072
4.151191475293081
4.151191475293081
4.151191475293081
4.138882530963089
4.145037003128072
4.151191475293081
4.151191475293081
4.151191475293081
4.151191475293081
4.151191475293081
4.151191475293081
4.151191475293081
4.151191475293081
4.151191475293081
4.163500419623101
4.151191475293081
4.157345947458091
4.163500419623101
4.157345947458091
4.151191475293081
4.163500419623101
4.169654891788083
4.169654891788083
4.1758093639530935
4.169654891788083
4.1758093639530935
4.169654891788083
4.108110170138069
4.1942727804480935
4.225045141273086
4.200427252613103
4.1942727804480935
4.1942727804480935
4.1942727804480935
4.188118308283084
4.145037003128072
4.138882530963089
4.163500419623101
4.169654891788083
4.181963836118102
4.188118308283084
4.181963836118102
4.181963836118102
4.181963836118102
4.188118308283084
4.181963836118102
4.1942727804480935
4.1942727804480935
4.1942727804480935
4.1942727804480935
4.181963836118102
4.188118308283084
4.188118308283084
4.1758093639530935
4.188118308283084
4.188118308283084
4.1942727804480935
4.188118308283084
4.181963836118102
4.181963836118102
4.181963836118102
4.188118308283084
4.181963836118102
4.1942727804480935
4.188118308283084
4.181963836118102
4.181963836118102
4.1942727804480935
4.1942727804480935
4.1942727804480935
4.1942727804480935
4.188118308283084
4.1942727804480935
4.1942727804480935
4.1942727804480935
4.200427252613103
4.2065817247780855
4.2065817247780855
4.2065817247780855
4.2065817247780855
4.2065817247780855
4.243508557768089
4.249663029933098
4.237354085603107
4.237354085603107
4.218890669108104
4.218890669108104
4.218890669108104
4.218890669108104
4.2065817247780855
4.2065817247780855
4.212736196943095
4.1942727804480935
4.181963836118102
4.145037003128072
4.218890669108104
4.218890669108104
4.1758093639530935
4.151191475293081
4.163500419623101
4.169654891788083
4.1758093639530935
4.1758093639530935
4.1758093639530935
4.1758093639530935
4.181963836118102
4.181963836118102
4.1758093639530935
4.169654891788083
4.169654891788083
4.181963836118102
4.237354085603107
4.3173622237481215
4.37890694539811
4.421988250553122
4.421988250553122
4.366598001068117
4.280435390758092
4.212736196943095
4.12657358663307
4.0465654484880815
4.028102031993082
4.058874392818074
4.083492281478085
4.138882530963089
4.169654891788083
4.1758093639530935
4.1758093639530935
4.1758093639530935
4.169654891788083
4.181963836118102
4.181963836118102
4.1758093639530935
4.1758093639530935
4.169654891788083
4.163500419623101
4.163500419623101
4.1758093639530935
4.181963836118102
4.181963836118102
4.181963836118102
4.188118308283084
4.188118308283084
4.1758093639530935
4.181963836118102
4.181963836118102
4.181963836118102
4.188118308283084
4.212736196943095
4.225045141273086
4.218890669108104
4.218890669108104
4.218890669108104
4.225045141273086
4.218890669108104
4.225045141273086
4.218890669108104
4.225045141273086
4.237354085603107
4.237354085603107
4.237354085603107
4.237354085603107
4.225045141273086
4.243508557768089
4.243508557768089
4.255817502098108
4.261971974263091
4.27428091859311
4.27428091859311
4.298898807253093
4.298898807253093
4.305053279418103
4.3112077515831135
4.3112077515831135
4.3173622237481215
4.329671168078114
4.329671168078114
4.3173622237481215
4.3112077515831135
4.305053279418103
4.2865898629231
4.280435390758092
4.2681264464281
4.243508557768089
4.237354085603107
4.218890669108104
4.212736196943095
4.200427252613103
4.1942727804480935
4.169654891788083
4.157345947458091
4.151191475293081
4.151191475293081
4.157345947458091
4.157345947458091
4.157345947458091
4.151191475293081
4.157345947458091
4.157345947458091
4.145037003128072
4.157345947458091
4.157345947458091
4.157345947458091
4.169654891788083
4.169654891788083
4.169654891788083
4.157345947458091
4.157345947458091
4.151191475293081
4.157345947458091
4.157345947458091
4.157345947458091
4.151191475293081
4.151191475293081
4.151191475293081
4.138882530963089
4.114264642303079
4.1758093639530935
4.181963836118102
4.1758093639530935
4.169654891788083
4.169654891788083
4.157345947458091
4.114264642303079
4.120419114468088
4.138882530963089
4.138882530963089
4.138882530963089
4.151191475293081
4.157345947458091
4.145037003128072
4.145037003128072
4.145037003128072
4.145037003128072
4.151191475293081
4.157345947458091
4.157345947458091
4.145037003128072
4.138882530963089
4.145037003128072
4.145037003128072
4.145037003128072
4.138882530963089
4.145037003128072
4.145037003128072
4.138882530963089
4.145037003128072
4.138882530963089
4.138882530963089
4.1327280587980795
4.138882530963089
4.138882530963089
4.1327280587980795
4.1327280587980795
4.1327280587980795
4.138882530963089
4.145037003128072
4.145037003128072
4.151191475293081
4.151191475293081
4.151191475293081
4.145037003128072
4.151191475293081
4.151191475293081
4.151191475293081
4.151191475293081
4.145037003128072
4.145037003128072
4.151191475293081
4.138882530963089
4.1327280587980795
4.138882530963089
4.1327280587980795
4.1327280587980795
4.138882530963089
4.145037003128072
4.145037003128072
4.1327280587980795
4.138882530963089
4.1327280587980795
4.145037003128072
4.145037003128072
4.145037003128072
4.145037003128072
4.157345947458091
4.151191475293081
4.157345947458091
4.163500419623101
4.157345947458091
4.157345947458091
4.163500419623101
4.169654891788083
4.188118308283084
4.200427252613103
4.200427252613103
4.1942727804480935
4.181963836118102
4.181963836118102
4.1758093639530935
4.1758093639530935
4.1758093639530935
4.163500419623101
4.157345947458091
4.157345947458091
4.157345947458091
4.151191475293081
4.157345947458091
4.157345947458091
4.145037003128072
4.145037003128072
4.151191475293081
4.145037003128072
4.157345947458091
4.157345947458091
4.163500419623101
4.163500419623101
4.157345947458091
4.151191475293081
4.151191475293081
4.151191475293081
4.151191475293081
4.1758093639530935
4.231199613438097
4.298898807253093
4.366598001068117
4.397370361893111
4.385061417563119
4.3112077515831135
4.243508557768089
4.169654891788083
4.101955697973087
4.034256504158063
4.009638615498079
4.058874392818074
4.101955697973087
4.145037003128072
4.163500419623101
4.138882530963089
4.114264642303079
4.1758093639530935
4.089646753643067
4.101955697973087
4.1758093639530935
4.1758093639530935
4.1758093639530935
4.1758093639530935
4.1758093639530935
4.169654891788083
4.12657358663307
4.114264642303079
4.12657358663307
4.1327280587980795
4.151191475293081
4.157345947458091
4.157345947458091
4.163500419623101
4.163500419623101
4.169654891788083
4.1758093639530935
4.188118308283084
4.188118308283084
4.1942727804480935
4.2065817247780855
4.200427252613103
4.2065817247780855
4.218890669108104
4.231199613438097
4.225045141273086
4.231199613438097
4.237354085603107
4.249663029933098
4.237354085603107
4.249663029933098
4.2681264464281
4.2681264464281
4.27428091859311
4.280435390758092
4.2865898629231
4.292744335088111
4.298898807253093
4.298898807253093
4.3112077515831135
4.3173622237481215
4.323516695913104
4.329671168078114
4.329671168078114
4.329671168078114
4.329671168078114
4.323516695913104
4.323516695913104
4.305053279418103
4.298898807253093
4.280435390758092
4.261971974263091
4.243508557768089
4.218890669108104
4.218890669108104
4.200427252613103
4.188118308283084
4.181963836118102
4.1758093639530935
4.163500419623101
4.163500419623101
4.151191475293081
4.151191475293081
4.157345947458091
4.151191475293081
4.157345947458091
4.157345947458091
4.145037003128072
4.145037003128072
4.145037003128072
4.138882530963089
4.145037003128072
4.145037003128072
4.151191475293081
4.151191475293081
4.138882530963089
4.145037003128072
4.138882530963089
4.157345947458091
4.157345947458091
4.157345947458091
4.163500419623101
4.157345947458091
4.157345947458091
4.151191475293081
4.169654891788083
4.163500419623101
4.157345947458091
4.151191475293081
4.151191475293081
4.138882530963089
4.145037003128072
4.145037003128072
4.145037003128072
4.1327280587980795
4.138882530963089
4.138882530963089
4.138882530963089
4.138882530963089
4.138882530963089
4.145037003128072
4.145037003128072
4.138882530963089
4.145037003128072
4.138882530963089
4.1327280587980795
4.138882530963089
4.1327280587980795
4.12657358663307
4.138882530963089
4.1327280587980795
4.138882530963089
4.138882530963089
4.1327280587980795
4.1327280587980795
4.138882530963089
4.1327280587980795
4.120419114468088
4.077337809313075
4.163500419623101
4.169654891788083
4.157345947458091
4.157345947458091
4.1327280587980795
4.089646753643067
4.101955697973087
4.114264642303079
4.114264642303079
4.120419114468088
4.1327280587980795
4.1327280587980795
4.12657358663307
4.120419114468088
4.12657358663307
4.1327280587980795
4.145037003128072
4.138882530963089
4.145037003128072
4.138882530963089
4.138882530963089
4.138882530963089
4.1327280587980795
4.138882530963089
4.138882530963089
4.1327280587980795
4.138882530963089
4.1327280587980795
4.138882530963089
4.1327280587980795
4.138882530963089
4.145037003128072
4.145037003128072
4.145037003128072
4.145037003128072
4.145037003128072
4.145037003128072
4.145037003128072
4.151191475293081
4.151191475293081
4.151191475293081
4.157345947458091
4.157345947458091
4.145037003128072
4.138882530963089
4.151191475293081
4.151191475293081
4.157345947458091
4.151191475293081
4.157345947458091
4.163500419623101
4.157345947458091
4.151191475293081
4.145037003128072
4.157345947458091
4.1758093639530935
4.200427252613103
4.2065817247780855
4.200427252613103
4.1942727804480935
4.181963836118102
4.188118308283084
4.1758093639530935
4.181963836118102
4.1758093639530935
4.169654891788083
4.157345947458091
4.138882530963089
4.138882530963089
4.138882530963089
4.163500419623101
4.163500419623101
4.157345947458091
4.157345947458091
4.157345947458091
4.138882530963089
4.145037003128072
4.145037003128072
4.151191475293081
4.151191475293081
4.151191475293081
4.151191475293081
4.151191475293081
4.145037003128072
4.114264642303079
4.114264642303079
4.108110170138069
4.1327280587980795
4.1758093639530935
4.249663029933098
4.329671168078114
4.37890694539811
4.37890694539811
4.323516695913104
4.237354085603107
4.169654891788083
4.083492281478085
4.009638615498079
3.9850207268380675
4.015793087663061
4.065028864983084
4.114264642303079
4.138882530963089
4.151191475293081
4.151191475293081
4.151191475293081
4.151191475293081
4.157345947458091
