-1.689402609292734
-1.7940286360977609
-1.5970855268177266
-1.4986139721777092
-1.6401668319727392
-1.7017115536227536
-1.6586302484677409
-1.510922916507701
-1.5724676381577152
-1.689402609292734
-1.7263294422827367
-1.6463213041377216
-1.683248137127724
-1.9601993845527748
-1.7140204979527456
-1.615548943312728
-1.7878741639327511
-1.7140204979527456
-1.7140204979527456
-1.7140204979527456
-1.1293456422776516
-0.1938658731975296
-2.2740774649678275
-2.8033620711578893
-2.2925408814628288
-1.689402609292734
-1.6032399989827366
-1.8371099412527454
-1.7817196917677414
-1.7940286360977609
-1.7755652196027594
-1.683248137127724
-1.7632562752727399
-1.7386383866127564
-1.7324839144477464
-1.7017115536227536
-1.6463213041377216
-1.683248137127724
-1.7447928587777384
-1.615548943312728
-1.5601586938277234
-1.7324839144477464
-1.683248137127724
-1.590931054652717
-1.5478497494977315
-1.4924595000126994
-1.510922916507701
-1.6093944711477182
-1.5970855268177266
-1.6586302484677409
-1.6709391927977324
-1.683248137127724
-1.6032399989827366
-1.4616871391877062
-1.4432237226927047
-1.689402609292734
-1.5478497494977315
-1.4801505556827075
-1.4186058340326935
-1.363215584547689
-1.3385976958876775
-1.2832074464026733
-1.184735891762656
-1.4986139721777092
-1.4555326670226965
-1.400142417537692
-1.5601586938277234
-1.6647847206327224
-1.6032399989827366
-1.510922916507701
-1.4616871391877062
-1.8371099412527454
-1.7755652196027594
-1.689402609292734
-1.7817196917677414
-1.861727829912757
-1.8371099412527454
-1.818646524757745
-1.8001831082627426
-1.8801912464077586
-1.818646524757745
-1.7509473309427481
-1.8063375804277528
-2.0278985783677985
-2.1571424938328088
-1.4124513618677115
-1.7140204979527456
-1.892500190737778
-1.8740367742427766
-1.855573357747775
-1.861727829912757
-1.849418885582765
-1.89865466290276
-1.818646524757745
-1.9417359680577726
-1.7324839144477464
-1.578622110322725
-1.8371099412527454
-1.8124920525927626
-1.8863457185727683
-1.855573357747775
-1.7201749701177547
-1.757101803107758
-1.855573357747775
-1.8863457185727683
-2.0340530505327803
-1.990971745377768
-1.9601993845527748
-2.1263701330077875
-2.2433051041428067
-2.446402685587851
-2.2186872154828228
-2.138679077337807
-2.200223798987821
-2.175605910327811
-2.1263701330077875
-2.1263701330077875
-2.1571424938328088
-2.200223798987821
-2.1694514381628007
-2.1694514381628007
-2.1817603824928202
-2.194069326822812
-2.0955977721827947
-2.3110042979578305
-2.2063782711528033
-2.2371506319778245
-2.1632969659978185
-2.120215660842805
-2.1571424938328088
-2.1817603824928202
-2.1632969659978185
-2.1571424938328088
-2.1325246051727973
-2.2309961598128147
-2.150988021667799
-2.052516467027782
-1.9848172732127856
-2.2433051041428067
-2.1325246051727973
-1.830955469087764
-0.6800691742326057
-1.5970855268177266
-1.590931054652717
-2.932605986622927
-2.2186872154828228
-2.150988021667799
-2.0955977721827947
-2.255614048472826
-3.1972482897179852
-2.3540856031128428
-1.757101803107758
-1.954044912387765
-1.9848172732127856
-2.009435161872797
-1.9601993845527748
-1.3324432237226955
-2.1632969659978185
-2.3663945474428347
-2.0278985783677985
-1.9786628010477763
-1.990971745377768
-2.04020752269779
-2.064825411357801
-1.8371099412527454
-1.8863457185727683
-2.187914854657802
-2.0340530505327803
-1.91096360723278
-1.9355814958927628
-2.04020752269779
-1.966353856717784
-1.8371099412527454
-2.0340530505327803
-2.04020752269779
-2.0340530505327803
-1.9355814958927628
-1.9355814958927628
-1.91096360723278
-1.861727829912757
-2.0463619948628
-1.966353856717784
-1.9355814958927628
-2.003280689707787
-1.9048091350677696
-1.830955469087764
-1.8801912464077586
-1.9048091350677696
-1.8678823020777668
-1.8740367742427766
-1.855573357747775
-1.9232725515627715
-1.8124920525927626
-1.6586302484677409
-1.990971745377768
-1.8863457185727683
-1.830955469087764
-1.8432644134177558
-1.8248009969227534
-1.8248009969227534
-1.8371099412527454
-1.7324839144477464
-1.7447928587777384
-1.7509473309427481
-1.7386383866127564
-1.8678823020777668
-1.9171180793977614
-1.2585895577426898
-1.6463213041377216
-1.4863050278477177
-1.1478090587726528
-1.1170366979476598
-1.1293456422776516
-1.0493375041326358
-1.0062561989776508
-1.0924188092876486
-0.9508659494926462
-0.7908496732026148
-1.0308740876376343
-1.0678009206276373
-1.0616464484626553
-1.1539635309376628
-1.4247603061977032
-1.104727753617668
-1.0554919762976458
-1.4616871391877062
-1.6463213041377216
-1.5724676381577152
-1.615548943312728
-1.5416952773327224
-1.4616871391877062
-1.4801505556827075
-1.510922916507701
-1.5663131659927332
-1.5355408051677124
-1.4801505556827075
-1.5724676381577152
-1.5540042216627135
-1.6093944711477182
-1.4924595000126994
-1.4801505556827075
-1.615548943312728
-1.590931054652717
-1.473996083517698
-1.5355408051677124
-1.5293863330027024
-1.6032399989827366
-1.5847765824877347
-1.400142417537692
-1.5416952773327224
-1.7817196917677414
-1.6278578876427194
-1.6709391927977324
-1.7078660257877356
-1.7201749701177547
-1.6278578876427194
-1.5663131659927332
-1.7017115536227536
-1.689402609292734
-1.5232318608377204
-1.6401668319727392
-1.7078660257877356
-1.1970448360926755
-0.5138984257775646
-0.8339309783576276
-0.30464637216753854
-1.972508328882766
-2.8341344319829105
-1.9171180793977614
-1.578622110322725
-1.578622110322725
-1.6647847206327224
-1.5355408051677124
-1.363215584547689
-1.3447521680526875
-1.683248137127724
-2.1632969659978185
-2.446402685587851
-1.861727829912757
-1.8124920525927626
-1.7263294422827367
-1.5724676381577152
-1.5663131659927332
-1.861727829912757
-1.7817196917677414
-1.5601586938277234
-1.590931054652717
-1.8124920525927626
-1.7632562752727399
-1.467841611352716
-1.437069250527695
-1.9171180793977614
-1.892500190737778
-1.4986139721777092
-1.6278578876427194
-1.8432644134177558
-1.9478904402227823
-1.5232318608377204
-1.4309147783627132
-1.830955469087764
-1.9171180793977614
-1.5170773886727107
-1.4616871391877062
-1.6401668319727392
-1.7386383866127564
-1.7017115536227536
-1.4616871391877062
-1.7078660257877356
-1.8678823020777668
-1.677093664962742
-1.4186058340326935
-1.5970855268177266
-1.9048091350677696
-1.7201749701177547
-1.4247603061977032
-1.6524757763027313
-1.9355814958927628
-1.8432644134177558
-1.3201342793926762
-1.6524757763027313
-1.8801912464077586
-1.9171180793977614
-1.590931054652717
-1.6524757763027313
-1.9294270237277809
-1.9786628010477763
-1.8678823020777668
-2.077134355687793
-2.224841687647805
-1.5416952773327224
-1.9048091350677696
-1.861727829912757
-1.7940286360977609
-2.070979883522784
-1.8801912464077586
-1.8432644134177558
-1.7940286360977609
-1.8001831082627426
-1.8371099412527454
-1.7755652196027594
-1.8063375804277528
-1.855573357747775
-1.8740367742427766
-1.8371099412527454
-1.9294270237277809
-1.830955469087764
-1.8801912464077586
-2.0278985783677985
-1.954044912387765
-1.954044912387765
-1.9786628010477763
-1.892500190737778
-1.855573357747775
-1.830955469087764
-1.9478904402227823
-1.8371099412527454
-1.818646524757745
-1.8371099412527454
-1.8740367742427766
-1.7201749701177547
-1.5601586938277234
-1.7694107474377496
-1.861727829912757
-1.8124920525927626
-1.7632562752727399
-1.7201749701177547
-1.8124920525927626
-1.7940286360977609
-1.757101803107758
-1.7201749701177547
-1.7632562752727399
-1.6340123598077294
-1.473996083517698
-1.4924595000126994
-1.7263294422827367
-1.9232725515627715
-1.830955469087764
-1.8863457185727683
-1.9294270237277809
-1.9048091350677696
-1.5540042216627135
-1.1724269474326645
-1.7078660257877356
-1.990971745377768
-1.5724676381577152
-1.6032399989827366
-1.4062968897027015
-0.9816383103176396
-2.0217441062027888
-1.6401668319727392
-1.8248009969227534
-2.070979883522784
-2.04020752269779
-2.3663945474428347
-2.0340530505327803
-2.1571424938328088
-1.966353856717784
-1.590931054652717
-1.7386383866127564
-1.966353856717784
-1.9355814958927628
-1.6340123598077294
-1.7140204979527456
-2.064825411357801
-2.114061188677796
-1.6709391927977324
-1.689402609292734
-1.89865466290276
-2.0217441062027888
-1.7447928587777384
-1.6709391927977324
-1.9478904402227823
-2.1325246051727973
-1.8124920525927626
-1.6278578876427194
-1.8001831082627426
-2.1325246051727973
-1.9171180793977614
-1.5663131659927332
-1.7509473309427481
-2.0463619948628
-1.966353856717784
-1.6709391927977324
-1.830955469087764
-2.1017522443478045
-2.0463619948628
-1.6217034154777374
-1.7755652196027594
-2.0340530505327803
-1.8248009969227534
-1.3693700567126987
-1.5355408051677124
-1.8863457185727683
-2.0217441062027888
-1.4924595000126994
-1.4986139721777092
-1.757101803107758
-1.9294270237277809
-1.578622110322725
-0.7662317845426038
-1.7201749701177547
-2.360240075277825
-1.6709391927977324
-1.2647440299076718
-1.6217034154777374
-1.892500190737778
-1.683248137127724
-1.2708985020726815
-1.5601586938277234
-2.114061188677796
-2.5694921288878514
-0.6308333969125834
-1.1724269474326645
-1.7263294422827367
-1.7940286360977609
-0.4831260649525715
-1.0924188092876486
-1.8678823020777668
-1.91096360723278
-1.473996083517698
-1.4432237226927047
-1.6955570814577436
-1.849418885582765
-1.892500190737778
-2.083288827852803
-1.818646524757745
-1.9355814958927628
-1.6278578876427194
-1.473996083517698
-1.683248137127724
-1.9294270237277809
-1.5355408051677124
-1.5663131659927332
-1.6524757763027313
-1.9048091350677696
-1.7940286360977609
-1.4986139721777092
-1.6524757763027313
-1.8740367742427766
-1.7940286360977609
-1.4801505556827075
-1.5601586938277234
-1.8248009969227534
-1.9048091350677696
-1.473996083517698
-1.3447521680526875
-1.7324839144477464
-1.8740367742427766
-1.4986139721777092
-1.4309147783627132
-1.7140204979527456
-1.892500190737778
-1.5724676381577152
-1.4801505556827075
-1.6647847206327224
-1.9294270237277809
-1.6524757763027313
-1.437069250527695
-1.6709391927977324
-1.8248009969227534
-1.7817196917677414
-1.4616871391877062
-1.5293863330027024
-1.89865466290276
-1.7817196917677414
-1.437069250527695
-1.6401668319727392
-1.9355814958927628
-1.4493781948577145
-0.44619923196256844
-2.200223798987821
-2.667963683527869
-2.1079067165127863
-1.5478497494977315
-1.7386383866127564
-1.7632562752727399
-1.954044912387765
-1.5970855268177266
-1.4309147783627132
-1.8001831082627426
-1.9601993845527748
-1.6093944711477182
-1.4616871391877062
-1.683248137127724
-1.9232725515627715
-1.7140204979527456
-1.3693700567126987
-1.7017115536227536
-2.1263701330077875
-1.8432644134177558
-1.4309147783627132
-1.615548943312728
-1.9294270237277809
-1.849418885582765
-1.4309147783627132
-1.6093944711477182
-1.818646524757745
-1.9417359680577726
-1.510922916507701
-1.5355408051677124
-1.8063375804277528
-1.9601993845527748
-1.6032399989827366
-1.5601586938277234
-1.8124920525927626
-2.009435161872797
-1.6032399989827366
-1.467841611352716
-1.7140204979527456
-1.9601993845527748
-1.7694107474377496
-1.4801505556827075
-1.6524757763027313
-1.966353856717784
-1.6401668319727392
-1.3816790010426905
-1.6586302484677409
-1.7940286360977609
-1.8063375804277528
-1.400142417537692
-1.5601586938277234
-1.89865466290276
-1.855573357747775
-1.4124513618677115
-1.5601586938277234
-1.7201749701177547
-1.9971262175427773
-1.5601586938277234
-1.2832074464026733
-1.1539635309376628
-1.7632562752727399
-1.7632562752727399
-2.2309961598128147
-0.8400854505226096
-1.6524757763027313
-1.5540042216627135
-1.3570611123826792
-1.5601586938277234
-1.7940286360977609
-1.5663131659927332
-1.2770529742376913
-1.4986139721777092
-2.0955977721827947
-2.3663945474428347
-1.8248009969227534
-1.6278578876427194
-1.615548943312728
-1.7263294422827367
-1.6278578876427194
-1.5232318608377204
-1.683248137127724
-1.8001831082627426
-1.6463213041377216
-1.5478497494977315
-1.6586302484677409
-1.7386383866127564
-1.4493781948577145
-1.3755245288776807
-1.7386383866127564
-1.8432644134177558
-1.7632562752727399
-1.6401668319727392
-1.6401668319727392
-1.757101803107758
-1.7078660257877356
-1.6093944711477182
-1.677093664962742
-1.7324839144477464
-1.6709391927977324
-1.510922916507701
-1.5355408051677124
-1.849418885582765
-1.8063375804277528
-1.683248137127724
-1.615548943312728
-1.7263294422827367
-1.8248009969227534
-1.683248137127724
-1.5970855268177266
-1.6647847206327224
-1.6709391927977324
-1.6340123598077294
-1.590931054652717
-1.6955570814577436
-1.6955570814577436
-1.855573357747775
-1.590931054652717
-1.6093944711477182
-1.7263294422827367
-1.8001831082627426
-1.1293456422776516
-0.4708171206225797
-1.9971262175427773
-1.8371099412527454
-1.6463213041377216
-1.6647847206327224
-2.526410823732866
-2.372549019607845
-1.5170773886727107
-1.7140204979527456
-1.6955570814577436
-1.7694107474377496
-1.6278578876427194
-1.578622110322725
-1.6647847206327224
-1.9048091350677696
-1.757101803107758
-1.5847765824877347
-1.689402609292734
-1.855573357747775
-1.7386383866127564
-1.615548943312728
-1.6032399989827366
-1.966353856717784
-1.7694107474377496
-1.6955570814577436
-1.6955570814577436
-1.7386383866127564
-1.7509473309427481
-1.5847765824877347
-1.6401668319727392
-1.8124920525927626
-1.8371099412527454
-1.6524757763027313
-1.6586302484677409
-1.818646524757745
-1.8432644134177558
-1.7817196917677414
-1.7078660257877356
-1.7386383866127564
-1.818646524757745
-1.7078660257877356
-1.615548943312728
-1.7017115536227536
-1.7878741639327511
-1.5663131659927332
-1.5663131659927332
-1.6217034154777374
-1.849418885582765
-1.6524757763027313
-1.4801505556827075
-1.6955570814577436
-1.757101803107758
-1.6524757763027313
-1.677093664962742
-1.7078660257877356
-1.7694107474377496
-1.7201749701177547
-1.5663131659927332
-1.615548943312728
-1.689402609292734
-1.6586302484677409
-1.6647847206327224
-1.89865466290276
-2.329467714452832
-1.6278578876427194
-1.5540042216627135
-1.5540042216627135
-1.6340123598077294
-1.8371099412527454
-1.6524757763027313
-1.6032399989827366
-1.7078660257877356
-1.892500190737778
-1.757101803107758
-1.683248137127724
-1.7694107474377496
-1.8063375804277528
-1.7017115536227536
-1.5847765824877347
-1.6217034154777374
-1.8248009969227534
-1.7632562752727399
-1.615548943312728
-1.6093944711477182
-1.7324839144477464
-1.7017115536227536
-1.5847765824877347
-1.5663131659927332
-1.6647847206327224
-1.8001831082627426
-1.437069250527695
-0.9816383103176396
-1.5663131659927332
-1.7447928587777384
-1.6032399989827366
-1.5663131659927332
-1.504768444342719
-1.6586302484677409
-1.5970855268177266
-1.4493781948577145
-1.6524757763027313
-1.6709391927977324
-1.510922916507701
-1.4924595000126994
-1.830955469087764
-2.1817603824928202
-1.7694107474377496
-1.5847765824877347
-1.6709391927977324
-1.6955570814577436
-1.683248137127724
-1.5293863330027024
-1.5970855268177266
-1.7817196917677414
-1.7386383866127564
-1.3324432237226955
-1.5478497494977315
-1.8248009969227534
-1.7817196917677414
-1.7632562752727399
-1.6217034154777374
-1.1539635309376628
-0.3292642608275498
-3.0987767350779407
-2.347931130947833
-1.7447928587777384
-1.757101803107758
-1.6401668319727392
-1.6093944711477182
-1.689402609292734
-1.7940286360977609
-1.689402609292734
-1.5232318608377204
-1.7755652196027594
-1.830955469087764
-1.7324839144477464
-1.6278578876427194
-1.6278578876427194
-1.3447521680526875
-0.5569797309325777
-2.495638462907845
-1.3509066402176972
-1.677093664962742
-1.7324839144477464
-1.590931054652717
-1.5540042216627135
-1.7940286360977609
-2.711044988682881
-1.757101803107758
-1.5232318608377204
-1.6586302484677409
-1.7940286360977609
-1.6340123598077294
-1.5601586938277234
-1.5416952773327224
-1.7201749701177547
-1.6586302484677409
-1.6586302484677409
-1.689402609292734
-1.7017115536227536
-1.6709391927977324
-1.6647847206327224
-1.4555326670226965
-1.7447928587777384
-1.689402609292734
-1.5293863330027024
-1.5601586938277234
-1.7017115536227536
-1.7447928587777384
-1.6032399989827366
-1.4863050278477177
-1.6955570814577436
-1.6955570814577436
-1.5355408051677124
-1.3755245288776807
-1.7017115536227536
-1.7694107474377496
-1.6217034154777374
-1.510922916507701
-1.7386383866127564
-1.757101803107758
-1.578622110322725
-1.5170773886727107
-1.5970855268177266
-1.7017115536227536
-1.5970855268177266
-1.5232318608377204
-1.5540042216627135
-1.6093944711477182
-1.7017115536227536
-1.4616871391877062
-1.5232318608377204
-1.7447928587777384
-1.7078660257877356
-1.5970855268177266
-1.6586302484677409
-1.757101803107758
-1.7263294422827367
-1.6093944711477182
-1.6217034154777374
-1.7386383866127564
-1.8801912464077586
-2.077134355687793
-1.4124513618677115
-1.5232318608377204
-1.6586302484677409
-1.615548943312728
-1.6709391927977324
-1.7140204979527456
-1.683248137127724
-1.6217034154777374
-1.5724676381577152
-1.6524757763027313
-1.7447928587777384
-1.615548943312728
-1.467841611352716
-1.5540042216627135
-1.7509473309427481
-1.7509473309427481
-1.6709391927977324
-1.689402609292734
-1.757101803107758
-1.7447928587777384
-1.6524757763027313
-1.6401668319727392
-1.689402609292734
-1.8248009969227534
-1.6463213041377216
-1.6955570814577436
-1.6709391927977324
-1.6463213041377216
-1.6401668319727392
-1.615548943312728
-1.6524757763027313
-1.7878741639327511
-1.6401668319727392
-1.615548943312728
-1.6955570814577436
-1.757101803107758
-1.689402609292734
-1.6278578876427194
-1.5724676381577152
-1.7632562752727399
-1.0678009206276373
-0.02154065257750637
-2.0463619948628
-1.8001831082627426
-1.683248137127724
-1.818646524757745
-2.8402889041478923
-2.1817603824928202
-1.677093664962742
-1.5970855268177266
-1.6032399989827366
-1.6032399989827366
-1.6647847206327224
-1.5970855268177266
-1.6647847206327224
-2.0955977721827947
-1.7509473309427481
-1.6032399989827366
-1.6217034154777374
-1.6647847206327224
-1.7263294422827367
-1.5847765824877347
-1.689402609292734
-1.7263294422827367
-1.7263294422827367
-1.590931054652717
-1.6278578876427194
-1.6586302484677409
-1.4186058340326935
-1.2770529742376913
-1.5724676381577152
-1.6032399989827366
-1.615548943312728
-1.5724676381577152
-1.5601586938277234
-1.6032399989827366
-1.6524757763027313
-1.5724676381577152
-1.6524757763027313
-1.6709391927977324
-1.6709391927977324
-1.6463213041377216
-1.4186058340326935
-1.7447928587777384
-1.7017115536227536
-1.677093664962742
-1.677093664962742
-1.6217034154777374
-1.6217034154777374
-1.7078660257877356
-1.6586302484677409
-1.6278578876427194
-1.6524757763027313
-1.6647847206327224
-1.6586302484677409
-1.6217034154777374
-1.578622110322725
-1.8863457185727683
-1.7632562752727399
-1.6586302484677409
-1.6647847206327224
-1.7201749701177547
-1.689402609292734
-1.7694107474377496
-1.966353856717784
-1.3693700567126987
-1.6093944711477182
-1.590931054652717
-1.5663131659927332
-1.6032399989827366
-1.5293863330027024
-1.683248137127724
-1.6278578876427194
-1.6709391927977324
-1.6524757763027313
-1.5355408051677124
-1.5232318608377204
-1.7078660257877356
-1.6709391927977324
-1.510922916507701
-1.6093944711477182
-1.6647847206327224
-1.7447928587777384
-1.6217034154777374
-1.1231911701126696
-1.437069250527695
-1.6401668319727392
-1.5724676381577152
-1.5478497494977315
-1.5847765824877347
-1.590931054652717
-1.5601586938277234
-1.473996083517698
-1.615548943312728
-1.6093944711477182
-1.6278578876427194
-1.590931054652717
-1.6340123598077294
-1.9478904402227823
-1.89865466290276
-1.590931054652717
-1.7017115536227536
-1.6586302484677409
-1.6709391927977324
-1.5847765824877347
-1.5970855268177266
-1.6463213041377216
-1.6709391927977324
-1.590931054652717
-1.6340123598077294
-1.615548943312728
-1.6217034154777374
-1.689402609292734
-1.7263294422827367
-1.6463213041377216
-1.6463213041377216
-1.590931054652717
-1.6032399989827366
-1.6340123598077294
-1.6401668319727392
-1.6586302484677409
-1.6340123598077294
-1.073955392792647
-0.6123699804175822
-2.877215737137895
-1.8432644134177558
-1.4432237226927047
-1.6524757763027313
-1.6586302484677409
-1.5663131659927332
-1.5540042216627135
-1.5170773886727107
-1.5847765824877347
-1.5232318608377204
-1.5232318608377204
-1.5663131659927332
-1.5970855268177266
-1.4924595000126994
-1.5293863330027024
-1.473996083517698
-1.7201749701177547
-1.6586302484677409
-1.5601586938277234
-1.6217034154777374
-1.6524757763027313
-1.6463213041377216
-1.5170773886727107
-1.4863050278477177
-1.689402609292734
-1.578622110322725
-1.4309147783627132
-1.4432237226927047
-1.5970855268177266
-1.5847765824877347
-1.4432237226927047
-1.3693700567126987
-1.5970855268177266
-1.5970855268177266
-1.5355408051677124
-1.5293863330027024
-1.578622110322725
-1.6032399989827366
-1.4801505556827075
-1.4616871391877062
-1.5970855268177266
-1.615548943312728
-1.5970855268177266
-1.578622110322725
-1.7201749701177547
-1.6401668319727392
-1.6278578876427194
-1.473996083517698
-1.5724676381577152
-1.5663131659927332
-1.5601586938277234
-1.5232318608377204
-1.5416952773327224
-1.5970855268177266
-1.5724676381577152
-1.4616871391877062
-1.5847765824877347
-1.4309147783627132
-1.5970855268177266
-1.578622110322725
-1.5170773886727107
-1.7263294422827367
-1.141654586607671
-1.3693700567126987
-1.9786628010477763
-1.5478497494977315
-1.5355408051677124
-1.4863050278477177
-1.4432237226927047
-1.4555326670226965
-1.4309147783627132
-1.5232318608377204
-1.6093944711477182
-1.5416952773327224
-1.5601586938277234
-1.5540042216627135
-1.510922916507701
-1.5170773886727107
-1.3693700567126987
-1.4863050278477177
-1.3570611123826792
-1.3385976958876775
-1.4124513618677115
-1.5416952773327224
-1.4986139721777092
-1.3755245288776807
-0.5446707866025856
-1.3878334732077002
-1.4247603061977032
-1.6278578876427194
-1.689402609292734
-1.689402609292734
-1.578622110322725
-1.6032399989827366
-2.581801073217871
-2.298695353627811
-1.6093944711477182
-1.4863050278477177
-1.4309147783627132
-1.3878334732077002
-1.6463213041377216
-1.4986139721777092
-1.4493781948577145
-1.5355408051677124
-1.6524757763027313
-1.689402609292734
-1.7940286360977609
-1.830955469087764
-1.7632562752727399
-1.683248137127724
-1.7140204979527456
-1.7694107474377496
-1.7078660257877356
-1.5170773886727107
-1.7447928587777384
-1.6463213041377216
-1.6955570814577436
-1.6401668319727392
-1.615548943312728
-1.6278578876427194
-1.141654586607671
-0.360036621652543
-1.5416952773327224
-1.5847765824877347
-1.6586302484677409
-2.070979883522784
-2.711044988682881
-1.7878741639327511
-1.7878741639327511
-1.6093944711477182
-1.6093944711477182
-1.6217034154777374
-1.677093664962742
-1.5293863330027024
-1.6093944711477182
-1.5847765824877347
-1.590931054652717
-1.6647847206327224
-1.5663131659927332
-1.5970855268177266
-1.578622110322725
-1.5601586938277234
-1.6278578876427194
-1.6032399989827366
-1.6463213041377216
-1.6463213041377216
-1.5663131659927332
-1.5355408051677124
-1.5416952773327224
-1.6093944711477182
-1.6217034154777374
-1.5416952773327224
-1.5355408051677124
-1.6586302484677409
-1.510922916507701
-1.3078253350626845
-1.5540042216627135
-1.4924595000126994
-1.504768444342719
-1.4986139721777092
-1.5170773886727107
-1.578622110322725
-1.578622110322725
-1.4555326670226965
-1.4863050278477177
-1.5663131659927332
-1.6093944711477182
-1.5970855268177266
-1.5540042216627135
-1.7017115536227536
-1.7078660257877356
-1.5232318608377204
-1.5970855268177266
-1.6647847206327224
-1.590931054652717
-1.510922916507701
-1.5170773886727107
-1.615548943312728
-1.6586302484677409
-1.578622110322725
-1.473996083517698
-1.6463213041377216
-1.5416952773327224
-1.6278578876427194
-1.818646524757745
-1.178581419597674
-1.510922916507701
-1.473996083517698
-1.4186058340326935
-1.6032399989827366
-1.5416952773327224
-1.5540042216627135
-1.4616871391877062
-1.5170773886727107
-1.6093944711477182
-1.6340123598077294
-1.5416952773327224
-1.8740367742427766
-1.677093664962742
-1.6463213041377216
-1.5601586938277234
-1.5232318608377204
-1.5847765824877347
-1.6093944711477182
-1.578622110322725
-1.5724676381577152
-1.5232318608377204
-1.5724676381577152
-1.5540042216627135
-1.4863050278477177
-1.3755245288776807
-1.4555326670226965
-1.4924595000126994
-1.5355408051677124
-1.5478497494977315
-1.5663131659927332
-1.5540042216627135
-1.437069250527695
-1.5232318608377204
-1.5478497494977315
-1.5663131659927332
-1.4801505556827075
-1.5293863330027024
-1.5970855268177266
-1.400142417537692
-1.5170773886727107
-1.5601586938277234
-1.6032399989827366
-1.5724676381577152
-1.4801505556827075
-1.4616871391877062
-1.4924595000126994
-1.5663131659927332
-1.5724676381577152
-1.5540042216627135
-1.4432237226927047
-1.6278578876427194
-1.5847765824877347
-1.3201342793926762
-1.5601586938277234
-1.6032399989827366
-1.5416952773327224
-0.8647033391826209
0.1261666793825056
-1.7140204979527456
-1.3570611123826792
-1.178581419597674
-1.178581419597674
-1.2647440299076718
-1.3509066402176972
-1.2708985020726815
-1.9294270237277809
-2.1079067165127863
-1.590931054652717
-1.3816790010426905
-1.3509066402176972
-1.3447521680526875
-1.4924595000126994
-1.437069250527695
-1.39398794537271
-1.5355408051677124
-1.5170773886727107
-1.5170773886727107
-1.504768444342719
-1.578622110322725
-1.5601586938277234
-1.473996083517698
-1.6278578876427194
-1.504768444342719
-1.4924595000126994
-1.5847765824877347
-1.5170773886727107
-1.5293863330027024
-1.590931054652717
-1.578622110322725
-1.473996083517698
-1.590931054652717
-1.578622110322725
-1.5970855268177266
-1.5232318608377204
-1.3324432237226955
-1.6217034154777374
-1.6524757763027313
-1.5724676381577152
-1.5170773886727107
-1.590931054652717
-1.7078660257877356
-1.473996083517698
-1.4801505556827075
-1.5601586938277234
-1.510922916507701
-1.5540042216627135
-1.5170773886727107
-1.504768444342719
-1.5293863330027024
-1.6955570814577436
-1.5293863330027024
-1.5847765824877347
-1.504768444342719
-1.6524757763027313
-1.5478497494977315
-1.4924595000126994
-1.510922916507701
-1.615548943312728
-1.5355408051677124
-1.6647847206327224
-1.9355814958927628
-1.3078253350626845
-1.3755245288776807
-1.5478497494977315
-1.504768444342719
-1.5170773886727107
-1.510922916507701
-1.4555326670226965
-1.3570611123826792
-1.6217034154777374
-1.504768444342719
-1.4062968897027015
-1.4801505556827075
-1.5416952773327224
-1.6093944711477182
-1.4247603061977032
-1.1724269474326645
-1.6032399989827366
-1.5970855268177266
-1.4924595000126994
-1.504768444342719
-1.5416952773327224
-1.6032399989827366
-1.5232318608377204
-1.5478497494977315
-1.6463213041377216
-1.590931054652717
-1.6032399989827366
-1.6093944711477182
-1.5847765824877347
-1.8248009969227534
-1.7201749701177547
-1.5540042216627135
-1.578622110322725
-1.615548943312728
-1.5663131659927332
-1.5416952773327224
-1.5355408051677124
-1.5724676381577152
-1.578622110322725
-1.5724676381577152
-1.5724676381577152
-1.6463213041377216
-1.6647847206327224
-1.7201749701177547
-1.677093664962742
-1.6463213041377216
-1.5847765824877347
-1.5663131659927332
-1.4986139721777092
-1.6093944711477182
-1.689402609292734
-1.6093944711477182
-1.5540042216627135
-1.5293863330027024
-1.5355408051677124
-1.6647847206327224
-1.0247196154726523
0.23079270618753256
0.17540245670252808
-1.9232725515627715
-1.6463213041377216
-1.6093944711477182
-2.5387197680628573
-2.471020574247862
-1.5847765824877347
-1.4924595000126994
-1.5416952773327224
-1.5970855268177266
-1.5232318608377204
-1.5293863330027024
-1.8001831082627426
-1.972508328882766
-1.6032399989827366
-1.5478497494977315
-1.6032399989827366
-1.6340123598077294
-1.5170773886727107
-1.4801505556827075
-1.510922916507701
-1.689402609292734
-1.5970855268177266
-1.578622110322725
-1.615548943312728
-1.6340123598077294
-1.966353856717784
-2.2371506319778245
-1.7140204979527456
-1.7386383866127564
-1.6955570814577436
-1.5970855268177266
-1.6032399989827366
-1.6709391927977324
-1.677093664962742
-0.4154268711375475
-0.5262073701075842
-2.526410823732866
-1.5232318608377204
-1.5663131659927332
-1.3509066402176972
-1.683248137127724
-1.7447928587777384
-2.1325246051727973
-2.729508405177883
-1.8248009969227534
-1.689402609292734
-1.6524757763027313
-1.7386383866127564
-1.7878741639327511
-1.7940286360977609
-1.8063375804277528
-1.9478904402227823
-1.849418885582765
-1.7817196917677414
-2.0217441062027888
-1.9171180793977614
-1.954044912387765
-1.9601993845527748
-1.8863457185727683
-1.954044912387765
-1.8863457185727683
-1.9355814958927628
-1.91096360723278
-1.830955469087764
-1.830955469087764
-1.8248009969227534
-1.8001831082627426
-1.7694107474377496
-1.972508328882766
-1.8740367742427766
-1.9355814958927628
-1.8740367742427766
-1.855573357747775
-1.9417359680577726
-1.9786628010477763
-2.0217441062027888
-1.9786628010477763
-2.0463619948628
-2.077134355687793
-2.070979883522784
-1.9355814958927628
-1.830955469087764
-2.083288827852803
-1.954044912387765
-1.8863457185727683
-1.9048091350677696
-1.8678823020777668
-1.818646524757745
-1.7447928587777384
-1.7632562752727399
-1.7201749701177547
-1.7632562752727399
-1.6955570814577436
-1.6709391927977324
-1.590931054652717
-1.578622110322725
-1.7324839144477464
-1.7509473309427481
-2.0278985783677985
-1.3509066402176972
-1.5663131659927332
-1.504768444342719
-1.4247603061977032
-1.4432237226927047
-1.3878334732077002
-1.2770529742376913
-1.3755245288776807
-1.5232318608377204
-1.4432237226927047
-1.3816790010426905
-1.6401668319727392
-1.5663131659927332
-1.510922916507701
-1.4247603061977032
-1.5540042216627135
-1.510922916507701
-1.4986139721777092
-1.39398794537271
-1.3385976958876775
-1.4801505556827075
-1.000101726812641
-0.2738740113425453
-1.39398794537271
-1.467841611352716
-1.7078660257877356
-1.5293863330027024
-1.467841611352716
-1.5601586938277234
-1.7201749701177547
-2.6064189618778553
-2.04020752269779
-1.5663131659927332
-1.6278578876427194
-1.5540042216627135
-1.4863050278477177
-1.5478497494977315
-1.4432237226927047
-1.504768444342719
-1.5663131659927332
-1.467841611352716
-1.510922916507701
-1.5540042216627135
-1.473996083517698
-1.467841611352716
-1.5355408051677124
-1.5540042216627135
-1.4555326670226965
-1.4616871391877062
-1.510922916507701
-1.5170773886727107
-1.5355408051677124
-1.9294270237277809
-1.5601586938277234
-1.6524757763027313
-1.5478497494977315
-1.4309147783627132
-1.4616871391877062
-1.5232318608377204
-1.4863050278477177
-1.4801505556827075
-1.437069250527695
-1.5478497494977315
-1.5478497494977315
-1.5232318608377204
-1.4062968897027015
-1.5355408051677124
-1.5601586938277234
-1.4493781948577145
-1.4124513618677115
-1.5293863330027024
-1.4616871391877062
-1.4555326670226965
-1.4801505556827075
-1.5170773886727107
-1.5724676381577152
-1.6093944711477182
-1.3816790010426905
-1.578622110322725
-1.3324432237226955
-1.3016708628976748
-1.5540042216627135
-1.615548943312728
-1.6709391927977324
-1.8124920525927626
-1.9786628010477763
-1.4616871391877062
-1.7386383866127564
-1.7324839144477464
-1.7078660257877356
-1.7386383866127564
-1.8001831082627426
-1.7017115536227536
-1.5293863330027024
-1.8678823020777668
-1.7878741639327511
-1.8432644134177558
-1.818646524757745
-1.8124920525927626
-1.855573357747775
-1.89865466290276
-1.8063375804277528
-1.7694107474377496
-1.8371099412527454
-1.89865466290276
-1.849418885582765
-1.7755652196027594
-1.6340123598077294
-1.8740367742427766
-1.8740367742427766
-1.7447928587777384
-1.7324839144477464
-1.7694107474377496
-1.7386383866127564
-1.6647847206327224
-1.6586302484677409
-1.6093944711477182
-1.7017115536227536
-1.6586302484677409
-1.6401668319727392
-1.6524757763027313
-1.5847765824877347
-1.677093664962742
-1.6032399989827366
-1.590931054652717
-1.7509473309427481
-1.6401668319727392
-1.6032399989827366
-1.6093944711477182
-1.6463213041377216
-1.5478497494977315
-1.4309147783627132
-1.39398794537271
-1.5416952773327224
-1.4124513618677115
-1.2647440299076718
-1.5540042216627135
-1.5232318608377204
-1.4493781948577145
-1.4186058340326935
-1.39398794537271
-1.5293863330027024
-1.5232318608377204
-0.9262480608326351
-1.0801098649576568
-4.212736196943122
-2.04020752269779
-1.6093944711477182
-1.578622110322725
-1.8740367742427766
-1.6217034154777374
-0.427735815467567
-1.1662724752676545
-1.5355408051677124
-1.615548943312728
-1.615548943312728
-1.615548943312728
-1.6401668319727392
-1.4062968897027015
-1.4801505556827075
-1.6217034154777374
-1.5663131659927332
-1.5540042216627135
-1.7940286360977609
-1.590931054652717
-1.5601586938277234
-1.5847765824877347
-1.5601586938277234
-1.5663131659927332
-1.6093944711477182
-1.6217034154777374
-1.6032399989827366
-1.5663131659927332
-1.5601586938277234
-1.5663131659927332
-1.578622110322725
-1.5847765824877347
-1.7017115536227536
-1.615548943312728
-1.5540042216627135
-1.4924595000126994
-1.4555326670226965
-1.467841611352716
-1.510922916507701
-1.504768444342719
-1.510922916507701
-1.504768444342719
-1.4555326670226965
-1.4432237226927047
-1.4432237226927047
-1.467841611352716
-1.5170773886727107
-1.5232318608377204
-1.4924595000126994
-1.5232318608377204
-1.5540042216627135
-1.5478497494977315
-1.5293863330027024
-1.215508252587677
-0.16309351237253633
-0.37850003814754446
-1.3755245288776807
-1.7078660257877356
-2.760280766002876
-1.9848172732127856
-1.473996083517698
-1.4432237226927047
-1.437069250527695
-1.4432237226927047
-1.3878334732077002
-1.4186058340326935
-1.4616871391877062
-1.4924595000126994
-1.467841611352716
-1.4555326670226965
-1.4863050278477177
-1.467841611352716
-1.4247603061977032
-0.2984919000025288
-0.44619923196256844
-1.5663131659927332
-1.4062968897027015
-1.3755245288776807
-1.467841611352716
-1.4924595000126994
-1.5170773886727107
-1.4247603061977032
-1.467841611352716
-1.4986139721777092
-1.5232318608377204
-1.4863050278477177
-1.437069250527695
-2.0217441062027888
-2.6371913227028756
-1.615548943312728
-1.578622110322725
-1.5847765824877347
-1.5970855268177266
-1.5293863330027024
-1.504768444342719
-1.5478497494977315
-1.590931054652717
-1.5232318608377204
-1.6217034154777374
-1.6093944711477182
-1.6032399989827366
-1.4986139721777092
-1.7017115536227536
-1.6278578876427194
-1.5355408051677124
-0.3538821494875609
-2.2740774649678275
-1.3755245288776807
-1.4309147783627132
-1.615548943312728
-1.5416952773327224
-1.5540042216627135
-1.6463213041377216
-2.55718318455786
-1.892500190737778
-1.3570611123826792
-1.5847765824877347
-1.4555326670226965
-1.4247603061977032
-1.473996083517698
-1.1539635309376628
-0.360036621652543
-1.5478497494977315
-1.6524757763027313
-1.6217034154777374
-1.6524757763027313
-1.683248137127724
-1.6278578876427194
-1.8801912464077586
-2.575646601052861
-1.9786628010477763
-1.5540042216627135
-1.5293863330027024
-1.5478497494977315
-1.467841611352716
-1.5293863330027024
-1.3816790010426905
-1.4616871391877062
-1.4924595000126994
-1.4801505556827075
-1.473996083517698
-1.5170773886727107
-1.4555326670226965
-1.3509066402176972
-1.5355408051677124
-1.4493781948577145
-1.4186058340326935
-1.4309147783627132
-1.400142417537692
-1.3878334732077002
-1.467841611352716
-1.467841611352716
-1.4432237226927047
-1.5601586938277234
-1.5416952773327224
-1.5416952773327224
-1.4247603061977032
-1.3816790010426905
-1.6524757763027313
-1.5232318608377204
-1.467841611352716
-1.5232318608377204
-1.4863050278477177
-1.4863050278477177
-1.4555326670226965
-1.4124513618677115
-1.504768444342719
-1.5663131659927332
-1.4924595000126994
-1.5232318608377204
-1.4863050278477177
-1.5416952773327224
-1.7817196917677414
-1.683248137127724
-1.6586302484677409
-1.6032399989827366
-1.6524757763027313
-1.6524757763027313
-1.6278578876427194
-1.6032399989827366
-1.504768444342719
-1.5293863330027024
-1.578622110322725
-1.7263294422827367
-2.009435161872797
-1.3816790010426905
-1.5478497494977315
-1.4801505556827075
-1.5970855268177266
-1.4493781948577145
-1.473996083517698
-1.4924595000126994
-1.5601586938277234
-1.5232318608377204
-1.504768444342719
-1.504768444342719
-1.5847765824877347
-1.5478497494977315
-1.473996083517698
-1.510922916507701
-1.7078660257877356
-1.6217034154777374
-1.6217034154777374
-1.6093944711477182
-1.6524757763027313
-1.6032399989827366
-1.5724676381577152
-1.5416952773327224
-1.683248137127724
-1.5663131659927332
-1.5601586938277234
-1.590931054652717
-1.473996083517698
-1.4924595000126994
-1.6032399989827366
-1.5170773886727107
-1.6586302484677409
-1.615548943312728
-1.5478497494977315
-1.6093944711477182
-1.5663131659927332
-1.615548943312728
-1.6401668319727392
-1.590931054652717
-1.6647847206327224
-1.689402609292734
-1.6278578876427194
-1.7447928587777384
-1.6524757763027313
-1.615548943312728
-1.6093944711477182
-1.6586302484677409
-1.683248137127724
-1.615548943312728
-1.5601586938277234
-1.5293863330027024
-1.510922916507701
-1.5355408051677124
-1.590931054652717
-1.504768444342719
-1.504768444342719
-1.8432644134177558
-1.1662724752676545
-0.37850003814754446
-1.6401668319727392
-1.6586302484677409
-2.009435161872797
-2.507947407237865
-1.7386383866127564
-1.5663131659927332
-1.5601586938277234
-1.5293863330027024
-1.6093944711477182
-1.6278578876427194
-1.1539635309376628
-1.289361918567683
-1.5724676381577152
-1.5601586938277234
-1.590931054652717
-1.5232318608377204
-1.4186058340326935
-1.4493781948577145
-1.4493781948577145
-1.5478497494977315
-1.437069250527695
-1.4863050278477177
-1.5724676381577152
-1.4493781948577145
-1.3816790010426905
-1.6647847206327224
-1.5601586938277234
-1.590931054652717
-1.5970855268177266
-1.615548943312728
-1.5540042216627135
-1.5478497494977315
-1.5416952773327224
-1.5232318608377204
-1.4493781948577145
-1.6032399989827366
-1.615548943312728
-1.504768444342719
-1.3755245288776807
-1.6647847206327224
-1.5540042216627135
-1.4801505556827075
-1.473996083517698
-1.5355408051677124
-1.5847765824877347
-1.510922916507701
-1.4801505556827075
-1.5232318608377204
-1.5416952773327224
-1.5540042216627135
-1.6032399989827366
-1.5478497494977315
-1.4186058340326935
-1.6217034154777374
-1.5355408051677124
-1.5170773886727107
-1.5232318608377204
-1.467841611352716
-1.5416952773327224
-1.4924595000126994
-1.4616871391877062
-1.615548943312728
-1.7817196917677414
-1.0924188092876486
-1.3878334732077002
-1.2708985020726815
-1.363215584547689
-1.5724676381577152
-1.4616871391877062
-1.437069250527695
-1.3570611123826792
-1.3385976958876775
-1.3693700567126987
-1.289361918567683
-1.437069250527695
-1.4062968897027015
-1.3816790010426905
-1.3693700567126987
-1.4062968897027015
-1.3385976958876775
-1.2093537804226673
-1.4863050278477177
-1.4801505556827075
-1.3570611123826792
-1.4186058340326935
-1.4124513618677115
-1.3385976958876775
-1.3201342793926762
-1.3385976958876775
-1.3139798072276945
-1.3447521680526875
-1.3078253350626845
-1.3324432237226955
-1.2832074464026733
-1.3201342793926762
-1.510922916507701
-1.3447521680526875
-1.3139798072276945
-1.363215584547689
-1.3509066402176972
-1.3816790010426905
-1.4493781948577145
-1.363215584547689
-1.3570611123826792
-1.3385976958876775
-1.3324432237226955
-1.3693700567126987
-1.3385976958876775
-1.3693700567126987
-1.4986139721777092
-1.4247603061977032
-1.400142417537692
-1.3201342793926762
-1.3816790010426905
-1.437069250527695
-1.4616871391877062
-1.4186058340326935
-1.4432237226927047
-1.4124513618677115
-1.363215584547689
-0.8462399226876194
-0.1692479845375183
-1.5416952773327224
-1.5724676381577152
-1.5293863330027024
-1.4616871391877062
-1.510922916507701
-1.5478497494977315
-2.089443300017785
-2.3663945474428347
-1.4986139721777092
-1.4247603061977032
-1.4555326670226965
-1.4616871391877062
-1.4924595000126994
-1.3693700567126987
-1.3509066402176972
-1.5478497494977315
-1.5232318608377204
-1.4801505556827075
-1.4924595000126994
-1.467841611352716
-1.4247603061977032
-1.4924595000126994
-1.4555326670226965
-1.4801505556827075
-1.4863050278477177
-1.4986139721777092
-1.5724676381577152
-1.5478497494977315
-1.8740367742427766
-1.6278578876427194
-1.4616871391877062
-1.5478497494977315
-1.504768444342719
-1.5170773886727107
-1.5355408051677124
-1.437069250527695
-1.437069250527695
-1.473996083517698
-1.4924595000126994
-1.473996083517698
-1.504768444342719
-1.25243508557768
-1.178581419597674
-1.4309147783627132
-1.467841611352716
-0.8277765061926179
-1.6217034154777374
-1.8432644134177558
-1.5540042216627135
-1.4493781948577145
-1.4309147783627132
-1.4801505556827075
-1.4493781948577145
-0.7723862567076134
-0.895475700007614
-1.504768444342719
-1.4986139721777092
-1.578622110322725
-1.5478497494977315
-1.578622110322725
-1.5663131659927332
-2.1448335495027893
-2.4648661020828517
-1.5847765824877347
-1.4555326670226965
-1.3816790010426905
-1.39398794537271
-1.4493781948577145
-1.4863050278477177
-1.2031993082576575
-1.39398794537271
-1.4432237226927047
-1.3878334732077002
-1.400142417537692
-1.4062968897027015
-1.4124513618677115
-1.3693700567126987
-1.3816790010426905
-1.5232318608377204
-1.5232318608377204
-1.3878334732077002
-1.5355408051677124
-1.5540042216627135
-1.4493781948577145
-1.6524757763027313
-1.5355408051677124
-1.6093944711477182
-1.590931054652717
-1.6032399989827366
-1.5293863330027024
-1.4863050278477177
-1.467841611352716
-1.39398794537271
-1.4186058340326935
-1.4062968897027015
-1.3755245288776807
-1.3324432237226955
-1.2031993082576575
-1.4124513618677115
-1.3201342793926762
-1.3447521680526875
-1.3324432237226955
-1.3385976958876775
-1.3509066402176972
-1.3755245288776807
-1.437069250527695
-1.4986139721777092
-1.4493781948577145
-1.3570611123826792
-1.578622110322725
-1.473996083517698
-1.39398794537271
-1.6217034154777374
-1.467841611352716
-1.473996083517698
-1.4309147783627132
-1.590931054652717
-1.8740367742427766
-1.2093537804226673
-1.4124513618677115
-0.9324025329976448
-0.1938658731975296
-1.5293863330027024
-1.5847765824877347
-2.286386409297819
-2.2679229928028177
-1.6524757763027313
-1.4493781948577145
-1.4432237226927047
-1.4247603061977032
-1.4247603061977032
-1.4186058340326935
-1.3816790010426905
-1.5232318608377204
-1.473996083517698
-1.437069250527695
-1.437069250527695
-1.5170773886727107
-1.4309147783627132
-1.3755245288776807
-1.5663131659927332
-1.578622110322725
-1.5232318608377204
-1.5416952773327224
-1.615548943312728
-1.5478497494977315
-1.4924595000126994
-1.4801505556827075
-1.4863050278477177
-1.5293863330027024
-1.5170773886727107
-1.5232318608377204
-1.4186058340326935
-1.3693700567126987
-1.5970855268177266
-1.6093944711477182
-1.6093944711477182
-1.5540042216627135
-1.5232318608377204
-1.5355408051677124
-1.578622110322725
-1.5478497494977315
-1.5416952773327224
-1.4986139721777092
-1.578622110322725
-1.578622110322725
-1.5478497494977315
-1.6586302484677409
-1.6093944711477182
-1.5232318608377204
-1.5724676381577152
-1.4801505556827075
-1.615548943312728
-1.5724676381577152
-1.5478497494977315
-1.5540042216627135
-1.5170773886727107
-1.5540042216627135
-1.4924595000126994
-1.3878334732077002
-1.4986139721777092
-1.504768444342719
-1.5355408051677124
-1.677093664962742
-1.8801912464077586
-1.1539635309376628
-1.4247603061977032
-1.400142417537692
-1.3878334732077002
-1.3816790010426905
-1.5478497494977315
-1.4616871391877062
-1.5416952773327224
-1.4924595000126994
-1.437069250527695
-1.590931054652717
-1.6093944711477182
-1.5601586938277234
-1.5232318608377204
-1.4555326670226965
-1.4863050278477177
-1.5540042216627135
-1.467841611352716
-1.4432237226927047
-1.4863050278477177
-1.4863050278477177
-1.510922916507701
-1.5232318608377204
-1.221662724752659
-1.2647440299076718
-1.467841611352716
-1.4247603061977032
-1.4432237226927047
-1.4801505556827075
-1.4247603061977032
-1.467841611352716
-1.5170773886727107
-1.5170773886727107
-1.4124513618677115
-1.4124513618677115
-1.4616871391877062
-1.437069250527695
-1.4247603061977032
-1.5663131659927332
-1.5170773886727107
-1.4863050278477177
-1.4062968897027015
-1.5724676381577152
-1.5478497494977315
-1.5170773886727107
-1.510922916507701
-1.4863050278477177
-1.4924595000126994
-1.4986139721777092
-1.4555326670226965
-1.5170773886727107
-1.3878334732077002
-1.590931054652717
-1.5355408051677124
-1.5663131659927332
-1.510922916507701
-1.4924595000126994
-0.8831667556776225
-0.02154065257750637
-1.9355814958927628
-1.6340123598077294
-1.5847765824877347
-1.5970855268177266
-1.5724676381577152
-1.5847765824877347
-2.2433051041428067
-2.1017522443478045
-1.5170773886727107
-1.4801505556827075
-1.5355408051677124
-1.504768444342719
-1.5478497494977315
-1.5355408051677124
-1.5293863330027024
-1.5847765824877347
-1.590931054652717
-1.6032399989827366
-1.6524757763027313
-1.6217034154777374
-1.578622110322725
-1.7755652196027594
-1.6032399989827366
-1.6463213041377216
-1.6709391927977324
-1.683248137127724
-1.6278578876427194
-1.6093944711477182
-1.6217034154777374
-1.5540042216627135
-1.7078660257877356
-1.7078660257877356
-1.6955570814577436
-1.7140204979527456
-1.6955570814577436
-1.89865466290276
-1.7140204979527456
-1.6524757763027313
-1.8001831082627426
-1.8063375804277528
-1.8248009969227534
-1.8124920525927626
-1.8124920525927626
-1.818646524757745
-1.8001831082627426
-1.6955570814577436
-1.8432644134177558
-1.7386383866127564
-1.6401668319727392
-1.9232725515627715
-1.8063375804277528
-1.7694107474377496
-1.818646524757745
-1.8248009969227534
-1.8678823020777668
-1.7940286360977609
-1.7817196917677414
-1.757101803107758
-1.7386383866127564
-1.7755652196027594
-1.7755652196027594
-1.8248009969227534
-2.187914854657802
-1.5478497494977315
-1.5663131659927332
-1.6524757763027313
-1.7078660257877356
-1.7509473309427481
-1.7078660257877356
-1.683248137127724
-1.7324839144477464
-1.7324839144477464
-1.7201749701177547
-1.7201749701177547
-1.7632562752727399
-1.7201749701177547
-1.757101803107758
-1.91096360723278
-1.892500190737778
-1.818646524757745
-1.849418885582765
-1.7694107474377496
-1.6955570814577436
-1.7694107474377496
-1.0247196154726523
-1.9786628010477763
-2.2925408814628288
-1.6647847206327224
-1.7078660257877356
-1.6955570814577436
-1.5970855268177266
-1.590931054652717
-1.677093664962742
-1.5293863330027024
-1.4555326670226965
-1.5355408051677124
-1.5478497494977315
-1.437069250527695
-1.3755245288776807
-1.3509066402176972
-1.4432237226927047
-1.5970855268177266
-1.5293863330027024
-1.3509066402176972
-1.1478090587726528
-1.326288751557686
-1.3139798072276945
-1.2339716690826785
-1.2278171969176688
-1.39398794537271
-1.326288751557686
-1.3078253350626845
-1.2770529742376913
-1.178581419597674
-1.1539635309376628
-1.3693700567126987
-1.3201342793926762
-1.3816790010426905
-1.6093944711477182
-1.4247603061977032
-0.8708578113476306
-0.20002034536253932
-1.5416952773327224
-1.289361918567683
-0.7231504793875909
-2.3540856031128428
-1.3016708628976748
-1.3509066402176972
-1.3509066402176972
-1.3139798072276945
-1.3201342793926762
-1.3447521680526875
-2.187914854657802
-1.5601586938277234
-1.2708985020726815
-1.2401261412476885
-1.3016708628976748
-1.2832074464026733
-1.2647440299076718
-1.289361918567683
-1.2647440299076718
-1.2832074464026733
-1.3693700567126987
-1.3693700567126987
-1.326288751557686
-1.2955163907326928
-1.5601586938277234
-1.3878334732077002
-1.437069250527695
-1.3816790010426905
-1.363215584547689
-1.3509066402176972
-1.3509066402176972
-1.3878334732077002
-1.4062968897027015
-1.3878334732077002
-1.4924595000126994
-1.4616871391877062
-1.4124513618677115
-1.215508252587677
-1.4555326670226965
-1.3509066402176972
-1.39398794537271
-1.437069250527695
-1.5416952773327224
-1.5355408051677124
-1.504768444342719
-1.4986139721777092
-1.4555326670226965
-1.510922916507701
-1.473996083517698
-1.467841611352716
-1.5478497494977315
-1.39398794537271
-1.6032399989827366
-1.5663131659927332
-1.504768444342719
-1.4924595000126994
-1.4863050278477177
-1.4309147783627132
-1.4801505556827075
-1.4801505556827075
-1.578622110322725
-1.5293863330027024
-1.5232318608377204
-1.5540042216627135
-1.5601586938277234
-2.2371506319778245
-1.8001831082627426
-1.5355408051677124
-1.5293863330027024
-1.5232318608377204
-1.5540042216627135
-1.5540042216627135
-1.5970855268177266
-1.5970855268177266
-1.4801505556827075
-1.5478497494977315
-1.6586302484677409
-1.6524757763027313
-1.5540042216627135
-1.2770529742376913
-1.510922916507701
-1.5970855268177266
-1.5970855268177266
-1.6401668319727392
-1.5970855268177266
-1.5663131659927332
-1.6032399989827366
-1.590931054652717
-1.5293863330027024
-1.6524757763027313
-1.5970855268177266
-1.6093944711477182
-1.5232318608377204
-1.3878334732077002
-1.6463213041377216
-1.6093944711477182
-1.590931054652717
-1.6524757763027313
-1.5847765824877347
-1.5601586938277234
-1.5847765824877347
-1.5601586938277234
-1.5663131659927332
-1.578622110322725
-1.4801505556827075
-1.6647847206327224
-1.5847765824877347
-1.6586302484677409
-1.6647847206327224
-1.5847765824877347
-1.5601586938277234
-1.5416952773327224
-1.5540042216627135
-1.5847765824877347
-1.5540042216627135
-1.5355408051677124
-1.5724676381577152
-1.5232318608377204
-1.4493781948577145
-1.4493781948577145
-0.8277765061926179
0.4400447597975588
-1.7940286360977609
-1.5847765824877347
-1.5232318608377204
-1.437069250527695
-1.4432237226927047
-1.7386383866127564
-2.5941100175478624
-1.7017115536227536
-1.3693700567126987
-1.400142417537692
-1.4309147783627132
-1.467841611352716
-1.5232318608377204
-1.8863457185727683
-1.7817196917677414
-1.590931054652717
-1.5663131659927332
-1.4924595000126994
-1.5663131659927332
-1.615548943312728
-1.5540042216627135
-1.504768444342719
-1.6340123598077294
-1.5847765824877347
-1.5724676381577152
-1.5663131659927332
-1.5540042216627135
-1.954044912387765
-1.7140204979527456
-1.5232318608377204
-1.6093944711477182
-1.5478497494977315
-1.6093944711477182
-1.6032399989827366
-1.5724676381577152
-1.615548943312728
-1.6586302484677409
-1.590931054652717
-1.689402609292734
-1.6463213041377216
-1.3570611123826792
-1.3447521680526875
-1.5478497494977315
-1.6032399989827366
-1.5601586938277234
-1.5601586938277234
-1.6524757763027313
-1.5847765824877347
-1.5663131659927332
-1.6278578876427194
-1.6401668319727392
-1.6093944711477182
-1.578622110322725
-1.6093944711477182
-1.5724676381577152
-1.7140204979527456
-1.6586302484677409
-1.6401668319727392
-1.6401668319727392
-1.6340123598077294
-1.578622110322725
-1.7694107474377496
-2.0463619948628
-1.326288751557686
-1.510922916507701
-1.4924595000126994
-1.5478497494977315
-1.5478497494977315
-1.4309147783627132
-1.7632562752727399
-1.689402609292734
-1.677093664962742
-1.6709391927977324
-1.6647847206327224
-1.683248137127724
-1.6709391927977324
-1.6340123598077294
-1.689402609292734
-1.6340123598077294
-1.6586302484677409
-1.683248137127724
-1.6340123598077294
-1.467841611352716
-1.6955570814577436
-1.5416952773327224
-1.6647847206327224
-1.6401668319727392
-1.5847765824877347
-1.6032399989827366
-1.6217034154777374
-1.677093664962742
-1.6463213041377216
-1.5416952773327224
-1.6955570814577436
-1.6955570814577436
-1.6586302484677409
-1.4863050278477177
-1.7263294422827367
-1.6278578876427194
-1.6093944711477182
-1.6524757763027313
-1.6586302484677409
-1.6340123598077294
-1.6463213041377216
-1.5478497494977315
-1.6647847206327224
-1.590931054652717
-1.504768444342719
-1.5416952773327224
-1.5724676381577152
-1.510922916507701
-1.7817196917677414
-1.7386383866127564
-1.7017115536227536
-1.7017115536227536
-1.615548943312728
-1.5970855268177266
-1.7017115536227536
-1.6647847206327224
-1.677093664962742
-1.1170366979476598
-0.0707764298975011
-2.04020752269779
-1.473996083517698
-2.975687291777912
-2.483329518577854
-1.7632562752727399
-1.6524757763027313
-1.6032399989827366
-1.5970855268177266
-1.590931054652717
-1.5416952773327224
-1.6278578876427194
-1.5847765824877347
-1.6032399989827366
-1.5416952773327224
-1.6093944711477182
-1.5601586938277234
-1.4986139721777092
-1.6217034154777374
-1.6340123598077294
-1.5416952773327224
-1.578622110322725
-1.6032399989827366
-1.5663131659927332
-1.5416952773327224
-1.5540042216627135
-1.5847765824877347
-1.6401668319727392
-1.5663131659927332
-1.6278578876427194
-1.5724676381577152
-1.5540042216627135
-1.7263294422827367
-1.5663131659927332
-1.590931054652717
-1.6524757763027313
-1.6217034154777374
-1.6401668319727392
-1.615548943312728
-1.6463213041377216
-1.6032399989827366
-1.578622110322725
-1.5847765824877347
-1.7447928587777384
-1.615548943312728
-1.6278578876427194
-1.7447928587777384
-1.6647847206327224
-1.6524757763027313
-1.5847765824877347
-1.6340123598077294
-1.677093664962742
-1.6586302484677409
-1.5847765824877347
-1.6401668319727392
-1.6647847206327224
-1.677093664962742
-1.6709391927977324
-1.363215584547689
-0.6185244525825918
-1.3509066402176972
-1.590931054652717
-1.7878741639327511
-2.009435161872797
-1.3693700567126987
-1.4493781948577145
-1.578622110322725
-1.578622110322725
-1.590931054652717
-1.5970855268177266
-1.6032399989827366
-1.6093944711477182
-2.1263701330077875
-1.8678823020777668
-0.889321227842632
-2.052516467027782
-1.7447928587777384
-1.6647847206327224
-1.689402609292734
-1.6278578876427194
-1.6217034154777374
-2.403321380432838
-2.329467714452832
-1.5540042216627135
-1.5355408051677124
-1.615548943312728
-1.39398794537271
-1.3201342793926762
-1.5847765824877347
-1.5663131659927332
-1.6647847206327224
-1.5970855268177266
-1.5601586938277234
-1.5847765824877347
-1.5540042216627135
-1.5355408051677124
-1.590931054652717
-1.5724676381577152
-1.578622110322725
-1.510922916507701
-1.5663131659927332
-1.7447928587777384
-1.6032399989827366
-1.6340123598077294
-1.615548943312728
-1.6586302484677409
-1.6463213041377216
-1.615548943312728
-1.6401668319727392
-1.6217034154777374
-1.6340123598077294
-1.6401668319727392
-1.6586302484677409
-1.590931054652717
-1.4432237226927047
-1.6524757763027313
-1.578622110322725
-1.578622110322725
-1.5847765824877347
-1.578622110322725
-1.5232318608377204
-1.1355001144426613
-0.4400447597975588
-1.7817196917677414
-1.7324839144477464
-1.6709391927977324
-1.7017115536227536
-1.6586302484677409
-2.1079067165127863
-2.563337656722869
-1.677093664962742
-1.590931054652717
-1.5416952773327224
-1.5355408051677124
-1.5478497494977315
-1.5293863330027024
-1.4555326670226965
-1.5847765824877347
-1.5847765824877347
-1.6401668319727392
-1.6217034154777374
-1.5601586938277234
-1.5232318608377204
-1.677093664962742
-1.5170773886727107
-1.5663131659927332
-1.5601586938277234
-1.5724676381577152
-1.5478497494977315
-1.5170773886727107
-1.5293863330027024
-1.5601586938277234
-1.5478497494977315
-1.590931054652717
-1.578622110322725
-1.5232318608377204
-1.473996083517698
-1.7140204979527456
-1.5663131659927332
-1.5601586938277234
-1.5293863330027024
-1.5416952773327224
-1.5478497494977315
-1.590931054652717
-1.6032399989827366
-1.6217034154777374
-1.5601586938277234
-1.6032399989827366
-1.6340123598077294
-1.5293863330027024
-1.4863050278477177
-1.7632562752727399
-1.7017115536227536
-1.6463213041377216
-1.578622110322725
-1.5355408051677124
-1.6217034154777374
-1.683248137127724
-1.7140204979527456
-1.6340123598077294
-1.5970855268177266
-1.5724676381577152
-1.578622110322725
-1.4309147783627132
-1.6093944711477182
-2.083288827852803
-1.289361918567683
-1.39398794537271
-1.4432237226927047
-1.4986139721777092
-1.473996083517698
-1.467841611352716
-1.6032399989827366
-1.5540042216627135
-1.590931054652717
-1.6032399989827366
-1.6401668319727392
-1.578622110322725
-1.6217034154777374
-1.5970855268177266
-1.6463213041377216
-1.615548943312728
-1.5970855268177266
-1.578622110322725
-1.5293863330027024
-1.578622110322725
-1.5847765824877347
-1.5478497494977315
-1.615548943312728
-1.5663131659927332
-1.615548943312728
-1.363215584547689
-0.6185244525825918
-1.2770529742376913
-1.473996083517698
-1.4863050278477177
-1.5170773886727107
-1.5293863330027024
-1.5970855268177266
-1.6278578876427194
-1.6340123598077294
-1.615548943312728
-1.5847765824877347
-1.6032399989827366
-1.6340123598077294
-1.6647847206327224
-1.6278578876427194
-1.6340123598077294
-1.6401668319727392
-1.6524757763027313
-1.5540042216627135
-1.6401668319727392
-1.6340123598077294
-1.6401668319727392
-1.6524757763027313
-1.6709391927977324
-1.6586302484677409
-1.6463213041377216
-1.5663131659927332
-2.1017522443478045
-2.5141018794028467
-1.830955469087764
-1.7078660257877356
-1.1293456422776516
-0.4892805371175811
-1.757101803107758
-2.329467714452832
-2.391012436102846
-1.6278578876427194
-1.5724676381577152
-1.5847765824877347
-1.5663131659927332
-1.6032399989827366
-1.4062968897027015
-1.4801505556827075
-1.6524757763027313
-1.6278578876427194
-1.6463213041377216
-1.6586302484677409
-1.590931054652717
-1.5601586938277234
-1.510922916507701
-1.504768444342719
-1.5847765824877347
-1.5416952773327224
-1.5601586938277234
-1.5847765824877347
-1.4863050278477177
-1.7078660257877356
-1.5970855268177266
-1.510922916507701
-1.578622110322725
-1.6340123598077294
-1.5724676381577152
-1.4801505556827075
-1.467841611352716
-1.5355408051677124
-1.5170773886727107
-1.5478497494977315
-1.578622110322725
-1.5232318608377204
-1.3447521680526875
-1.4555326670226965
-1.437069250527695
-1.4124513618677115
-1.2708985020726815
-1.3201342793926762
-1.3755245288776807
-1.4062968897027015
-1.3570611123826792
-1.3016708628976748
-1.2770529742376913
-1.3324432237226955
-1.3324432237226955
-1.4062968897027015
-1.1724269474326645
-1.3816790010426905
-1.3324432237226955
-1.2832074464026733
-1.2031993082576575
-1.2093537804226673
-1.1478090587726528
-1.3201342793926762
-1.3201342793926762
-1.3201342793926762
-1.3570611123826792
-1.683248137127724
-2.286386409297819
-0.6800691742326057
-0.6862236463975879
-1.3570611123826792
-1.4493781948577145
-1.4432237226927047
-1.4555326670226965
-1.4986139721777092
-1.4493781948577145
-1.3878334732077002
-1.4493781948577145
-1.5416952773327224
-1.5170773886727107
-1.4863050278477177
-1.4986139721777092
-1.5416952773327224
-1.7324839144477464
-1.7201749701177547
-1.5170773886727107
-1.6032399989827366
-1.5663131659927332
-1.5478497494977315
-1.5724676381577152
-1.5847765824877347
-1.5540042216627135
-1.4986139721777092
-1.5970855268177266
-1.6524757763027313
-1.590931054652717
-1.4863050278477177
-1.4309147783627132
-1.6709391927977324
-1.6032399989827366
-0.8400854505226096
-1.5601586938277234
-2.120215660842805
-1.7386383866127564
-1.6032399989827366
-1.5540042216627135
-1.5724676381577152
-1.590931054652717
-1.510922916507701
-1.6340123598077294
-1.5663131659927332
-1.5478497494977315
-1.6032399989827366
-1.5293863330027024
-1.5232318608377204
-1.578622110322725
-1.4432237226927047
-1.5355408051677124
-1.5355408051677124
-1.5540042216627135
-1.5416952773327224
-1.5293863330027024
-1.5540042216627135
-1.5663131659927332
-1.473996083517698
-1.1293456422776516
-0.5939065639225805
-1.8678823020777668
-1.5232318608377204
-1.4986139721777092
-1.473996083517698
-1.5601586938277234
-2.1017522443478045
-2.200223798987821
-1.7078660257877356
-1.6524757763027313
-1.6647847206327224
-1.6709391927977324
-1.5293863330027024
-1.4309147783627132
-1.5847765824877347
-1.6463213041377216
-1.578622110322725
-1.6093944711477182
-1.615548943312728
-1.6093944711477182
-1.5970855268177266
-1.2708985020726815
-1.104727753617668
-2.723353933012873
-1.1539635309376628
-1.4986139721777092
-1.5478497494977315
-1.6032399989827366
-1.6217034154777374
-1.9786628010477763
-2.766435238167886
-1.8063375804277528
-1.5540042216627135
-1.5478497494977315
-1.5970855268177266
-1.6217034154777374
-1.6032399989827366
-1.510922916507701
-1.6524757763027313
-1.6586302484677409
-1.5724676381577152
-1.7694107474377496
-1.6340123598077294
-1.5847765824877347
-1.5540042216627135
-1.467841611352716
-1.6032399989827366
-1.6032399989827366
-1.5847765824877347
-1.5970855268177266
-1.5478497494977315
-1.578622110322725
-1.578622110322725
-1.467841611352716
-1.39398794537271
-1.615548943312728
-1.6032399989827366
-1.5601586938277234
-1.5601586938277234
-1.6093944711477182
-1.5540042216627135
-1.5478497494977315
-1.6093944711477182
-1.5724676381577152
-1.510922916507701
-1.4986139721777092
-1.5663131659927332
-1.4924595000126994
-1.3385976958876775
-1.510922916507701
-1.5663131659927332
-1.5478497494977315
-1.615548943312728
-1.590931054652717
-1.4801505556827075
-1.578622110322725
-1.5540042216627135
-1.5540042216627135
-1.5970855268177266
-1.5601586938277234
-1.5663131659927332
-1.5170773886727107
-1.437069250527695
-1.677093664962742
-1.7017115536227536
-1.9848172732127856
-1.2401261412476885
-1.326288751557686
-1.4493781948577145
-1.4863050278477177
-1.467841611352716
-1.467841611352716
-1.4124513618677115
-1.5663131659927332
-1.5663131659927332
-1.4986139721777092
-1.4432237226927047
-1.7201749701177547
-1.6093944711477182
-1.5540042216627135
-1.5540042216627135
-1.6340123598077294
-1.5847765824877347
-1.615548943312728
-1.590931054652717
-1.5970855268177266
-1.590931054652717
-1.5663131659927332
-1.5663131659927332
-1.5970855268177266
-1.4493781948577145
-1.6278578876427194
-1.5663131659927332
-1.590931054652717
-1.6032399989827366
-1.5724676381577152
-1.5293863330027024
-1.6340123598077294
-1.6401668319727392
-1.615548943312728
-1.5970855268177266
-1.0185651433076426
-0.07693090206251085
-2.077134355687793
-2.772589710332896
-2.2433051041428067
-1.5847765824877347
-1.5170773886727107
-1.5416952773327224
-1.5540042216627135
-1.504768444342719
-1.504768444342719
-1.6093944711477182
-1.4309147783627132
-1.473996083517698
-1.5232318608377204
-1.5847765824877347
-1.4924595000126994
-1.4062968897027015
-1.6463213041377216
-1.5663131659927332
-1.5170773886727107
-1.578622110322725
-1.578622110322725
-1.5724676381577152
-1.6093944711477182
-1.5847765824877347
-1.5847765824877347
-1.6524757763027313
-1.5847765824877347
-1.615548943312728
-1.5601586938277234
-1.5724676381577152
-1.615548943312728
-1.6093944711477182
-1.4924595000126994
-1.6032399989827366
-1.5970855268177266
-1.5663131659927332
-1.578622110322725
-1.5416952773327224
-1.5232318608377204
-1.5601586938277234
-1.473996083517698
-1.5970855268177266
-1.5170773886727107
-1.4801505556827075
-1.5540042216627135
-1.504768444342719
-1.5540042216627135
-1.5355408051677124
-1.4986139721777092
-1.6463213041377216
-1.5355408051677124
-1.5416952773327224
-1.5478497494977315
-1.5170773886727107
-1.5847765824877347
-1.5416952773327224
-1.363215584547689
-1.4863050278477177
-1.578622110322725
-1.5540042216627135
-1.5355408051677124
-1.7201749701177547
-1.954044912387765
-1.2278171969176688
-1.4555326670226965
-1.5293863330027024
-1.510922916507701
-1.5170773886727107
-1.473996083517698
-1.4986139721777092
-1.4616871391877062
-1.5540042216627135
-1.4986139721777092
-1.5478497494977315
-1.5478497494977315
-1.5663131659927332
-1.5170773886727107
-1.4924595000126994
-1.473996083517698
-1.363215584547689
-1.473996083517698
-1.4186058340326935
-1.4247603061977032
-1.473996083517698
-1.3570611123826792
-1.4986139721777092
-1.4555326670226965
-1.4247603061977032
-1.5540042216627135
-1.473996083517698
-1.4432237226927047
-1.437069250527695
-1.3878334732077002
-1.39398794537271
-1.3570611123826792
-1.3078253350626845
-1.5232318608377204
-1.4309147783627132
-1.3509066402176972
-1.510922916507701
-1.5293863330027024
-1.4555326670226965
-1.3693700567126987
-1.3755245288776807
-1.4863050278477177
-1.4924595000126994
-1.5416952773327224
-1.5232318608377204
-1.4986139721777092
-1.5601586938277234
-1.5478497494977315
-1.4863050278477177
-1.473996083517698
-1.578622110322725
-1.504768444342719
-1.5170773886727107
-1.5293863330027024
-1.4986139721777092
-1.473996083517698
-1.504768444342719
-0.9508659494926462
0.11385773505251384
-1.9232725515627715
-1.7140204979527456
-1.683248137127724
-1.677093664962742
-1.7078660257877356
-2.766435238167886
-1.91096360723278
-1.578622110322725
-1.5847765824877347
-1.5847765824877347
-1.5540042216627135
-1.5601586938277234
-1.5724676381577152
-1.6401668319727392
-1.6093944711477182
-1.504768444342719
-1.510922916507701
-1.4986139721777092
-1.5232318608377204
-1.7263294422827367
-1.5170773886727107
-1.590931054652717
-1.590931054652717
-1.590931054652717
-1.6093944711477182
-1.5970855268177266
-1.615548943312728
-1.5847765824877347
-1.4986139721777092
-1.6524757763027313
-1.6524757763027313
-1.5847765824877347
-1.5416952773327224
-1.7017115536227536
-1.5293863330027024
-1.5232318608377204
-1.5416952773327224
-1.6093944711477182
-1.5293863330027024
-1.6401668319727392
-1.6401668319727392
-1.6278578876427194
-1.6463213041377216
-1.615548943312728
-1.5724676381577152
-1.5970855268177266
-1.4186058340326935
-1.578622110322725
-1.5232318608377204
-1.5293863330027024
-1.5540042216627135
-1.5724676381577152
-1.5170773886727107
-1.5970855268177266
-1.5847765824877347
-1.5847765824877347
-1.6278578876427194
-1.6032399989827366
-1.5847765824877347
-1.4309147783627132
-1.4432237226927047
-1.8001831082627426
-1.9971262175427773
-1.3755245288776807
-1.4986139721777092
-1.4863050278477177
-1.4493781948577145
-1.4863050278477177
-1.4863050278477177
-1.5540042216627135
-1.5970855268177266
-1.5970855268177266
-1.5540042216627135
-1.5170773886727107
-1.5847765824877347
-1.4924595000126994
-1.5663131659927332
-1.5663131659927332
-1.5724676381577152
-1.5663131659927332
-1.5416952773327224
-1.5293863330027024
-1.5478497494977315
-1.5355408051677124
-1.6709391927977324
-1.5724676381577152
-1.5847765824877347
-1.5478497494977315
-1.504768444342719
-1.5293863330027024
-1.5355408051677124
-0.20617481752752131
-1.1231911701126696
-1.7755652196027594
-1.6647847206327224
-1.6647847206327224
-1.5663131659927332
-1.5232318608377204
-1.6093944711477182
-2.434093741257831
-2.1694514381628007
-1.3385976958876775
-0.9447114773276367
-1.25243508557768
-1.3509066402176972
-1.437069250527695
-1.467841611352716
-1.4801505556827075
-1.4986139721777092
-1.473996083517698
-1.5232318608377204
-1.4616871391877062
-1.437069250527695
-1.437069250527695
-1.3755245288776807
-1.6278578876427194
-2.1079067165127863
-1.6647847206327224
-1.578622110322725
-1.5232318608377204
-0.9877927824826491
-0.14463009587750708
-2.3110042979578305
-2.754126293837894
-1.861727829912757
-1.590931054652717
-1.5293863330027024
-1.5724676381577152
-1.615548943312728
-1.4555326670226965
-1.5293863330027024
-1.6093944711477182
-1.6032399989827366
-1.5724676381577152
-1.5601586938277234
-1.578622110322725
-1.5601586938277234
-1.4986139721777092
-1.4801505556827075
-1.6524757763027313
-1.6217034154777374
-1.578622110322725
-1.5601586938277234
-1.4986139721777092
-1.3570611123826792
-1.5293863330027024
-1.5540042216627135
-1.6401668319727392
-1.615548943312728
-1.6093944711477182
-1.5724676381577152
-1.6524757763027313
-1.6401668319727392
-1.578622110322725
-1.510922916507701
-1.6586302484677409
-1.6524757763027313
-1.6093944711477182
-1.8001831082627426
-1.6340123598077294
-1.6217034154777374
-1.6093944711477182
-1.5847765824877347
-1.689402609292734
-1.6586302484677409
-1.6401668319727392
-1.6586302484677409
-1.6463213041377216
-1.5970855268177266
-1.6217034154777374
-1.677093664962742
-1.6278578876427194
-1.757101803107758
-1.7140204979527456
-1.7263294422827367
-1.7263294422827367
-1.757101803107758
-1.7632562752727399
-1.6709391927977324
-1.7078660257877356
-1.7447928587777384
-1.7078660257877356
-1.683248137127724
-1.8863457185727683
-2.1079067165127863
-1.3509066402176972
-1.7263294422827367
-1.7324839144477464
-1.7017115536227536
-1.7447928587777384
-1.8063375804277528
-1.7509473309427481
-1.7263294422827367
-1.7017115536227536
-1.7755652196027594
-1.8063375804277528
-1.7386383866127564
-1.7878741639327511
-1.7078660257877356
-1.6647847206327224
-1.8740367742427766
-1.6032399989827366
-1.7817196917677414
-1.7201749701177547
-1.6709391927977324
-1.6586302484677409
-1.6647847206327224
-1.6709391927977324
-1.5970855268177266
-1.5847765824877347
-1.7386383866127564
-1.7201749701177547
-1.6093944711477182
-1.5724676381577152
-1.7878741639327511
-1.6524757763027313
-1.6278578876427194
-1.6463213041377216
-1.6709391927977324
-1.6032399989827366
-1.5724676381577152
-1.5847765824877347
-1.6340123598077294
-1.6524757763027313
-1.6586302484677409
-1.615548943312728
-1.6278578876427194
-1.6278578876427194
-1.683248137127724
-1.6401668319727392
-1.6217034154777374
-1.6217034154777374
-1.6709391927977324
-1.7078660257877356
-1.7201749701177547
-1.683248137127724
-1.6586302484677409
-1.6647847206327224
-1.6524757763027313
-1.6955570814577436
-1.6217034154777374
-1.8001831082627426
-1.184735891762656
-0.003077236082504875
-2.0340530505327803
-1.757101803107758
-1.7447928587777384
-1.7201749701177547
-2.224841687647805
-2.7910531268278973
-1.8001831082627426
-1.6463213041377216
-1.6278578876427194
-1.6340123598077294
-1.5416952773327224
-1.5478497494977315
-1.5540042216627135
-1.6278578876427194
-1.5601586938277234
-1.5540042216627135
-1.5601586938277234
-1.6032399989827366
-1.6032399989827366
-1.5970855268177266
-1.578622110322725
-1.6709391927977324
-1.6217034154777374
-1.590931054652717
-1.6278578876427194
-1.8740367742427766
-1.7201749701177547
-1.6093944711477182
-1.578622110322725
-1.7078660257877356
-1.6524757763027313
-1.6955570814577436
-1.7263294422827367
-1.6586302484677409
-1.6586302484677409
-1.6709391927977324
-1.6586302484677409
-1.689402609292734
-1.4432237226927047
-1.4924595000126994
-1.6217034154777374
-1.615548943312728
-1.677093664962742
-1.6524757763027313
-1.6463213041377216
-1.6709391927977324
-1.689402609292734
-1.6586302484677409
-1.6463213041377216
-1.7201749701177547
-1.7017115536227536
-1.6032399989827366
-1.6032399989827366
-1.7817196917677414
-1.7140204979527456
-1.683248137127724
-1.6340123598077294
-1.6586302484677409
-1.6524757763027313
-1.5478497494977315
-1.677093664962742
-1.8248009969227534
-1.9971262175427773
-1.326288751557686
-1.5970855268177266
-1.6093944711477182
-1.4924595000126994
-1.7386383866127564
-1.7447928587777384
-1.6586302484677409
-1.615548943312728
-1.6340123598077294
-1.683248137127724
-1.689402609292734
-1.6340123598077294
-1.6524757763027313
-1.7140204979527456
-1.6524757763027313
-1.6955570814577436
-1.6032399989827366
-1.4247603061977032
-1.7140204979527456
-1.6709391927977324
-1.5970855268177266
-1.6524757763027313
-1.6586302484677409
-1.677093664962742
-1.615548943312728
-1.590931054652717
-1.615548943312728
-1.6340123598077294
-1.6340123598077294
-1.7140204979527456
-1.6032399989827366
-1.4555326670226965
-1.677093664962742
-1.6093944711477182
-1.6278578876427194
-1.5416952773327224
-1.5540042216627135
-1.5970855268177266
-1.5232318608377204
-1.6032399989827366
-1.5970855268177266
-1.578622110322725
-1.6340123598077294
-0.15078456804251686
-1.9048091350677696
-2.4894839907428636
-1.8124920525927626
-1.6586302484677409
-1.6278578876427194
-1.5724676381577152
-1.615548943312728
-1.5416952773327224
-1.7017115536227536
-1.689402609292734
-1.5663131659927332
-1.5847765824877347
-1.5724676381577152
-1.0678009206276373
-0.3723455659825625
-2.212532743317813
-2.667963683527869
-1.7632562752727399
-1.6524757763027313
-1.6524757763027313
-1.6093944711477182
-1.6586302484677409
-1.6217034154777374
-1.5540042216627135
-1.6955570814577436
-1.6463213041377216
-1.6524757763027313
-1.6647847206327224
-1.6093944711477182
-1.689402609292734
-1.7078660257877356
-1.590931054652717
-1.6217034154777374
-1.6524757763027313
-1.6463213041377216
-1.6278578876427194
-1.6647847206327224
-1.6278578876427194
-1.578622110322725
-1.5724676381577152
-1.6709391927977324
-1.6586302484677409
-1.6217034154777374
-1.7078660257877356
-1.7386383866127564
-1.6709391927977324
-1.6524757763027313
-1.6340123598077294
-1.7386383866127564
-1.5847765824877347
-1.5663131659927332
-1.6217034154777374
-1.6093944711477182
-1.6647847206327224
-1.2401261412476885
-0.26156506701252585
-1.89865466290276
-1.3324432237226955
-1.6586302484677409
-1.6340123598077294
-1.6401668319727392
-1.615548943312728
-2.0278985783677985
-2.735662877342893
-1.8001831082627426
-1.5601586938277234
-1.578622110322725
-1.6647847206327224
-1.6217034154777374
-1.615548943312728
-1.1478090587726528
-0.5815976195925888
-1.39398794537271
-1.5724676381577152
-1.5970855268177266
-1.6032399989827366
-1.6093944711477182
-1.6032399989827366
-1.5355408051677124
-1.7386383866127564
-1.7201749701177547
-1.683248137127724
-1.677093664962742
-1.6463213041377216
-2.015589634037779
-2.255614048472826
-1.7263294422827367
-1.7017115536227536
-1.6401668319727392
-1.6524757763027313
-1.5847765824877347
-1.5847765824877347
-1.5170773886727107
-1.4062968897027015
-1.437069250527695
-1.5478497494977315
-1.590931054652717
-1.615548943312728
-1.7447928587777384
-2.04020752269779
-1.7447928587777384
-1.5970855268177266
-1.6278578876427194
-1.683248137127724
-1.683248137127724
-1.6709391927977324
-1.7017115536227536
-1.683248137127724
-1.6093944711477182
-1.590931054652717
-1.6340123598077294
-1.683248137127724
-1.5478497494977315
-1.7694107474377496
-1.818646524757745
-1.8248009969227534
-1.757101803107758
-1.818646524757745
-2.2371506319778245
-1.5293863330027024
-1.5724676381577152
-1.6217034154777374
-1.6463213041377216
-1.6278578876427194
-1.7263294422827367
-1.615548943312728
-1.6463213041377216
-1.7755652196027594
-1.6401668319727392
-1.578622110322725
-1.6217034154777374
-1.6647847206327224
-1.6647847206327224
-1.6524757763027313
-1.7940286360977609
-1.2401261412476885
-0.5015894814475731
-2.2740774649678275
-1.8678823020777668
-1.7140204979527456
-1.6217034154777374
-2.4587116299178424
-2.3540856031128428
-1.830955469087764
-1.7017115536227536
-1.6955570814577436
-1.7017115536227536
-1.7324839144477464
-1.7078660257877356
-1.6401668319727392
-1.7386383866127564
-1.7140204979527456
-1.7078660257877356
-1.6463213041377216
-1.615548943312728
-1.8124920525927626
-1.7140204979527456
-1.7078660257877356
-1.7509473309427481
-1.6647847206327224
-1.6032399989827366
-1.6032399989827366
-1.6647847206327224
-1.6340123598077294
-1.615548943312728
-1.5970855268177266
-1.677093664962742
-1.590931054652717
-1.4863050278477177
-1.683248137127724
-1.6586302484677409
-1.6524757763027313
-1.5293863330027024
-1.7324839144477464
-1.683248137127724
-1.6524757763027313
-1.7447928587777384
-1.7140204979527456
-1.6401668319727392
-1.6032399989827366
-1.6032399989827366
-1.6217034154777374
-1.5416952773327224
-1.7140204979527456
-1.615548943312728
-1.6340123598077294
-1.677093664962742
-1.6093944711477182
-1.4924595000126994
-1.615548943312728
-1.6278578876427194
-1.6955570814577436
-1.6709391927977324
-1.6586302484677409
-1.6401668319727392
-1.6032399989827366
-1.8863457185727683
-1.8678823020777668
-1.8371099412527454
-2.0955977721827947
-1.3509066402176972
-1.5478497494977315
-1.5601586938277234
-1.5663131659927332
-1.5663131659927332
-1.6340123598077294
-1.6463213041377216
-1.6340123598077294
-1.689402609292734
-1.4863050278477177
-1.215508252587677
-1.4986139721777092
-1.615548943312728
-1.677093664962742
-1.590931054652717
-1.5663131659927332
-1.5970855268177266
-1.6401668319727392
-1.6709391927977324
-1.6032399989827366
-1.5847765824877347
-1.6401668319727392
-1.7263294422827367
-1.6093944711477182
-1.4432237226927047
-1.6278578876427194
-1.7017115536227536
-1.6401668319727392
-1.6586302484677409
-1.6340123598077294
-1.683248137127724
-1.683248137127724
-1.6955570814577436
-1.6586302484677409
-1.677093664962742
-1.590931054652717
-1.8432644134177558
-1.8001831082627426
-1.9294270237277809
-1.7694107474377496
-1.6586302484677409
-1.6032399989827366
-1.6093944711477182
-1.5847765824877347
-1.7078660257877356
-1.6524757763027313
-1.7078660257877356
-1.7017115536227536
-1.677093664962742
-1.6647847206327224
-1.6340123598077294
-1.5847765824877347
-1.830955469087764
-1.7078660257877356
-1.677093664962742
-1.6524757763027313
-1.6647847206327224
-1.178581419597674
-0.5200528979425745
-2.8095165433228986
-2.255614048472826
-1.6278578876427194
-1.5601586938277234
-1.5663131659927332
-1.504768444342719
-1.400142417537692
-1.6463213041377216
-1.5724676381577152
-1.6093944711477182
-1.578622110322725
-1.6340123598077294
-1.6401668319727392
-1.6032399989827366
-1.6401668319727392
-1.6647847206327224
-1.6647847206327224
-1.6955570814577436
-1.757101803107758
-1.683248137127724
-1.5416952773327224
-1.8001831082627426
-1.7078660257877356
-0.9447114773276367
-1.9232725515627715
-2.150988021667799
-1.7263294422827367
-1.6524757763027313
-1.6340123598077294
-1.615548943312728
-1.615548943312728
-1.6032399989827366
-1.683248137127724
-1.6032399989827366
-1.5355408051677124
-1.8124920525927626
-1.689402609292734
-1.6524757763027313
-1.6709391927977324
-1.5601586938277234
-1.6463213041377216
-1.5847765824877347
-1.5663131659927332
-1.590931054652717
-1.5847765824877347
-1.5970855268177266
-1.7140204979527456
-1.504768444342719
-1.6032399989827366
-1.7386383866127564
-1.8001831082627426
-1.8432644134177558
-1.9232725515627715
-1.9786628010477763
-2.003280689707787
-2.0955977721827947
-2.175605910327811
-2.1632969659978185
-2.175605910327811
-2.1325246051727973
-2.1817603824928202
-2.286386409297819
-2.600264489712873
-1.966353856717784
-1.966353856717784
-1.9232725515627715
-1.9171180793977614
-1.966353856717784
-1.861727829912757
-1.7632562752727399
-1.683248137127724
-1.683248137127724
-1.5601586938277234
-1.3570611123826792
-1.4555326670226965
-1.4986139721777092
-1.4247603061977032
-1.7017115536227536
-1.7386383866127564
-1.8001831082627426
-1.757101803107758
-1.7447928587777384
-1.757101803107758
-1.8063375804277528
-1.830955469087764
-1.8248009969227534
-1.7940286360977609
-1.966353856717784
-1.966353856717784
-1.91096360723278
-1.9048091350677696
-1.9786628010477763
-1.9355814958927628
-1.9048091350677696
-1.8801912464077586
-2.0463619948628
-2.015589634037779
-2.0217441062027888
-2.0586709391927913
-2.0340530505327803
-2.070979883522784
-2.1017522443478045
-2.0955977721827947
-2.1325246051727973
-2.1694514381628007
-2.1817603824928202
-2.194069326822812
-2.2925408814628288
-2.2433051041428067
-2.200223798987821
-0.6431423412426027
-2.194069326822812
-2.5387197680628573
-2.391012436102846
-2.360240075277825
-2.304849825792821
-2.2925408814628288
-2.2063782711528033
-2.6371913227028756
-2.483329518577854
-1.5970855268177266
-0.9385570051626267
-2.261768520637808
-2.187914854657802
-2.212532743317813
-2.360240075277825
-3.2341751227079882
-2.477175046412844
-2.083288827852803
-2.0463619948628
-2.015589634037779
-2.1325246051727973
-2.329467714452832
-2.0278985783677985
-1.9171180793977614
-1.8740367742427766
-1.9294270237277809
-1.91096360723278
-1.861727829912757
-1.8432644134177558
-1.849418885582765
-1.7817196917677414
-1.9232725515627715
-1.9355814958927628
-1.8678823020777668
-1.89865466290276
-2.1017522443478045
-1.9232725515627715
-1.89865466290276
-1.8063375804277528
-1.89865466290276
-1.8740367742427766
-1.830955469087764
-1.830955469087764
-1.8371099412527454
-1.8432644134177558
-1.8248009969227534
-1.7324839144477464
-1.8432644134177558
-1.7817196917677414
-1.9848172732127856
-1.8371099412527454
-1.7632562752727399
-1.7447928587777384
-1.7632562752727399
-1.7509473309427481
-1.849418885582765
-1.7694107474377496
-1.757101803107758
-1.7509473309427481
-1.7078660257877356
-1.7694107474377496
-1.7509473309427481
-1.5232318608377204
-1.8001831082627426
-1.7817196917677414
-1.7263294422827367
-1.677093664962742
-1.677093664962742
-1.7386383866127564
-1.689402609292734
-1.6955570814577436
-1.757101803107758
-1.9355814958927628
-2.138679077337807
-1.4555326670226965
-1.689402609292734
-1.5970855268177266
-1.8371099412527454
-1.6709391927977324
-1.6463213041377216
-1.7017115536227536
-1.7201749701177547
-1.7140204979527456
-1.7324839144477464
-1.7017115536227536
-1.6401668319727392
-1.7694107474377496
-1.7509473309427481
-1.757101803107758
-1.6955570814577436
-1.6463213041377216
-1.8001831082627426
-1.7201749701177547
-1.683248137127724
-1.7940286360977609
-1.7201749701177547
-1.7386383866127564
-1.7940286360977609
-1.8124920525927626
-1.7632562752727399
-1.757101803107758
-1.7694107474377496
-1.8801912464077586
-1.757101803107758
-1.677093664962742
-1.830955469087764
-1.757101803107758
-1.7632562752727399
-1.8001831082627426
-1.7140204979527456
-1.8001831082627426
-1.8063375804277528
-1.7509473309427481
-1.8001831082627426
-1.818646524757745
-1.7878741639327511
-1.8248009969227534
-1.7940286360977609
-1.7817196917677414
-1.8124920525927626
-1.7878741639327511
-1.7940286360977609
-1.7817196917677414
-1.7509473309427481
-1.7263294422827367
-1.7324839144477464
-1.7201749701177547
-1.7263294422827367
-1.7078660257877356
-1.7263294422827367
-1.7632562752727399
-1.1293456422776516
-0.31695531649755804
-3.2034027618829675
-2.1325246051727973
-1.757101803107758
-1.6955570814577436
-1.683248137127724
-1.6463213041377216
-1.689402609292734
-1.6401668319727392
-1.6647847206327224
-1.7201749701177547
-1.7878741639327511
-1.7509473309427481
-1.6709391927977324
-1.8801912464077586
-1.91096360723278
-1.6955570814577436
-1.7509473309427481
-1.7324839144477464
-1.7817196917677414
-1.7755652196027594
-1.7632562752727399
-1.7694107474377496
-1.7509473309427481
-1.7078660257877356
-1.8124920525927626
-1.7755652196027594
-1.7324839144477464
-1.7078660257877356
-1.8248009969227534
-1.7017115536227536
-1.683248137127724
-1.677093664962742
-1.7386383866127564
-1.7509473309427481
-1.7140204979527456
-1.7201749701177547
-1.757101803107758
-1.7386383866127564
-1.7509473309427481
-1.7263294422827367
-1.7078660257877356
-1.7140204979527456
-1.7817196917677414
-1.7694107474377496
-1.7755652196027594
-1.7694107474377496
-1.7632562752727399
-1.7694107474377496
-1.7755652196027594
-1.689402609292734
-1.683248137127724
-1.6955570814577436
-1.683248137127724
-1.7078660257877356
-1.6278578876427194
-1.7940286360977609
-1.7940286360977609
-1.7078660257877356
-1.7201749701177547
-1.818646524757745
-1.689402609292734
-1.9232725515627715
-2.083288827852803
-1.5170773886727107
-1.6524757763027313
-1.6586302484677409
-1.7017115536227536
-1.7078660257877356
-1.590931054652717
-1.6647847206327224
-1.6093944711477182
-1.6278578876427194
-1.5540042216627135
-1.5724676381577152
-1.5478497494977315
-1.5601586938277234
-1.5293863330027024
-1.504768444342719
-1.4309147783627132
-1.615548943312728
-1.5601586938277234
-1.5355408051677124
-1.4124513618677115
-1.590931054652717
-1.5847765824877347
-1.5970855268177266
-1.6032399989827366
-1.7017115536227536
-1.6463213041377216
-1.6524757763027313
-1.6709391927977324
-1.7263294422827367
-1.7263294422827367
-1.7017115536227536
-1.7755652196027594
-1.8740367742427766
-1.7140204979527456
-1.855573357747775
-1.8001831082627426
-1.7632562752727399
-1.7201749701177547
-1.7201749701177547
-1.677093664962742
-1.7078660257877356
-1.6340123598077294
-1.7017115536227536
-1.7755652196027594
-1.7386383866127564
-1.8063375804277528
-1.8001831082627426
-1.7017115536227536
-1.9232725515627715
-1.8124920525927626
-1.7878741639327511
-1.8371099412527454
-1.8371099412527454
-1.8063375804277528
-1.830955469087764
-1.8371099412527454
-1.8001831082627426
-1.2585895577426898
-0.21848376185754081
-2.249459576307816
-1.91096360723278
-1.7878741639327511
-2.544874240227868
-3.092622262912931
-2.0463619948628
-1.8248009969227534
-1.8432644134177558
-1.8801912464077586
-1.91096360723278
-1.9417359680577726
-1.9048091350677696
-1.9848172732127856
-1.9786628010477763
-2.0217441062027888
-1.9478904402227823
-1.8371099412527454
-2.070979883522784
-1.9478904402227823
-1.9417359680577726
-2.0463619948628
-1.89865466290276
-1.861727829912757
-1.89865466290276
-1.892500190737778
-1.855573357747775
-1.849418885582765
-1.8678823020777668
-1.8801912464077586
-1.7694107474377496
-1.7078660257877356
-1.9232725515627715
-1.8863457185727683
-1.849418885582765
-1.830955469087764
-1.8248009969227534
-1.8371099412527454
-1.7755652196027594
-1.757101803107758
-1.7940286360977609
-1.7201749701177547
