-1.5355408051677124
-1.5416952773327224
-1.5293863330027024
-1.5478497494977315
-1.5416952773327224
-1.7940286360977609
-1.578622110322725
-1.5232318608377204
-1.5970855268177266
-1.0247196154726523
0.040004069072507864
-1.9355814958927628
-1.615548943312728
-1.5724676381577152
-1.6340123598077294
-2.04020752269779
-2.8033620711578893
-1.8740367742427766
-1.504768444342719
-1.5724676381577152
-1.5601586938277234
-1.5540042216627135
-1.6032399989827366
-1.4863050278477177
-1.5970855268177266
-1.677093664962742
-1.6586302484677409
-1.5847765824877347
-1.5724676381577152
-1.6340123598077294
-1.590931054652717
-1.5293863330027024
-1.4616871391877062
-1.6463213041377216
-1.6278578876427194
-1.578622110322725
-1.6217034154777374
-1.590931054652717
-1.5355408051677124
-1.5232318608377204
-1.6955570814577436
-1.683248137127724
-1.6278578876427194
-1.590931054652717
-1.6278578876427194
-1.5847765824877347
-1.4863050278477177
-1.677093664962742
-1.6955570814577436
-1.5847765824877347
-1.4986139721777092
-1.5293863330027024
-1.5970855268177266
-1.6093944711477182
-1.5847765824877347
-1.5663131659927332
-1.6217034154777374
-1.615548943312728
-1.6524757763027313
-1.578622110322725
-1.3447521680526875
-1.590931054652717
-1.590931054652717
-1.5663131659927332
-1.5170773886727107
-1.5416952773327224
-1.5601586938277234
-1.5416952773327224
-1.5416952773327224
-1.5601586938277234
-1.4924595000126994
-1.5724676381577152
-1.7263294422827367
-1.7940286360977609
-0.889321227842632
-1.3139798072276945
-1.4986139721777092
-1.5478497494977315
-1.4863050278477177
-1.5724676381577152
-1.5540042216627135
-1.5478497494977315
-1.6093944711477182
-1.5601586938277234
-1.578622110322725
-1.5724676381577152
-1.5170773886727107
-1.5478497494977315
-1.7447928587777384
-1.8678823020777668
-1.590931054652717
-1.5293863330027024
-1.6032399989827366
-1.5663131659927332
-1.4801505556827075
-1.5970855268177266
-1.5663131659927332
-1.578622110322725
-1.5724676381577152
-1.590931054652717
-1.5663131659927332
-1.4062968897027015
-0.6308333969125834
-1.2647440299076718
-1.4986139721777092
-1.4986139721777092
-1.5478497494977315
-1.5847765824877347
-1.5724676381577152
-1.5293863330027024
-1.5355408051677124
-1.5540042216627135
-1.5416952773327224
-1.5601586938277234
-1.5663131659927332
-1.5847765824877347
-1.6709391927977324
-1.5601586938277234
-1.504768444342719
-1.578622110322725
-1.5847765824877347
-1.590931054652717
-1.6093944711477182
-1.578622110322725
-1.590931054652717
-1.510922916507701
-1.5847765824877347
-1.6340123598077294
-1.6586302484677409
-1.7878741639327511
-2.409475852597848
-1.3016708628976748
-0.009231708247514623
-2.587955545382853
-2.877215737137895
-1.8371099412527454
-1.683248137127724
-1.6093944711477182
-1.6524757763027313
-1.689402609292734
-1.6463213041377216
-1.5970855268177266
-1.7386383866127564
-1.6647847206327224
-2.1632969659978185
-1.8801912464077586
-1.7017115536227536
-1.6709391927977324
-1.6340123598077294
-1.6647847206327224
-1.7324839144477464
-1.6401668319727392
-1.6463213041377216
-1.6340123598077294
-1.6586302484677409
-1.6401668319727392
-1.615548943312728
-1.2770529742376913
-1.1970448360926755
-1.5355408051677124
-1.5847765824877347
-1.5355408051677124
-1.5416952773327224
-1.578622110322725
-1.5540042216627135
-1.5847765824877347
-1.6093944711477182
-1.578622110322725
-1.5540042216627135
-1.4986139721777092
-1.5601586938277234
-1.473996083517698
-1.6278578876427194
-1.5847765824877347
-1.5478497494977315
-1.5601586938277234
-1.5847765824877347
-1.5540042216627135
-1.5293863330027024
-1.5601586938277234
-1.473996083517698
-1.5232318608377204
-1.504768444342719
-1.5293863330027024
-1.467841611352716
-1.3816790010426905
-1.6955570814577436
-1.6217034154777374
-1.473996083517698
-1.5232318608377204
-1.4986139721777092
-1.510922916507701
-1.5355408051677124
-1.510922916507701
-1.677093664962742
-1.8248009969227534
-1.11088222578265
-1.5663131659927332
-1.4863050278477177
-1.3139798072276945
-1.6278578876427194
-1.615548943312728
-1.5601586938277234
-1.5170773886727107
-1.4863050278477177
-1.5416952773327224
-1.5478497494977315
-1.4924595000126994
-1.4186058340326935
-1.4124513618677115
-1.4124513618677115
-1.3570611123826792
-1.2278171969176688
-1.215508252587677
-1.3509066402176972
-1.2031993082576575
-1.1724269474326645
-1.215508252587677
-1.1724269474326645
-1.221662724752659
-1.2585895577426898
-1.3201342793926762
-1.3509066402176972
-1.3509066402176972
-1.3693700567126987
-1.467841611352716
-1.3755245288776807
-1.2278171969176688
-1.4801505556827075
-1.4801505556827075
-1.504768444342719
-1.473996083517698
-1.437069250527695
-1.4309147783627132
-1.400142417537692
-0.6923781185625978
-1.6955570814577436
-1.9171180793977614
-1.437069250527695
-1.467841611352716
-1.3385976958876775
-1.289361918567683
-1.6032399989827366
-1.400142417537692
-1.4801505556827075
-1.473996083517698
-1.437069250527695
-1.467841611352716
-1.4863050278477177
-1.5416952773327224
-1.5170773886727107
-1.4247603061977032
-1.6217034154777374
-0.9939472546476313
0.1384756237125251
-1.855573357747775
-1.6955570814577436
-1.590931054652717
-1.590931054652717
-2.446402685587851
-2.3848579639378364
-1.590931054652717
-1.5540042216627135
-1.5170773886727107
-1.4986139721777092
-1.473996083517698
-1.4616871391877062
-1.473996083517698
-1.510922916507701
-1.5724676381577152
-1.5663131659927332
-1.5293863330027024
-1.5293863330027024
-1.5232318608377204
-1.3139798072276945
-0.18771140103251985
-2.0586709391927913
-1.2462806134126705
-1.5970855268177266
-1.590931054652717
-1.590931054652717
-1.6217034154777374
-1.8248009969227534
-3.037232013427927
-2.052516467027782
-1.5540042216627135
-1.4986139721777092
-1.5293863330027024
-1.6093944711477182
-1.5416952773327224
-1.467841611352716
-1.590931054652717
-1.6093944711477182
-1.578622110322725
-1.5724676381577152
-1.5724676381577152
-1.4924595000126994
-1.6463213041377216
-1.5601586938277234
-1.6524757763027313
-1.6586302484677409
-1.615548943312728
-1.615548943312728
-1.6278578876427194
-1.578622110322725
-1.5478497494977315
-1.473996083517698
-1.5970855268177266
-1.5663131659927332
-1.5416952773327224
-1.25243508557768
-1.184735891762656
-1.4247603061977032
-1.4309147783627132
-1.4186058340326935
-1.510922916507701
-1.4616871391877062
-1.504768444342719
-1.4555326670226965
-1.4924595000126994
-1.5170773886727107
-1.473996083517698
-1.4924595000126994
-1.6278578876427194
-1.4801505556827075
-1.6278578876427194
-1.6278578876427194
-1.5724676381577152
-1.5293863330027024
-1.510922916507701
-1.4432237226927047
-1.4616871391877062
-1.467841611352716
-1.4555326670226965
-1.437069250527695
-1.5232318608377204
-1.5478497494977315
-1.5478497494977315
-1.861727829912757
-1.3078253350626845
-1.5416952773327224
-1.5540042216627135
-1.510922916507701
-1.4986139721777092
-1.5416952773327224
-1.4062968897027015
-1.5478497494977315
-1.6217034154777374
-1.5355408051677124
-1.5416952773327224
-1.5540042216627135
-1.4801505556827075
-1.3693700567126987
-1.615548943312728
-1.7078660257877356
-1.615548943312728
-1.5663131659927332
-1.6278578876427194
-1.6647847206327224
-1.6278578876427194
-1.6647847206327224
-1.6032399989827366
-1.7386383866127564
-1.7386383866127564
-1.7263294422827367
-1.677093664962742
-1.5724676381577152
-1.8124920525927626
-1.830955469087764
-1.7878741639327511
-1.89865466290276
-1.9478904402227823
-1.849418885582765
-1.8001831082627426
-1.8371099412527454
-1.3324432237226955
-0.6616057577376044
-2.944914930952919
-2.55718318455786
-1.8001831082627426
-1.7017115536227536
-1.818646524757745
-1.683248137127724
-1.7017115536227536
-1.7078660257877356
-1.7940286360977609
-1.8248009969227534
-1.8678823020777668
-1.892500190737778
-1.8863457185727683
-1.91096360723278
-1.9601993845527748
-1.9478904402227823
-1.8740367742427766
-1.8740367742427766
-2.052516467027782
-1.9971262175427773
-2.003280689707787
-1.91096360723278
-1.818646524757745
-1.1355001144426613
-1.861727829912757
-2.286386409297819
-1.8678823020777668
-1.7755652196027594
-1.7263294422827367
-1.7755652196027594
-1.7386383866127564
-1.5416952773327224
-1.8124920525927626
-1.7263294422827367
-1.6586302484677409
-1.615548943312728
-1.5724676381577152
-1.504768444342719
-1.4924595000126994
-1.7632562752727399
-2.138679077337807
-1.9417359680577726
-1.6709391927977324
-1.5847765824877347
-1.473996083517698
-1.473996083517698
-1.5355408051677124
-1.3693700567126987
-1.437069250527695
-1.400142417537692
-1.4247603061977032
-1.39398794537271
-1.363215584547689
-1.400142417537692
-1.39398794537271
-1.3693700567126987
-1.4432237226927047
-1.4124513618677115
-1.3816790010426905
-1.39398794537271
-0.6431423412426027
0.9508659494926462
-1.1724269474326645
-0.4400447597975588
-1.0554919762976458
-1.289361918567683
-1.3385976958876775
-1.3324432237226955
-1.3447521680526875
-1.400142417537692
-1.3878334732077002
-1.4555326670226965
-1.2832074464026733
-1.0862643371226666
-1.3509066402176972
-1.437069250527695
-1.4247603061977032
-1.363215584547689
-0.8154675618626261
-1.5416952773327224
-1.861727829912757
-1.510922916507701
-1.4432237226927047
-1.400142417537692
-1.400142417537692
-1.437069250527695
-1.4186058340326935
-1.6032399989827366
-1.4555326670226965
-1.437069250527695
-1.4124513618677115
-1.4432237226927047
-2.680272627857888
-3.277256427862973
-2.1263701330077875
-1.7324839144477464
-1.5970855268177266
-1.4616871391877062
-1.4555326670226965
-1.4616871391877062
-1.3324432237226955
-1.400142417537692
-1.4124513618677115
-1.473996083517698
-1.4616871391877062
-1.4247603061977032
-1.4247603061977032
-1.473996083517698
-1.4186058340326935
-1.4493781948577145
-1.4432237226927047
-1.5355408051677124
-1.510922916507701
-1.4863050278477177
-1.4124513618677115
-1.590931054652717
-1.363215584547689
-1.3755245288776807
-1.39398794537271
-1.510922916507701
-1.0616464484626553
-0.390808982477564
-1.6093944711477182
-1.6278578876427194
-1.6032399989827366
-1.7940286360977609
-2.6064189618778553
-1.6955570814577436
-1.215508252587677
-1.5170773886727107
-1.4309147783627132
-1.473996083517698
-1.504768444342719
-1.5293863330027024
-1.473996083517698
-1.4801505556827075
-1.5232318608377204
-1.5724676381577152
-1.4863050278477177
-1.4616871391877062
-1.5478497494977315
-1.4493781948577145
-1.4493781948577145
-1.6524757763027313
-1.289361918567683
-1.3816790010426905
-1.5416952773327224
-1.5663131659927332
-1.4863050278477177
-1.3324432237226955
-1.5293863330027024
-1.5847765824877347
-1.6032399989827366
-1.6463213041377216
-1.5293863330027024
-1.3693700567126987
-1.4247603061977032
-1.6340123598077294
-1.7386383866127564
-1.6340123598077294
-1.6278578876427194
-1.6463213041377216
-1.578622110322725
-1.4801505556827075
-1.4863050278477177
-1.5355408051677124
-1.6524757763027313
-1.7386383866127564
-1.8001831082627426
-1.6340123598077294
-1.5847765824877347
-1.830955469087764
-1.7509473309427481
-1.7017115536227536
-1.677093664962742
-1.6463213041377216
-1.590931054652717
-1.7078660257877356
-1.757101803107758
-1.7509473309427481
-1.689402609292734
-1.5970855268177266
-1.7632562752727399
-1.818646524757745
-2.255614048472826
-1.5416952773327224
-1.4863050278477177
-1.5355408051677124
-1.5847765824877347
-1.6093944711477182
-1.6217034154777374
-1.6463213041377216
-1.5416952773327224
-1.5355408051677124
-1.5293863330027024
-1.5970855268177266
-1.5355408051677124
-1.5170773886727107
-1.6340123598077294
-1.4924595000126994
-1.5478497494977315
-1.7694107474377496
-1.6586302484677409
-1.6278578876427194
-1.5416952773327224
-1.6524757763027313
-1.6032399989827366
-1.677093664962742
-1.6093944711477182
-1.615548943312728
-1.6709391927977324
-1.5540042216627135
-0.15693904020752658
-1.3509066402176972
-1.9601993845527748
-1.7632562752727399
-1.6032399989827366
-1.5970855268177266
-1.5847765824877347
-1.578622110322725
-2.255614048472826
-2.077134355687793
-1.6278578876427194
-1.5355408051677124
-1.5416952773327224
-1.0554919762976458
-0.396963454642546
-1.1170366979476598
-1.3570611123826792
-1.5416952773327224
-1.5293863330027024
-1.5416952773327224
-1.4555326670226965
-1.4924595000126994
-1.4863050278477177
-1.4801505556827075
-1.5540042216627135
-1.6032399989827366
-1.5416952773327224
-1.677093664962742
-1.7447928587777384
-1.6093944711477182
-1.0493375041326358
-0.6492968134075847
-2.600264489712873
-1.830955469087764
-1.6709391927977324
-1.5355408051677124
-1.510922916507701
-1.5416952773327224
-1.6032399989827366
-1.467841611352716
-1.6278578876427194
-2.1325246051727973
-2.3848579639378364
-1.8863457185727683
-1.7878741639327511
-1.677093664962742
-1.6093944711477182
-1.5293863330027024
-1.830955469087764
-1.7694107474377496
-1.6709391927977324
-1.6032399989827366
-1.5355408051677124
-1.5540042216627135
-1.7324839144477464
-1.326288751557686
-1.590931054652717
-1.5847765824877347
-1.6032399989827366
-1.6463213041377216
-1.590931054652717
-1.4924595000126994
-1.4986139721777092
-1.5970855268177266
-1.855573357747775
-1.7878741639327511
-1.7263294422827367
-1.6524757763027313
-1.504768444342719
-1.5540042216627135
-1.830955469087764
-1.6463213041377216
-1.6586302484677409
-1.5232318608377204
-1.3693700567126987
-1.467841611352716
-1.4493781948577145
-1.4247603061977032
-1.510922916507701
-1.677093664962742
-1.6278578876427194
-1.4924595000126994
-1.4247603061977032
-1.3078253350626845
-1.6217034154777374
-1.5478497494977315
-1.7201749701177547
-1.5970855268177266
-1.5293863330027024
-1.473996083517698
-1.473996083517698
-1.3016708628976748
-1.5724676381577152
-2.1263701330077875
-2.507947407237865
-1.104727753617668
-1.2278171969176688
-1.3755245288776807
-1.615548943312728
-1.6217034154777374
-1.5970855268177266
-1.5724676381577152
-1.437069250527695
-1.6093944711477182
-1.5847765824877347
-1.5355408051677124
-1.5355408051677124
-1.5970855268177266
-1.6217034154777374
-1.578622110322725
-1.510922916507701
-1.6032399989827366
-1.7017115536227536
-1.590931054652717
-1.5540042216627135
-1.6217034154777374
-1.6093944711477182
-1.5601586938277234
-1.5663131659927332
-1.6524757763027313
-1.590931054652717
-1.5170773886727107
-1.504768444342719
-1.5724676381577152
-1.5601586938277234
-1.5170773886727107
-1.5416952773327224
-1.6340123598077294
-1.6032399989827366
-1.5478497494977315
-1.5355408051677124
-1.5540042216627135
-1.5540042216627135
-1.4801505556827075
-1.510922916507701
-1.5416952773327224
-1.5663131659927332
-1.5724676381577152
-1.4924595000126994
-1.5601586938277234
-1.590931054652717
-1.4863050278477177
-1.5232318608377204
-1.504768444342719
-1.4801505556827075
-1.5232318608377204
-1.504768444342719
-1.5170773886727107
-1.5601586938277234
-1.4432237226927047
-1.5724676381577152
-1.578622110322725
-0.9877927824826491
-1.0862643371226666
-3.9419394216830828
-2.520256351567857
-1.7817196917677414
-1.966353856717784
-2.3417766587828237
-1.615548943312728
-1.5232318608377204
-1.4801505556827075
-1.6524757763027313
-1.6340123598077294
-1.5663131659927332
-1.6032399989827366
-1.578622110322725
-1.590931054652717
-1.615548943312728
-1.5724676381577152
-1.578622110322725
-1.5847765824877347
-1.5663131659927332
-1.5847765824877347
-1.7632562752727399
-1.578622110322725
-1.504768444342719
-1.4616871391877062
-1.5170773886727107
-1.5478497494977315
-1.3016708628976748
-1.3447521680526875
-1.4986139721777092
-1.4924595000126994
-1.5416952773327224
-1.5416952773327224
-1.8001831082627426
-1.6340123598077294
-1.5601586938277234
-1.5724676381577152
-1.5663131659927332
-1.5724676381577152
-1.5724676381577152
-1.5478497494977315
-1.4616871391877062
-1.6093944711477182
-1.5170773886727107
-1.5416952773327224
-1.615548943312728
-1.5847765824877347
-1.5355408051677124
-1.5232318608377204
-1.4863050278477177
-1.5232318608377204
-1.467841611352716
-1.6217034154777374
-1.6463213041377216
-1.5540042216627135
-1.4309147783627132
-1.7017115536227536
-1.578622110322725
-1.5170773886727107
-1.4555326670226965
-1.6217034154777374
-1.590931054652717
-1.8124920525927626
-2.409475852597848
-1.1539635309376628
-1.1908903639276658
-1.5170773886727107
-1.4555326670226965
-1.578622110322725
-1.4062968897027015
-1.7017115536227536
-1.6586302484677409
-1.5970855268177266
-1.6217034154777374
-1.5416952773327224
-1.504768444342719
-1.6586302484677409
-1.6586302484677409
-1.6463213041377216
-1.4801505556827075
-1.6647847206327224
-1.6217034154777374
-1.4493781948577145
-1.2093537804226673
-1.5601586938277234
-1.5970855268177266
-1.6278578876427194
-1.5663131659927332
-1.510922916507701
-1.5540042216627135
-1.5847765824877347
-1.5416952773327224
-1.4924595000126994
-1.615548943312728
-1.6278578876427194
-1.615548943312728
-1.578622110322725
-1.2770529742376913
-1.6217034154777374
-1.7324839144477464
-1.4247603061977032
-1.3139798072276945
-1.0678009206276373
-1.6647847206327224
-2.2925408814628288
-1.818646524757745
-1.5293863330027024
-1.6524757763027313
-1.6586302484677409
-1.6278578876427194
-1.5478497494977315
-1.473996083517698
-1.6278578876427194
-1.578622110322725
-1.510922916507701
-1.6463213041377216
-1.6217034154777374
-1.504768444342719
-1.5170773886727107
-1.504768444342719
-1.8124920525927626
-1.1970448360926755
-0.26156506701252585
-2.194069326822812
-1.7509473309427481
-1.5478497494977315
-1.510922916507701
-1.5355408051677124
-1.5847765824877347
-1.5970855268177266
-2.1017522443478045
-2.0586709391927913
-1.6647847206327224
-1.6093944711477182
-1.5724676381577152
-1.5355408051677124
-1.5663131659927332
-1.5724676381577152
-1.467841611352716
-1.5601586938277234
-1.5232318608377204
-1.5970855268177266
-1.615548943312728
-1.473996083517698
-1.4555326670226965
-1.473996083517698
-1.5724676381577152
-1.689402609292734
-1.615548943312728
-1.5970855268177266
-1.6093944711477182
-1.6278578876427194
-1.4986139721777092
-1.178581419597674
-1.3878334732077002
-1.5232318608377204
-1.504768444342719
-1.5847765824877347
-1.578622110322725
-1.5847765824877347
-1.510922916507701
-0.8462399226876194
-0.9262480608326351
-2.4156303247628297
-1.0185651433076426
-1.3139798072276945
-1.5416952773327224
-1.818646524757745
-1.6278578876427194
-1.892500190737778
-2.2186872154828228
-1.677093664962742
-1.6093944711477182
-1.5540042216627135
-1.504768444342719
-1.5293863330027024
-1.473996083517698
-1.437069250527695
-1.6463213041377216
-1.578622110322725
-1.590931054652717
-1.7017115536227536
-1.5355408051677124
-1.4863050278477177
-1.4986139721777092
-1.6401668319727392
-1.7201749701177547
-1.2955163907326928
-1.6709391927977324
-1.7017115536227536
-1.4801505556827075
-1.400142417537692
-1.4863050278477177
-1.5663131659927332
-1.1293456422776516
-1.3016708628976748
-1.7632562752727399
-1.6401668319727392
-1.510922916507701
-1.437069250527695
-1.4801505556827075
-1.6586302484677409
-1.7509473309427481
-1.6709391927977324
-1.6586302484677409
-1.5232318608377204
-1.5293863330027024
-1.578622110322725
-1.4062968897027015
-1.5540042216627135
-1.590931054652717
-1.4986139721777092
-1.363215584547689
-1.689402609292734
-1.7817196917677414
-1.5663131659927332
-1.504768444342719
-1.5293863330027024
-1.5416952773327224
-1.5724676381577152
-1.6340123598077294
-1.5847765824877347
-1.39398794537271
-1.590931054652717
-1.757101803107758
-2.4217847969278394
-1.0124106711426328
-1.1724269474326645
-1.4801505556827075
-1.510922916507701
-1.5663131659927332
-1.615548943312728
-1.504768444342719
-1.4062968897027015
-1.6524757763027313
-1.578622110322725
-1.4801505556827075
-1.7263294422827367
-1.6093944711477182
-1.615548943312728
-1.5170773886727107
-1.6093944711477182
-1.5540042216627135
-1.0124106711426328
-0.2738740113425453
-2.1079067165127863
-1.5724676381577152
-1.5170773886727107
-2.120215660842805
-1.9478904402227823
-1.590931054652717
-1.6709391927977324
-1.5232318608377204
-1.5416952773327224
-1.5232318608377204
-1.4986139721777092
-1.6032399989827366
-1.5970855268177266
-1.5478497494977315
-1.5355408051677124
-1.5293863330027024
-1.4247603061977032
-1.5540042216627135
-1.5601586938277234
-1.6340123598077294
-1.677093664962742
-1.590931054652717
-1.578622110322725
-1.510922916507701
-1.504768444342719
-1.5724676381577152
-1.5232318608377204
-1.6217034154777374
-1.6032399989827366
-1.6709391927977324
-1.578622110322725
-1.4616871391877062
-1.4062968897027015
-1.467841611352716
-1.6032399989827366
-1.4863050278477177
-1.6709391927977324
-1.6340123598077294
-1.5601586938277234
-1.4986139721777092
-1.467841611352716
-1.4432237226927047
-1.39398794537271
-1.6093944711477182
-1.5478497494977315
-1.7386383866127564
-1.5170773886727107
-1.4555326670226965
-1.6401668319727392
-1.5416952773327224
-1.5232318608377204
-1.590931054652717
-1.504768444342719
-1.510922916507701
-1.504768444342719
-1.510922916507701
-1.4801505556827075
-1.510922916507701
-1.4616871391877062
-1.5601586938277234
-1.4493781948577145
-1.849418885582765
-2.2740774649678275
-0.9200935886676254
-1.178581419597674
-1.4124513618677115
-1.4062968897027015
-1.4186058340326935
-1.4062968897027015
-1.5724676381577152
-1.5170773886727107
-1.4801505556827075
-1.578622110322725
-1.5478497494977315
-1.4924595000126994
-1.7755652196027594
-1.6093944711477182
-1.5355408051677124
-1.4986139721777092
-1.473996083517698
-1.6093944711477182
-1.5601586938277234
-1.6032399989827366
-1.6647847206327224
-1.6217034154777374
-1.5847765824877347
-1.5970855268177266
-1.6278578876427194
-1.437069250527695
-1.2770529742376913
-1.6217034154777374
-1.757101803107758
-1.6340123598077294
-1.4924595000126994
-1.6955570814577436
-1.683248137127724
-1.5724676381577152
-1.6217034154777374
-1.590931054652717
-1.510922916507701
-1.6955570814577436
-2.0278985783677985
-1.9232725515627715
-1.9417359680577726
-1.855573357747775
-1.7509473309427481
-1.9355814958927628
-1.8863457185727683
-1.830955469087764
-1.7755652196027594
-1.7324839144477464
-1.818646524757745
-1.9048091350677696
-1.855573357747775
-1.9232725515627715
-1.8001831082627426
-1.615548943312728
-1.818646524757745
-1.6955570814577436
-1.7263294422827367
-1.4924595000126994
-0.6492968134075847
-2.0278985783677985
-1.7878741639327511
-1.7817196917677414
-1.8740367742427766
-1.757101803107758
-1.8001831082627426
-2.052516467027782
-2.575646601052861
-1.9971262175427773
-1.9478904402227823
-1.8063375804277528
-1.7447928587777384
-1.6586302484677409
-1.6401668319727392
-1.6340123598077294
-1.7324839144477464
-1.6647847206327224
-1.683248137127724
-1.7140204979527456
-1.615548943312728
-1.510922916507701
-1.510922916507701
-1.39398794537271
-1.6278578876427194
-1.6093944711477182
-1.5416952773327224
-1.5232318608377204
-1.5601586938277234
-1.5478497494977315
-1.504768444342719
-1.4124513618677115
-1.504768444342719
-1.4616871391877062
-1.4924595000126994
-1.4124513618677115
-1.3201342793926762
-1.3693700567126987
-1.6093944711477182
-1.3816790010426905
-1.578622110322725
-1.6524757763027313
-1.510922916507701
-1.4309147783627132
-1.6278578876427194
-1.473996083517698
-1.3693700567126987
-1.3447521680526875
-1.4616871391877062
-1.4801505556827075
-1.326288751557686
-1.1293456422776516
-1.2708985020726815
-1.3385976958876775
-1.215508252587677
-1.141654586607671
-1.3570611123826792
-1.3693700567126987
-1.3570611123826792
-1.3816790010426905
-1.3570611123826792
-1.3016708628976748
-1.39398794537271
-2.0340530505327803
-0.895475700007614
-0.9077846443376336
-1.3570611123826792
-1.3816790010426905
-1.3385976958876775
-1.3570611123826792
-1.3139798072276945
-1.3878334732077002
-1.3693700567126987
-1.326288751557686
-1.3324432237226955
-1.3447521680526875
-1.2770529742376913
-1.3324432237226955
-1.2708985020726815
-1.3078253350626845
-1.3447521680526875
-1.25243508557768
-1.0062561989776508
-1.2708985020726815
-1.3509066402176972
-1.2708985020726815
-1.2462806134126705
-1.4186058340326935
-1.7201749701177547
-1.6032399989827366
-1.4801505556827075
-1.4493781948577145
-1.437069250527695
-1.473996083517698
-1.4247603061977032
-1.6093944711477182
-1.3693700567126987
-1.467841611352716
-1.4124513618677115
-1.2832074464026733
-1.510922916507701
-1.2401261412476885
-1.590931054652717
-1.849418885582765
-1.6463213041377216
-1.5232318608377204
-1.3816790010426905
-1.4309147783627132
-1.5540042216627135
-1.2708985020726815
-0.26156506701252585
-1.855573357747775
-1.5724676381577152
-1.2955163907326928
-1.1601180031026725
-1.8863457185727683
-1.4801505556827075
-1.757101803107758
-2.409475852597848
-1.8801912464077586
-1.5416952773327224
-1.1724269474326645
-0.6308333969125834
-1.954044912387765
-1.6093944711477182
-1.7694107474377496
-2.2186872154828228
-1.6955570814577436
-1.6217034154777374
-1.615548943312728
-1.5970855268177266
-1.5540042216627135
-1.7140204979527456
-1.6093944711477182
-1.5232318608377204
-1.7386383866127564
-1.6217034154777374
-1.6524757763027313
-1.6093944711477182
-1.4986139721777092
-1.5232318608377204
-1.473996083517698
-1.578622110322725
-1.5847765824877347
-1.5478497494977315
-1.5170773886727107
-1.5355408051677124
-1.4986139721777092
-1.363215584547689
-1.6217034154777374
-1.683248137127724
-1.590931054652717
-1.5601586938277234
-0.9262480608326351
-0.47697159278756174
-1.8124920525927626
-1.9294270237277809
-1.1170366979476598
-1.6586302484677409
-1.510922916507701
-1.6524757763027313
-1.5847765824877347
-1.3693700567126987
-1.510922916507701
-1.4986139721777092
-1.677093664962742
-1.7940286360977609
-1.677093664962742
-1.5416952773327224
-1.5847765824877347
-1.510922916507701
-1.4863050278477177
-1.3816790010426905
-1.4309147783627132
-1.6524757763027313
-1.4986139721777092
-1.363215584547689
-1.5355408051677124
-1.4616871391877062
-0.7169960072226089
-1.0124106711426328
-1.6217034154777374
-1.9355814958927628
-1.9355814958927628
-1.861727829912757
-2.378703491772827
-0.9139391165026156
-0.9385570051626267
-1.3016708628976748
-1.4309147783627132
-1.4247603061977032
-1.5663131659927332
-1.437069250527695
-1.3509066402176972
-1.400142417537692
-1.4124513618677115
-1.3201342793926762
-1.4924595000126994
-1.4924595000126994
-1.4801505556827075
-1.4186058340326935
-1.4247603061977032
-1.4555326670226965
-1.4124513618677115
-1.3139798072276945
-1.5170773886727107
-1.5601586938277234
-1.5540042216627135
-1.4555326670226965
-1.473996083517698
-1.4986139721777092
-1.5355408051677124
-1.4863050278477177
-1.5293863330027024
-1.510922916507701
-1.5416952773327224
-1.4924595000126994
-1.3755245288776807
-1.4186058340326935
-1.5170773886727107
-1.5170773886727107
-1.5170773886727107
-1.5232318608377204
-1.5416952773327224
-1.5601586938277234
-1.5355408051677124
-1.4801505556827075
-1.4309147783627132
-1.4924595000126994
-1.5970855268177266
-1.400142417537692
-1.4062968897027015
-1.6340123598077294
-1.578622110322725
-1.400142417537692
-1.3570611123826792
-1.6093944711477182
-1.6278578876427194
-1.2955163907326928
-1.289361918567683
-1.6093944711477182
-1.4986139721777092
-1.3324432237226955
-0.901630172172624
-0.5200528979425745
-1.5478497494977315
-0.6000610360875902
-1.1539635309376628
-1.4432237226927047
-1.4432237226927047
-1.4247603061977032
-1.7817196917677414
-2.0463619948628
-1.4986139721777092
-1.3509066402176972
-1.4801505556827075
-1.4432237226927047
-1.4062968897027015
-1.510922916507701
-1.5478497494977315
-2.1632969659978185
-1.6524757763027313
-1.4493781948577145
-1.4124513618677115
-1.4247603061977032
-1.39398794537271
-1.4247603061977032
-1.3693700567126987
-1.4432237226927047
-1.4062968897027015
-1.4247603061977032
-1.4432237226927047
-1.4124513618677115
-1.3139798072276945
-1.4493781948577145
-1.3878334732077002
-1.39398794537271
-1.4309147783627132
-1.3878334732077002
-1.3693700567126987
-1.400142417537692
-1.4863050278477177
-1.4062968897027015
-1.3570611123826792
-1.39398794537271
-1.473996083517698
-1.6217034154777374
-1.3816790010426905
-1.578622110322725
-1.5663131659927332
-1.400142417537692
-1.4986139721777092
-1.437069250527695
-1.4432237226927047
-1.4924595000126994
-1.5170773886727107
-1.3816790010426905
-1.510922916507701
-1.473996083517698
-1.7940286360977609
-1.5601586938277234
-1.2278171969176688
-0.9693293659876481
-1.4924595000126994
-1.89865466290276
-1.5355408051677124
-1.4924595000126994
-2.070979883522784
-1.2031993082576575
-1.0247196154726523
-1.0985732814526583
-1.400142417537692
-1.326288751557686
-1.1908903639276658
-1.5724676381577152
-1.578622110322725
-1.4863050278477177
-1.4309147783627132
-1.6709391927977324
-1.473996083517698
-1.4555326670226965
-1.4555326670226965
-1.3385976958876775
-1.473996083517698
-1.2031993082576575
-1.1908903639276658
-1.1724269474326645
-1.2093537804226673
-1.1724269474326645
-1.0801098649576568
-1.2708985020726815
-1.2647440299076718
-1.1478090587726528
-1.2832074464026733
-1.3201342793926762
-1.3447521680526875
-1.4062968897027015
-1.3693700567126987
-1.4062968897027015
-1.4309147783627132
-1.4493781948577145
-1.39398794537271
-1.3078253350626845
-1.2339716690826785
-1.504768444342719
-0.8154675618626261
-1.615548943312728
-1.91096360723278
-1.510922916507701
-1.4924595000126994
-1.4863050278477177
-1.5232318608377204
-1.5416952773327224
-1.5232318608377204
-1.5232318608377204
-1.473996083517698
-1.473996083517698
-1.5847765824877347
-1.6093944711477182
-1.510922916507701
-1.4801505556827075
-1.4309147783627132
-1.5970855268177266
-1.5663131659927332
-1.5724676381577152
-1.0370285598026439
-0.05846748556750937
-2.04020752269779
-1.677093664962742
-2.3971669082678284
-2.2433051041428067
-1.5970855268177266
-1.5847765824877347
-1.5293863330027024
-1.6032399989827366
-1.5232318608377204
-1.4801505556827075
-1.467841611352716
-1.5416952773327224
-1.4493781948577145
-1.4616871391877062
-1.510922916507701
-1.5478497494977315
-1.4986139721777092
-1.4863050278477177
-1.6401668319727392
-1.6217034154777374
-1.510922916507701
-1.5355408051677124
-1.510922916507701
-1.4924595000126994
-1.5355408051677124
-1.4432237226927047
-1.4493781948577145
-1.5416952773327224
-1.5540042216627135
-1.5170773886727107
-1.4801505556827075
-1.3878334732077002
-1.467841611352716
-0.6800691742326057
-1.677093664962742
-1.9971262175427773
-1.6032399989827366
-1.5724676381577152
-1.504768444342719
-1.4924595000126994
-1.4924595000126994
-1.4432237226927047
-1.6401668319727392
-1.5724676381577152
-1.473996083517698
-1.363215584547689
-1.6032399989827366
-1.7755652196027594
-1.7632562752727399
-1.6524757763027313
-1.855573357747775
-1.8001831082627426
-1.8001831082627426
-1.7509473309427481
-1.7386383866127564
-1.7324839144477464
-1.6955570814577436
-0.4831260649525715
-1.7694107474377496
-1.0308740876376343
-1.6278578876427194
-1.6955570814577436
-1.6217034154777374
-1.6647847206327224
-1.7509473309427481
-2.735662877342893
-2.4156303247628297
-1.8063375804277528
-1.6586302484677409
-1.5970855268177266
-1.6278578876427194
-1.6278578876427194
-1.5416952773327224
-1.400142417537692
-1.689402609292734
-1.590931054652717
-1.5663131659927332
-1.6340123598077294
-1.6340123598077294
-1.5970855268177266
-1.615548943312728
-1.6217034154777374
-1.615548943312728
-1.5970855268177266
-1.6401668319727392
-1.689402609292734
-1.578622110322725
-1.400142417537692
-1.0308740876376343
-1.830955469087764
-2.0278985783677985
-1.6278578876427194
-1.6401668319727392
-1.6217034154777374
-1.590931054652717
-1.6401668319727392
-1.5170773886727107
-1.6278578876427194
-1.6032399989827366
-1.5724676381577152
-1.6093944711477182
-1.5663131659927332
-1.683248137127724
-1.5724676381577152
-1.5293863330027024
-1.6586302484677409
-1.6032399989827366
-1.615548943312728
-1.590931054652717
-1.6463213041377216
-1.6093944711477182
-1.5416952773327224
-1.4555326670226965
-1.6032399989827366
-1.473996083517698
-1.4247603061977032
-1.7324839144477464
-1.6586302484677409
-1.590931054652717
-1.5478497494977315
-1.2770529742376913
-0.21848376185754081
-1.7017115536227536
-1.326288751557686
-1.590931054652717
-1.5724676381577152
-1.5724676381577152
-1.7078660257877356
-2.680272627857888
-2.1817603824928202
-1.8001831082627426
-1.5355408051677124
-1.5540042216627135
-1.5663131659927332
-1.504768444342719
-1.5293863330027024
-1.6093944711477182
-1.5970855268177266
-1.6340123598077294
-1.6340123598077294
-1.578622110322725
-1.5355408051677124
-1.437069250527695
-0.8277765061926179
-1.757101803107758
-1.91096360723278
-1.5170773886727107
-1.5232318608377204
-1.5416952773327224
-1.510922916507701
-1.4863050278477177
-1.467841611352716
-1.5970855268177266
-1.4986139721777092
-1.473996083517698
-1.5170773886727107
-1.4863050278477177
-1.467841611352716
-1.4616871391877062
-1.4555326670226965
-1.5847765824877347
-1.467841611352716
-1.5416952773327224
-1.5847765824877347
-1.5355408051677124
-1.5478497494977315
-1.5170773886727107
-1.4616871391877062
-1.6093944711477182
-1.5355408051677124
-1.363215584547689
-1.0678009206276373
-1.4309147783627132
-1.4924595000126994
-1.4863050278477177
-1.5478497494977315
-1.5847765824877347
-1.5540042216627135
-1.5355408051677124
-1.5293863330027024
-1.5724676381577152
-1.5540042216627135
-1.7140204979527456
-1.8063375804277528
-1.4124513618677115
-2.052516467027782
-1.7140204979527456
-1.6463213041377216
-1.5724676381577152
-1.590931054652717
-1.578622110322725
-1.5416952773327224
-1.590931054652717
-1.5663131659927332
-1.4924595000126994
-1.5601586938277234
-1.615548943312728
-1.6278578876427194
-1.5478497494977315
-1.6709391927977324
-1.5663131659927332
-1.5663131659927332
-1.5663131659927332
-1.5478497494977315
-1.5663131659927332
-1.5601586938277234
-1.4247603061977032
-1.5601586938277234
-1.5355408051677124
-1.5663131659927332
-1.5847765824877347
-1.4863050278477177
-1.3016708628976748
-1.6093944711477182
-1.4616871391877062
-1.5232318608377204
-1.5232318608377204
-1.5355408051677124
-1.5355408051677124
-1.5416952773327224
-1.5355408051677124
-1.510922916507701
-1.4924595000126994
-1.6463213041377216
-1.5847765824877347
-1.510922916507701
-1.3693700567126987
-1.7386383866127564
-1.6217034154777374
-1.5355408051677124
-1.504768444342719
-1.5847765824877347
-1.5355408051677124
-1.5478497494977315
-1.5970855268177266
-1.5663131659927332
-1.5416952773327224
-1.5724676381577152
-1.5601586938277234
-1.5724676381577152
-1.4801505556827075
-1.683248137127724
-1.0678009206276373
-0.02154065257750637
-1.9294270237277809
-1.9048091350677696
-2.871061264972913
-2.1079067165127863
-1.7017115536227536
-1.578622110322725
-1.5847765824877347
-1.6217034154777374
-1.6463213041377216
-1.590931054652717
-1.3509066402176972
-1.6093944711477182
-1.578622110322725
-1.578622110322725
-1.6217034154777374
-1.5478497494977315
-1.473996083517698
-1.4124513618677115
-1.5355408051677124
-1.437069250527695
-1.3385976958876775
-1.3509066402176972
-1.4555326670226965
-1.4309147783627132
-1.4493781948577145
-1.467841611352716
-1.3693700567126987
-1.3447521680526875
-1.3385976958876775
-1.3570611123826792
-1.4555326670226965
-1.504768444342719
-1.4986139721777092
-1.4616871391877062
-1.578622110322725
-1.5724676381577152
-1.6217034154777374
-1.590931054652717
-1.4863050278477177
-1.7324839144477464
-1.6955570814577436
-1.6647847206327224
-1.7201749701177547
-1.6586302484677409
-1.6093944711477182
-1.6524757763027313
-1.6093944711477182
-1.6401668319727392
-1.6647847206327224
-1.6709391927977324
-1.7201749701177547
-1.6278578876427194
-1.7386383866127564
-1.7878741639327511
-1.689402609292734
-1.7078660257877356
-1.6401668319727392
-1.683248137127724
-1.7201749701177547
-1.6217034154777374
-1.5847765824877347
-1.7940286360977609
-1.9601993845527748
-1.2708985020726815
-1.6278578876427194
-1.6032399989827366
-1.7078660257877356
-1.7324839144477464
-1.6340123598077294
-1.6340123598077294
-1.6217034154777374
-1.6217034154777374
-1.590931054652717
-1.6586302484677409
-1.6340123598077294
-1.5540042216627135
-1.510922916507701
-1.5724676381577152
-1.6032399989827366
-1.5540042216627135
-1.849418885582765
-1.7386383866127564
-1.6217034154777374
-1.590931054652717
-1.510922916507701
-1.4801505556827075
-1.510922916507701
-1.4186058340326935
-1.3447521680526875
-1.4186058340326935
-1.2770529742376913
-1.184735891762656
-1.141654586607671
-0.7600773123775938
-0.6308333969125834
-0.8770122835126126
-0.9570204216576284
-1.2955163907326928
-1.3139798072276945
-1.3016708628976748
-1.3693700567126987
-1.4309147783627132
-1.467841611352716
-1.4555326670226965
-1.4432237226927047
-1.5540042216627135
-1.5416952773327224
-1.3878334732077002
-1.4986139721777092
-1.4863050278477177
-1.5232318608377204
-1.4616871391877062
-1.4555326670226965
-1.5232318608377204
-1.5416952773327224
-1.5170773886727107
-1.4801505556827075
-1.4801505556827075
-1.5355408051677124
-1.5724676381577152
-1.0493375041326358
-0.360036621652543
-1.830955469087764
-1.6709391927977324
-1.6709391927977324
-1.6401668319727392
-1.6032399989827366
-1.3385976958876775
-1.6955570814577436
-2.224841687647805
-1.4309147783627132
-1.5232318608377204
-1.5478497494977315
-1.5355408051677124
-1.4432237226927047
-1.9171180793977614
-2.372549019607845
-1.4924595000126994
-1.400142417537692
-1.4124513618677115
-1.4801505556827075
-1.5478497494977315
-1.504768444342719
-1.5232318608377204
-1.683248137127724
-1.6093944711477182
-1.5663131659927332
-1.5724676381577152
-1.5847765824877347
-1.3878334732077002
-1.7078660257877356
-1.6093944711477182
-1.6093944711477182
-1.5663131659927332
-1.5847765824877347
-1.5601586938277234
-1.6586302484677409
-1.5970855268177266
-1.5663131659927332
-1.5355408051677124
-1.5170773886727107
-1.5847765824877347
-1.578622110322725
-1.5170773886727107
-1.6709391927977324
-1.5601586938277234
-1.5232318608377204
-1.5416952773327224
-1.5355408051677124
-1.5724676381577152
-1.6524757763027313
-1.6524757763027313
-1.6340123598077294
-1.615548943312728
-1.6401668319727392
-1.5970855268177266
-1.4555326670226965
-1.437069250527695
-1.7386383866127564
-1.6586302484677409
-1.6586302484677409
-1.6217034154777374
-1.5478497494977315
-1.6524757763027313
-1.6647847206327224
-1.6401668319727392
-1.6340123598077294
-1.6586302484677409
-1.6709391927977324
-1.6340123598077294
-1.7140204979527456
-1.9971262175427773
-1.39398794537271
-1.510922916507701
-1.5724676381577152
-1.6340123598077294
-1.615548943312728
-1.5847765824877347
-1.578622110322725
-1.7017115536227536
-1.6401668319727392
-1.6647847206327224
-1.689402609292734
-1.7140204979527456
-1.7017115536227536
-1.8863457185727683
-1.7817196917677414
-1.7201749701177547
-1.6647847206327224
-1.683248137127724
-1.6401668319727392
-1.6032399989827366
-1.5724676381577152
-1.5970855268177266
-1.5724676381577152
-1.7324839144477464
-1.689402609292734
-1.689402609292734
-1.6709391927977324
-1.7509473309427481
-1.757101803107758
-1.6709391927977324
-1.7140204979527456
-1.7632562752727399
-1.757101803107758
-1.7447928587777384
-1.7078660257877356
-1.7694107474377496
-1.8001831082627426
-1.7386383866127564
-1.7632562752727399
-1.7324839144477464
-1.7632562752727399
-2.070979883522784
-1.849418885582765
-1.7140204979527456
-1.7386383866127564
-1.7078660257877356
-1.8063375804277528
-1.8248009969227534
-1.7509473309427481
-1.7324839144477464
-1.2401261412476885
-0.5323618422725662
-1.9171180793977614
-2.403321380432838
-2.3971669082678284
-1.4062968897027015
-1.6463213041377216
-1.7017115536227536
-1.689402609292734
-1.7201749701177547
-1.7017115536227536
-1.6463213041377216
-1.8001831082627426
-1.7386383866127564
-1.7386383866127564
-1.7201749701177547
-1.6586302484677409
-1.7324839144477464
-1.6463213041377216
-1.8001831082627426
-1.8001831082627426
-1.7263294422827367
-1.7447928587777384
-1.8001831082627426
-1.7755652196027594
-1.7140204979527456
-1.6709391927977324
-1.615548943312728
-1.7140204979527456
-1.6401668319727392
-1.6709391927977324
-1.6093944711477182
-1.5293863330027024
-1.8001831082627426
-1.5970855268177266
-1.578622110322725
-1.6524757763027313
-1.615548943312728
-1.6093944711477182
-1.578622110322725
-1.6032399989827366
-1.5416952773327224
-1.4986139721777092
-1.5355408051677124
-1.5724676381577152
-1.5232318608377204
-1.4186058340326935
-1.6955570814577436
-1.6401668319727392
-1.6586302484677409
-1.4924595000126994
-1.6340123598077294
-1.7078660257877356
-1.615548943312728
-1.5601586938277234
-1.6709391927977324
-1.6586302484677409
-1.578622110322725
-1.5478497494977315
-1.6278578876427194
-1.4555326670226965
-1.6463213041377216
-1.5847765824877347
-1.830955469087764
-2.2186872154828228
-1.4247603061977032
-1.4062968897027015
-1.5540042216627135
-1.5540042216627135
-1.6955570814577436
-1.5355408051677124
-1.5293863330027024
-1.6586302484677409
-1.6401668319727392
-1.8801912464077586
-2.003280689707787
-1.7201749701177547
-1.677093664962742
-1.6401668319727392
-1.6463213041377216
-1.7386383866127564
-1.757101803107758
-1.7447928587777384
-1.7755652196027594
-1.7447928587777384
-1.7324839144477464
-1.7817196917677414
-1.7324839144477464
-1.289361918567683
-1.5540042216627135
-1.6401668319727392
-1.7447928587777384
-1.757101803107758
-1.7940286360977609
-1.830955469087764
-1.7940286360977609
-1.818646524757745
-1.855573357747775
-1.830955469087764
-1.8124920525927626
-1.89865466290276
-1.8248009969227534
-1.8001831082627426
-1.9294270237277809
-1.8248009969227534
-1.7940286360977609
-1.91096360723278
-1.8678823020777668
-1.855573357747775
-1.855573357747775
-1.8678823020777668
-1.972508328882766
-1.9601993845527748
-1.8801912464077586
-2.04020752269779
-1.9478904402227823
-1.9232725515627715
-1.9601993845527748
-1.9171180793977614
-1.89865466290276
-1.89865466290276
-1.7694107474377496
-1.3693700567126987
-0.6492968134075847
-2.089443300017785
-1.954044912387765
-1.8863457185727683
-1.861727829912757
-1.9232725515627715
-2.624882378372884
-2.477175046412844
-1.8678823020777668
-1.8248009969227534
-1.830955469087764
-1.8371099412527454
-1.91096360723278
-1.91096360723278
-1.8432644134177558
-1.892500190737778
-1.89865466290276
-1.8801912464077586
-1.8801912464077586
-1.8248009969227534
-1.3509066402176972
-0.6369878690775933
-1.4863050278477177
-1.7694107474377496
-1.6709391927977324
-1.7201749701177547
-1.7447928587777384
-1.7140204979527456
-1.7386383866127564
-1.7447928587777384
-1.7447928587777384
-1.7447928587777384
-1.7632562752727399
-1.7324839144477464
-2.261768520637808
-2.711044988682881
-1.9601993845527748
-1.683248137127724
-1.7201749701177547
-1.7940286360977609
-1.7632562752727399
-1.7201749701177547
-1.7078660257877356
-1.7447928587777384
-1.7078660257877356
-1.683248137127724
-1.7694107474377496
-1.683248137127724
-1.6217034154777374
-1.7878741639327511
-1.6524757763027313
-1.6093944711477182
-1.510922916507701
-1.400142417537692
-1.5601586938277234
-1.5416952773327224
-1.5847765824877347
-1.5232318608377204
-1.4124513618677115
-1.39398794537271
-1.4616871391877062
-1.3447521680526875
-1.4924595000126994
-1.9786628010477763
-1.0431830319676536
-1.0554919762976458
-1.1908903639276658
-1.1908903639276658
-1.2462806134126705
-1.2955163907326928
-1.4616871391877062
-1.3755245288776807
-1.2770529742376913
-1.4186058340326935
-1.6524757763027313
-1.5478497494977315
-1.0431830319676536
-0.28618295567253704
-1.5724676381577152
-1.5355408051677124
-1.5170773886727107
-1.4863050278477177
-1.5170773886727107
-1.4062968897027015
-1.6463213041377216
-2.4894839907428636
-1.757101803107758
-1.4986139721777092
-1.510922916507701
-1.5232318608377204
-1.4863050278477177
-1.683248137127724
-1.5232318608377204
-1.5724676381577152
-1.615548943312728
-1.5970855268177266
-1.5601586938277234
-1.504768444342719
-1.5478497494977315
-1.5847765824877347
-1.5478497494977315
-1.5847765824877347
-1.6093944711477182
-1.6278578876427194
-1.5293863330027024
-1.683248137127724
-1.6401668319727392
-1.5970855268177266
-1.5663131659927332
-1.7017115536227536
-1.6463213041377216
-1.6955570814577436
-1.7017115536227536
-1.6401668319727392
-1.6586302484677409
-1.6278578876427194
-1.5663131659927332
-1.6709391927977324
-1.6524757763027313
-1.8063375804277528
-1.7694107474377496
-1.2647440299076718
-0.5877520917575707
-2.0463619948628
-2.723353933012873
-2.1632969659978185
-1.6709391927977324
-1.6278578876427194
-1.6647847206327224
-1.6586302484677409
-1.689402609292734
-1.6463213041377216
-1.3878334732077002
-1.6217034154777374
-1.6647847206327224
-1.689402609292734
-1.7386383866127564
-1.7447928587777384
-1.6217034154777374
-1.590931054652717
-1.6647847206327224
-1.7447928587777384
-1.7386383866127564
-1.6586302484677409
-1.7817196917677414
-1.8371099412527454
-2.003280689707787
-1.8124920525927626
-1.849418885582765
-1.8432644134177558
-1.8248009969227534
-1.7447928587777384
-1.7940286360977609
-1.8124920525927626
-1.7509473309427481
-1.6647847206327224
-1.818646524757745
-1.849418885582765
-1.7817196917677414
-1.7201749701177547
-2.1694514381628007
-1.9417359680577726
-1.7017115536227536
-1.6709391927977324
-1.757101803107758
-1.6709391927977324
-1.6340123598077294
-1.7078660257877356
-1.7386383866127564
-1.7078660257877356
-1.7140204979527456
-1.7017115536227536
-1.8124920525927626
-1.4247603061977032
-1.2031993082576575
-1.5416952773327224
-1.6524757763027313
-1.6955570814577436
-1.6647847206327224
-1.6647847206327224
-1.6955570814577436
-1.6647847206327224
-1.6586302484677409
-1.7078660257877356
-1.8801912464077586
-2.347931130947833
-1.2770529742376913
-1.1231911701126696
-1.5724676381577152
-1.6032399989827366
-1.6217034154777374
-1.6586302484677409
-1.5478497494977315
-1.504768444342719
-1.6524757763027313
-1.6032399989827366
-1.578622110322725
-1.5970855268177266
-1.510922916507701
-1.4986139721777092
-1.5847765824877347
-1.4124513618677115
-1.6401668319727392
-1.3755245288776807
-1.184735891762656
-1.2585895577426898
-1.3139798072276945
-1.2708985020726815
-1.221662724752659
-1.1293456422776516
-1.184735891762656
-1.3016708628976748
-1.3016708628976748
-1.3816790010426905
-1.3139798072276945
-1.073955392792647
-1.221662724752659
-1.215508252587677
-1.2401261412476885
-1.363215584547689
-1.3078253350626845
-1.3201342793926762
-1.2339716690826785
-1.2585895577426898
-1.3570611123826792
-1.326288751557686
-1.25243508557768
-1.4186058340326935
-1.3816790010426905
-1.3570611123826792
-1.6340123598077294
-1.4801505556827075
-1.473996083517698
-1.4555326670226965
-1.4493781948577145
-1.4863050278477177
-1.4924595000126994
-1.504768444342719
-1.5293863330027024
-1.4986139721777092
-1.4555326670226965
-1.4986139721777092
-1.5170773886727107
-0.9200935886676254
-0.1692479845375183
-1.9848172732127856
-1.6647847206327224
-1.5970855268177266
-1.5663131659927332
-1.7632562752727399
-2.372549019607845
-1.7201749701177547
-1.6217034154777374
-1.6401668319727392
-1.6463213041377216
-1.5724676381577152
-1.5724676381577152
-1.5416952773327224
-1.683248137127724
-1.5847765824877347
-1.5663131659927332
-1.504768444342719
-1.5355408051677124
-1.6093944711477182
-1.590931054652717
-1.4863050278477177
-1.6093944711477182
-1.5724676381577152
-1.5724676381577152
-1.6401668319727392
-1.590931054652717
-1.6217034154777374
-1.6955570814577436
-1.5293863330027024
-1.6278578876427194
-1.6340123598077294
-1.6647847206327224
-1.6463213041377216
-1.615548943312728
-1.6340123598077294
-1.590931054652717
-1.6093944711477182
-1.7078660257877356
-1.689402609292734
-1.5970855268177266
-1.6032399989827366
-1.7694107474377496
-1.6524757763027313
-1.615548943312728
-1.6463213041377216
-1.7078660257877356
-1.6647847206327224
-1.7263294422827367
-1.7755652196027594
-1.7201749701177547
-1.7078660257877356
-1.7140204979527456
-1.6524757763027313
-1.7447928587777384
-1.7140204979527456
-1.7263294422827367
-1.7386383866127564
-1.7324839144477464
-1.7632562752727399
-1.7632562752727399
-1.7509473309427481
-2.015589634037779
-2.372549019607845
-1.504768444342719
-1.4863050278477177
-1.6093944711477182
-1.7263294422827367
-1.6647847206327224
-1.8863457185727683
-1.8740367742427766
-1.8124920525927626
-1.757101803107758
-1.7140204979527456
-1.7817196917677414
-1.7817196917677414
-1.7078660257877356
-1.818646524757745
-1.7694107474377496
-1.7694107474377496
-1.7755652196027594
-1.7878741639327511
-1.7140204979527456
-1.7263294422827367
-1.683248137127724
-1.8432644134177558
-1.8001831082627426
-1.757101803107758
-1.7755652196027594
-1.7694107474377496
-1.7509473309427481
-1.7140204979527456
-1.7447928587777384
-1.8740367742427766
-1.8371099412527454
-1.8001831082627426
-1.6093944711477182
-1.8740367742427766
-1.8432644134177558
-1.7632562752727399
-1.7386383866127564
-1.830955469087764
-1.8371099412527454
-1.818646524757745
-1.861727829912757
-1.849418885582765
-1.8063375804277528
-1.7878741639327511
-1.757101803107758
-1.830955469087764
-1.6586302484677409
-1.830955469087764
-1.7755652196027594
-1.8063375804277528
-1.8124920525927626
-1.7386383866127564
-1.861727829912757
-1.9232725515627715
-1.861727829912757
-1.8371099412527454
-1.7447928587777384
-1.2955163907326928
-0.7231504793875909
-2.3971669082678284
-2.8525978484779113
-2.175605910327811
-1.91096360723278
-1.9048091350677696
-1.8678823020777668
-1.818646524757745
-1.8248009969227534
-1.7694107474377496
-1.8678823020777668
-1.855573357747775
-1.8063375804277528
-1.8432644134177558
-1.89865466290276
-1.861727829912757
-1.6340123598077294
-1.8124920525927626
-1.9171180793977614
-1.861727829912757
-1.8124920525927626
-1.855573357747775
-1.8124920525927626
-1.7755652196027594
-1.8063375804277528
-0.5939065639225805
-2.1079067165127863
-1.7324839144477464
-1.7386383866127564
-1.7447928587777384
-1.6278578876427194
-1.818646524757745
-1.8001831082627426
-2.667963683527869
-2.2371506319778245
-1.7940286360977609
-1.7386383866127564
-1.830955469087764
-1.8678823020777668
-1.7447928587777384
-1.6955570814577436
-1.7632562752727399
-1.7386383866127564
-1.677093664962742
-1.6093944711477182
-1.7755652196027594
-1.7017115536227536
-1.7263294422827367
-1.6709391927977324
-1.6524757763027313
-1.7263294422827367
-1.6955570814577436
-1.6955570814577436
-1.7817196917677414
-1.7755652196027594
-1.6586302484677409
-1.6524757763027313
-1.7140204979527456
-1.6463213041377216
-1.8248009969227534
-1.7632562752727399
-1.683248137127724
-1.7509473309427481
-1.7140204979527456
-1.5601586938277234
-1.7140204979527456
-1.7324839144477464
-1.7324839144477464
-1.7263294422827367
-1.7140204979527456
-1.7324839144477464
-1.615548943312728
-1.5478497494977315
-1.7878741639327511
-1.7078660257877356
-1.6586302484677409
-1.6340123598077294
-1.6401668319727392
-1.6955570814577436
-1.6709391927977324
-1.6093944711477182
-1.7201749701177547
-1.7324839144477464
-1.7263294422827367
-1.6524757763027313
-1.6463213041377216
-1.689402609292734
-1.7324839144477464
-2.175605910327811
-1.855573357747775
-1.400142417537692
-1.5293863330027024
-1.4986139721777092
-1.5355408051677124
-1.7386383866127564
-1.6217034154777374
-1.6401668319727392
-1.6524757763027313
-1.5847765824877347
-1.504768444342719
-1.6340123598077294
-1.578622110322725
-1.615548943312728
-1.6032399989827366
-1.6340123598077294
-1.6586302484677409
-1.7078660257877356
-1.7324839144477464
-1.7201749701177547
-1.7263294422827367
-1.7201749701177547
-1.0185651433076426
-1.7878741639327511
-1.9294270237277809
-1.689402609292734
-1.7263294422827367
-1.7140204979527456
-1.7017115536227536
-1.6647847206327224
-1.578622110322725
-1.7263294422827367
-1.1662724752676545
-0.21848376185754081
-2.1817603824928202
-1.8801912464077586
-1.8371099412527454
-1.757101803107758
-2.083288827852803
-2.347931130947833
-1.5970855268177266
-1.6463213041377216
-1.7017115536227536
-1.7263294422827367
-1.689402609292734
-1.7017115536227536
-1.6401668319727392
-1.677093664962742
-1.6647847206327224
-1.6955570814577436
-1.6586302484677409
-1.6340123598077294
-1.5847765824877347
-1.7201749701177547
-1.6217034154777374
-1.6647847206327224
-1.6463213041377216
-1.7140204979527456
-1.683248137127724
-1.6709391927977324
-1.7447928587777384
-1.7140204979527456
-1.6586302484677409
-1.7632562752727399
-1.757101803107758
-1.615548943312728
-1.4432237226927047
-1.6709391927977324
-1.5970855268177266
-1.5724676381577152
-1.683248137127724
-1.7755652196027594
-1.7263294422827367
-1.7078660257877356
-1.7078660257877356
-1.7632562752727399
-1.7201749701177547
-1.104727753617668
-1.89865466290276
-2.0586709391927913
-1.5170773886727107
-1.7755652196027594
-1.683248137127724
-1.6278578876427194
-1.6463213041377216
-1.5724676381577152
-1.6647847206327224
-1.6955570814577436
-1.7632562752727399
-1.7078660257877356
-1.6278578876427194
-1.6709391927977324
-1.7017115536227536
-1.5724676381577152
-1.683248137127724
-2.04020752269779
-2.3971669082678284
-1.2462806134126705
-1.3509066402176972
-1.5478497494977315
-1.5724676381577152
-1.590931054652717
-1.7386383866127564
-1.683248137127724
-1.7017115536227536
-1.6401668319727392
-1.6647847206327224
-1.5601586938277234
-1.4186058340326935
-1.5478497494977315
-1.6093944711477182
-1.5601586938277234
-1.5416952773327224
-1.5724676381577152
-1.5355408051677124
-1.4801505556827075
-1.4309147783627132
-1.504768444342719
-1.6032399989827366
-1.5478497494977315
-1.5355408051677124
-1.5601586938277234
-1.3693700567126987
-1.5232318608377204
-1.5355408051677124
-1.5293863330027024
-1.6463213041377216
-1.6340123598077294
-1.5293863330027024
-1.4924595000126994
-1.6524757763027313
-1.615548943312728
-0.15078456804251686
-1.9171180793977614
-2.4648661020828517
-1.7201749701177547
-1.8063375804277528
-1.5601586938277234
-1.473996083517698
-1.467841611352716
-1.3878334732077002
-1.4186058340326935
-1.4493781948577145
-1.4616871391877062
-1.363215584547689
-1.2955163907326928
-1.3385976958876775
-1.2647440299076718
-1.2462806134126705
-1.2708985020726815
-1.1970448360926755
-1.3755245288776807
-1.4432237226927047
-1.3139798072276945
-0.6492968134075847
0.1384756237125251
-2.618727906207874
-2.2063782711528033
-1.437069250527695
-1.3447521680526875
-1.2955163907326928
-1.2278171969176688
-1.2832074464026733
-1.2647440299076718
-1.400142417537692
-1.3816790010426905
-1.326288751557686
-1.2585895577426898
-1.289361918567683
-1.25243508557768
-1.2278171969176688
-1.2708985020726815
-1.3016708628976748
-1.326288751557686
-1.326288751557686
-1.3078253350626845
-1.2770529742376913
-1.326288751557686
-1.5355408051677124
-1.3693700567126987
-1.2955163907326928
-1.400142417537692
-1.3755245288776807
-1.4247603061977032
-1.4432237226927047
-1.5355408051677124
-1.615548943312728
-1.5847765824877347
-1.4555326670226965
-1.3878334732077002
-1.289361918567683
-1.104727753617668
-1.141654586607671
-0.6246789247476012
-0.889321227842632
-1.2832074464026733
-0.7723862567076134
-0.5446707866025856
-1.1539635309376628
-1.437069250527695
-1.5416952773327224
-1.5293863330027024
-1.504768444342719
-1.3878334732077002
-1.578622110322725
-1.4062968897027015
-1.5540042216627135
-1.4432237226927047
-1.3755245288776807
-1.4186058340326935
-1.4616871391877062
-1.3755245288776807
-1.578622110322725
-1.5970855268177266
-1.6032399989827366
-1.5663131659927332
-1.5663131659927332
-1.9171180793977614
-2.501792935072855
-0.6739147020675963
-1.2955163907326928
-1.6340123598077294
-1.7509473309427481
-1.7140204979527456
-1.5847765824877347
-1.6463213041377216
-1.6647847206327224
-1.5847765824877347
-1.6709391927977324
-1.615548943312728
-1.6278578876427194
-1.677093664962742
-1.6032399989827366
-1.4309147783627132
-1.7140204979527456
-1.7324839144477464
-1.6586302484677409
-1.689402609292734
-1.7017115536227536
-1.7509473309427481
-1.7263294422827367
-1.7324839144477464
-1.7755652196027594
-1.8124920525927626
-1.7078660257877356
-1.689402609292734
-1.7386383866127564
-1.6955570814577436
-1.8678823020777668
-1.7140204979527456
-1.0678009206276373
-0.8400854505226096
-2.212532743317813
-1.7201749701177547
-1.7201749701177547
-1.7324839144477464
-1.7017115536227536
-1.6278578876427194
-1.9355814958927628
-2.477175046412844
-1.990971745377768
-1.467841611352716
-1.5416952773327224
-1.6955570814577436
-1.7447928587777384
-1.5970855268177266
-1.5232318608377204
-1.689402609292734
-1.7201749701177547
-1.6032399989827366
-1.578622110322725
-1.7017115536227536
-1.7447928587777384
-1.7140204979527456
-1.7447928587777384
-1.9848172732127856
-1.510922916507701
-0.6431423412426027
-1.830955469087764
-1.5663131659927332
-1.5293863330027024
-1.6709391927977324
-2.471020574247862
-1.8740367742427766
-1.6217034154777374
-1.6647847206327224
-1.5847765824877347
-1.6586302484677409
-1.6278578876427194
-1.8740367742427766
-1.9355814958927628
-1.7017115536227536
-1.6340123598077294
-1.7017115536227536
-1.6524757763027313
-1.6093944711477182
-1.6401668319727392
-1.7263294422827367
-1.6524757763027313
-1.7078660257877356
-1.8432644134177558
-1.89865466290276
-1.7386383866127564
-1.4924595000126994
-1.7878741639327511
-1.7632562752727399
-1.8863457185727683
-1.8371099412527454
-1.8371099412527454
-1.8371099412527454
-1.7817196917677414
-1.7386383866127564
-1.6955570814577436
-1.6955570814577436
-1.7632562752727399
-1.5970855268177266
-1.5416952773327224
-1.510922916507701
-1.4247603061977032
-1.4186058340326935
-1.467841611352716
-1.4186058340326935
-1.590931054652717
-1.5847765824877347
-1.5478497494977315
-1.5970855268177266
-1.7263294422827367
-1.689402609292734
-1.6032399989827366
-1.6401668319727392
-1.7263294422827367
-1.8740367742427766
-1.7386383866127564
-1.6955570814577436
-1.7324839144477464
-1.677093664962742
-1.6217034154777374
-1.6340123598077294
-1.7509473309427481
-1.89865466290276
-2.175605910327811
-1.4186058340326935
-1.615548943312728
-1.6463213041377216
-1.400142417537692
-1.504768444342719
-1.6463213041377216
-1.6217034154777374
-1.6278578876427194
-1.6278578876427194
-1.6032399989827366
-1.6586302484677409
-1.677093664962742
-1.6463213041377216
-1.6032399989827366
-1.6463213041377216
-1.7201749701177547
-1.689402609292734
-1.5416952773327224
-1.683248137127724
-1.683248137127724
-1.7263294422827367
-1.6524757763027313
-1.6586302484677409
-1.7324839144477464
-1.6709391927977324
-1.677093664962742
-1.6955570814577436
-1.5970855268177266
-1.7386383866127564
-1.7755652196027594
-1.757101803107758
-1.6093944711477182
-1.8371099412527454
-1.7878741639327511
-1.7386383866127564
-1.7817196917677414
-1.8801912464077586
-1.7386383866127564
-1.7078660257877356
-1.7263294422827367
-1.7386383866127564
-1.7386383866127564
-1.7140204979527456
-1.7755652196027594
-1.91096360723278
-1.7201749701177547
-1.9232725515627715
-1.9171180793977614
-1.91096360723278
-1.892500190737778
-1.849418885582765
-1.8248009969227534
-1.954044912387765
-1.830955469087764
-1.7694107474377496
-1.8678823020777668
-1.9048091350677696
-1.2647440299076718
-0.5200528979425745
-3.2834109000279827
-2.434093741257831
-1.8863457185727683
-1.830955469087764
-1.7386383866127564
-1.7386383866127564
-1.7755652196027594
-1.7017115536227536
-1.6278578876427194
-1.689402609292734
-1.6955570814577436
-1.578622110322725
-1.5663131659927332
-1.510922916507701
-1.3816790010426905
-1.510922916507701
-1.5416952773327224
-1.5293863330027024
-1.5293863330027024
-1.4555326670226965
-1.39398794537271
-1.4432237226927047
-1.4616871391877062
-1.2955163907326928
-1.4432237226927047
-1.4186058340326935
-1.4555326670226965
-1.3016708628976748
-1.1601180031026725
-1.363215584547689
-1.326288751557686
-1.2585895577426898
-1.363215584547689
-1.4124513618677115
-1.467841611352716
-1.4616871391877062
-1.437069250527695
-1.4555326670226965
-1.5416952773327224
-1.4616871391877062
-1.5478497494977315
-1.4555326670226965
-1.6340123598077294
-1.7017115536227536
-1.5232318608377204
-1.5478497494977315
-1.7201749701177547
-1.8432644134177558
-1.8248009969227534
-1.7632562752727399
-1.7201749701177547
-1.7509473309427481
-1.6401668319727392
-1.2278171969176688
-0.6862236463975879
-0.7846952010376053
-1.1601180031026725
-1.4432237226927047
-1.473996083517698
-1.6278578876427194
-1.7694107474377496
-1.9848172732127856
-2.114061188677796
-1.4616871391877062
-1.7817196917677414
-1.7940286360977609
-1.7140204979527456
-1.590931054652717
-1.7201749701177547
-1.5663131659927332
-1.473996083517698
-1.4124513618677115
-1.2708985020726815
-1.2585895577426898
-1.3570611123826792
-1.4555326670226965
-1.615548943312728
-1.5663131659927332
-1.6093944711477182
-1.830955469087764
-1.7878741639327511
-1.5293863330027024
-1.400142417537692
-1.363215584547689
-1.6093944711477182
-1.4986139721777092
-1.3693700567126987
-1.4493781948577145
-1.4616871391877062
-1.5416952773327224
-1.4863050278477177
-1.4863050278477177
-1.467841611352716
-1.4493781948577145
-1.3509066402176972
-1.326288751557686
-1.25243508557768
-1.0431830319676536
-1.0924188092876486
-1.2339716690826785
-1.4247603061977032
-1.4863050278477177
-1.400142417537692
-1.400142417537692
-1.2401261412476885
-1.1539635309376628
-1.1293456422776516
-1.1908903639276658
-1.3139798072276945
-1.437069250527695
-1.5724676381577152
-1.5355408051677124
-1.3447521680526875
-1.4309147783627132
-1.5540042216627135
-1.473996083517698
-1.5232318608377204
-1.7140204979527456
-1.7386383866127564
-1.578622110322725
-1.1293456422776516
-0.2738740113425453
-2.2740774649678275
-1.8371099412527454
-1.7017115536227536
-2.04020752269779
-2.901833625797906
-1.849418885582765
-1.7017115536227536
-1.8432644134177558
-1.9417359680577726
-1.7940286360977609
-1.677093664962742
-1.7263294422827367
-2.003280689707787
-2.009435161872797
-2.064825411357801
-2.194069326822812
-2.2433051041428067
-2.1263701330077875
-2.3110042979578305
-2.0463619948628
-2.224841687647805
-2.249459576307816
-2.2740774649678275
-2.3663945474428347
-2.477175046412844
-2.526410823732866
-2.600264489712873
-2.655654739197877
-2.8033620711578893
-2.772589710332896
-2.335622186617841
-2.003280689707787
-2.2309961598128147
-2.224841687647805
-2.077134355687793
-2.114061188677796
-2.224841687647805
-2.120215660842805
-2.0340530505327803
-1.9971262175427773
-1.972508328882766
-2.0217441062027888
-1.6586302484677409
-1.0431830319676536
-4.858955774268203
-2.3848579639378364
-1.9971262175427773
-1.9786628010477763
-1.954044912387765
-1.855573357747775
-1.2462806134126705
-1.3385976958876775
-1.7017115536227536
-1.7755652196027594
-1.7940286360977609
-1.7632562752727399
-1.8124920525927626
-2.077134355687793
-1.89865466290276
-1.6340123598077294
-1.6586302484677409
-2.015589634037779
-2.200223798987821
-2.009435161872797
-1.9355814958927628
-1.9232725515627715
-1.8863457185727683
-1.8001831082627426
-1.7817196917677414
-1.7694107474377496
-1.7694107474377496
-1.6955570814577436
-1.7201749701177547
-1.861727829912757
-1.7940286360977609
-1.6709391927977324
-1.6217034154777374
-1.6340123598077294
-1.6586302484677409
-1.683248137127724
-1.6647847206327224
-1.7078660257877356
-1.7509473309427481
-1.683248137127724
-1.6463213041377216
-1.6647847206327224
-1.7263294422827367
-1.7386383866127564
-1.2585895577426898
-0.5631342030975872
-0.6185244525825918
-0.9324025329976448
-1.1293456422776516
-1.0308740876376343
-0.5631342030975872
-1.2647440299076718
-1.4493781948577145
-1.400142417537692
-0.9754838381526297
-0.7539228402126119
-1.6340123598077294
-1.9171180793977614
-1.9232725515627715
-1.892500190737778
-1.8432644134177558
-2.089443300017785
-3.0864677907479487
-2.2371506319778245
-1.855573357747775
-1.757101803107758
-1.6647847206327224
-1.3755245288776807
-1.073955392792647
-1.0616464484626553
-1.2832074464026733
-1.7324839144477464
-1.8001831082627426
-1.7632562752727399
-1.7878741639327511
-1.8863457185727683
-1.400142417537692
-0.21848376185754081
-2.8033620711578893
-1.9601993845527748
-1.8371099412527454
-1.849418885582765
-1.8740367742427766
-1.9048091350677696
-1.7509473309427481
-2.477175046412844
-2.901833625797906
-2.003280689707787
-1.89865466290276
-1.8432644134177558
-1.849418885582765
-1.861727829912757
-1.8740367742427766
-1.8863457185727683
-1.966353856717784
-1.89865466290276
-1.8678823020777668
-1.8801912464077586
-1.7817196917677414
-1.990971745377768
-2.003280689707787
-2.0278985783677985
-2.089443300017785
-2.052516467027782
-2.1017522443478045
-2.114061188677796
-2.120215660842805
-2.0463619948628
-2.04020752269779
-2.114061188677796
-2.120215660842805
-1.91096360723278
-1.6093944711477182
-1.8124920525927626
-1.8371099412527454
-1.677093664962742
-1.6524757763027313
-1.6955570814577436
-1.830955469087764
-1.7324839144477464
-1.683248137127724
-1.7940286360977609
-1.818646524757745
-1.7078660257877356
-1.6647847206327224
-1.855573357747775
-1.9171180793977614
-2.0955977721827947
-1.9355814958927628
-1.9355814958927628
-1.9048091350677696
-1.7940286360977609
-1.7386383866127564
-1.8678823020777668
-1.8863457185727683
-1.861727829912757
-1.8248009969227534
-1.818646524757745
-1.8740367742427766
-2.0278985783677985
-1.954044912387765
-1.5416952773327224
-1.861727829912757
-1.8801912464077586
-1.7878741639327511
-1.8063375804277528
-1.861727829912757
-1.89865466290276
-1.8063375804277528
-1.9294270237277809
-1.892500190737778
-1.9417359680577726
-1.8740367742427766
-1.830955469087764
-1.8371099412527454
-2.0278985783677985
-1.8371099412527454
-1.861727829912757
-1.8740367742427766
-1.9355814958927628
-1.8801912464077586
