-1.4493781948577145
-1.4863050278477177
-1.7386383866127564
-2.4648661020828517
-1.9294270237277809
-1.5416952773327224
-1.4986139721777092
-1.4924595000126994
-1.5663131659927332
-1.5724676381577152
-1.510922916507701
-1.5724676381577152
-1.5232318608377204
-1.4863050278477177
-1.5478497494977315
-1.5663131659927332
-1.5416952773327224
-1.3201342793926762
-1.4186058340326935
-1.6093944711477182
-1.5355408051677124
-1.5355408051677124
-1.510922916507701
-1.510922916507701
-1.4924595000126994
-1.467841611352716
-1.4924595000126994
-1.5970855268177266
-1.5478497494977315
-1.5540042216627135
-1.5416952773327224
-1.4124513618677115
-1.5601586938277234
-1.5293863330027024
-1.4863050278477177
-1.6217034154777374
-1.5847765824877347
-1.5293863330027024
-1.5540042216627135
-1.5478497494977315
-1.578622110322725
-1.5355408051677124
-1.4801505556827075
-1.6586302484677409
-1.5663131659927332
-1.4062968897027015
-1.615548943312728
-1.5355408051677124
-1.4924595000126994
-1.504768444342719
-1.4616871391877062
-1.5355408051677124
-1.5478497494977315
-1.5540042216627135
-1.5663131659927332
-1.5847765824877347
-1.590931054652717
-1.6401668319727392
-2.1017522443478045
-1.3693700567126987
-1.4924595000126994
-1.473996083517698
-1.5170773886727107
-1.5355408051677124
-1.5293863330027024
-1.504768444342719
-1.5663131659927332
-1.5416952773327224
-1.5416952773327224
-1.5355408051677124
-1.5232318608377204
-1.5293863330027024
-1.4801505556827075
-0.6985325907276074
-1.0862643371226666
-1.510922916507701
-1.5478497494977315
-1.5170773886727107
-1.615548943312728
-1.6093944711477182
-1.6093944711477182
-1.5232318608377204
-1.6586302484677409
-1.5970855268177266
-1.5847765824877347
-1.6032399989827366
-1.6709391927977324
-1.7817196917677414
-0.6369878690775933
-2.9879962361079313
-2.4402482134228407
-1.6955570814577436
-1.6217034154777374
-1.6524757763027313
-1.6278578876427194
-1.590931054652717
-1.6032399989827366
-1.5847765824877347
-1.6647847206327224
-1.6524757763027313
-1.5847765824877347
-1.5355408051677124
-1.7324839144477464
-1.6586302484677409
-1.5970855268177266
-1.5416952773327224
-1.6709391927977324
-1.6340123598077294
-1.5663131659927332
-1.5724676381577152
-1.6278578876427194
-1.5847765824877347
-1.5293863330027024
-1.5970855268177266
-1.5478497494977315
-1.5416952773327224
-1.6524757763027313
-1.5724676381577152
-1.5970855268177266
-1.5970855268177266
-0.9447114773276367
-1.757101803107758
-1.9971262175427773
-1.6217034154777374
-1.5970855268177266
-1.615548943312728
-1.5663131659927332
-1.5601586938277234
-1.4247603061977032
-1.7324839144477464
-1.677093664962742
-1.5540042216627135
-1.590931054652717
-1.5847765824877347
-1.6032399989827366
-1.6032399989827366
-1.5232318608377204
-1.6709391927977324
-1.6032399989827366
-1.6032399989827366
-1.5847765824877347
-1.5724676381577152
-1.4801505556827075
-1.4924595000126994
-1.4863050278477177
-1.590931054652717
-1.5970855268177266
-1.5663131659927332
-1.5478497494977315
-1.5540042216627135
-1.7755652196027594
-2.114061188677796
-1.2462806134126705
-1.3016708628976748
-1.3878334732077002
-1.4924595000126994
-1.5416952773327224
-1.7632562752727399
-1.6401668319727392
-1.5170773886727107
-1.4493781948577145
-1.5663131659927332
-1.578622110322725
-1.5847765824877347
-1.578622110322725
-1.590931054652717
-1.5355408051677124
-1.4986139721777092
-1.5540042216627135
-1.6524757763027313
-1.3693700567126987
-1.3201342793926762
-1.5170773886727107
-1.5293863330027024
-1.590931054652717
-1.5663131659927332
-1.5540042216627135
-1.6032399989827366
-1.5724676381577152
-1.5847765824877347
-1.5478497494977315
-1.6093944711477182
-1.590931054652717
-1.4432237226927047
-1.4986139721777092
-1.7447928587777384
-1.590931054652717
-1.5416952773327224
-1.5601586938277234
-1.5847765824877347
-1.5478497494977315
-1.4493781948577145
-1.6032399989827366
-1.5724676381577152
-1.510922916507701
-1.4555326670226965
-1.5970855268177266
-1.5663131659927332
-1.4062968897027015
-1.6217034154777374
-1.677093664962742
-1.6340123598077294
-1.6093944711477182
-1.5970855268177266
-1.615548943312728
-1.6647847206327224
-1.6340123598077294
-1.590931054652717
-1.683248137127724
-1.0924188092876486
-0.20002034536253932
-2.114061188677796
-1.6217034154777374
-1.7017115536227536
-1.7263294422827367
-2.520256351567857
-1.954044912387765
-1.615548943312728
-1.6093944711477182
-1.5663131659927332
-1.5847765824877347
-1.6401668319727392
-1.6093944711477182
-1.578622110322725
-1.6524757763027313
-1.590931054652717
-1.4801505556827075
-1.7324839144477464
-1.6093944711477182
-1.6032399989827366
-1.6278578876427194
-1.6093944711477182
-1.5847765824877347
-1.6278578876427194
-1.5601586938277234
-1.4986139721777092
-1.5293863330027024
-1.5416952773327224
-1.5232318608377204
-1.578622110322725
-1.39398794537271
-1.6709391927977324
-1.6463213041377216
-1.6032399989827366
-1.578622110322725
-1.5724676381577152
-1.5416952773327224
-1.6278578876427194
-1.578622110322725
-1.6032399989827366
-1.5478497494977315
-1.4801505556827075
-1.5355408051677124
-1.504768444342719
-1.400142417537692
-1.677093664962742
-1.590931054652717
-1.578622110322725
-1.5724676381577152
-1.5540042216627135
-1.590931054652717
-1.5170773886727107
-1.4986139721777092
-1.6093944711477182
-1.578622110322725
-1.5847765824877347
-1.5663131659927332
-1.5355408051677124
-1.5355408051677124
-1.6647847206327224
-1.5355408051677124
-1.6217034154777374
-1.7755652196027594
-2.120215660842805
-1.2708985020726815
-1.3693700567126987
-1.4863050278477177
-1.4986139721777092
-1.4924595000126994
-1.5478497494977315
-1.4986139721777092
-1.473996083517698
-1.5293863330027024
-1.5540042216627135
-1.4124513618677115
-1.3878334732077002
-1.4616871391877062
-1.5232318608377204
-1.4493781948577145
-1.4493781948577145
-1.4924595000126994
-1.4986139721777092
-1.510922916507701
-1.473996083517698
-1.5416952773327224
-1.4801505556827075
-1.4493781948577145
-1.4555326670226965
-1.473996083517698
-1.5416952773327224
-1.5847765824877347
-1.5601586938277234
-1.6524757763027313
-1.5970855268177266
-1.5847765824877347
-1.5970855268177266
-1.590931054652717
-1.6093944711477182
-1.6709391927977324
-0.6185244525825918
-1.3878334732077002
-1.830955469087764
-1.7755652196027594
-1.689402609292734
-1.7140204979527456
-1.689402609292734
-1.7263294422827367
-2.4648661020828517
-2.2186872154828228
-1.7324839144477464
-1.683248137127724
-1.8063375804277528
-1.8248009969227534
-1.467841611352716
-1.073955392792647
-1.5663131659927332
-1.7447928587777384
-1.8001831082627426
-1.7755652196027594
-1.7386383866127564
-1.7632562752727399
-1.25243508557768
-0.8277765061926179
-2.981841763942921
-2.224841687647805
-1.8678823020777668
-1.9048091350677696
-2.2925408814628288
-2.6433457948678853
-2.009435161872797
-1.9171180793977614
-1.8863457185727683
-1.861727829912757
-1.861727829912757
-1.9171180793977614
-1.9355814958927628
-1.9478904402227823
-1.9478904402227823
-1.892500190737778
-2.089443300017785
-2.0217441062027888
-1.8371099412527454
-1.9478904402227823
-1.9601993845527748
-1.966353856717784
-1.9601993845527748
-1.9294270237277809
-1.9971262175427773
-1.966353856717784
-2.003280689707787
-1.9232725515627715
-1.9048091350677696
-1.9601993845527748
-1.9786628010477763
-1.8801912464077586
-1.9601993845527748
-2.064825411357801
-2.009435161872797
-1.9601993845527748
-1.9848172732127856
-1.91096360723278
-1.89865466290276
-1.9048091350677696
-1.954044912387765
-1.972508328882766
-2.052516467027782
-2.0586709391927913
-2.1263701330077875
-2.1571424938328088
-2.009435161872797
-2.2063782711528033
-2.261768520637808
-2.2186872154828228
-2.187914854657802
-2.120215660842805
-2.070979883522784
-2.089443300017785
-2.114061188677796
-2.1448335495027893
-2.138679077337807
-2.0278985783677985
-2.077134355687793
-2.0463619948628
-2.0278985783677985
-2.434093741257831
-2.471020574247862
-1.7755652196027594
-2.0586709391927913
-2.083288827852803
-2.089443300017785
-2.2063782711528033
-2.175605910327811
-2.1325246051727973
-2.083288827852803
-2.1448335495027893
-2.1325246051727973
-1.9786628010477763
-1.8432644134177558
-2.1263701330077875
-2.0217441062027888
-1.966353856717784
-1.9848172732127856
-2.1448335495027893
-2.0586709391927913
-2.077134355687793
-2.120215660842805
-2.0463619948628
-2.052516467027782
-2.077134355687793
-1.990971745377768
-2.0278985783677985
-1.972508328882766
-2.1325246051727973
-2.04020752269779
-2.1571424938328088
-2.3848579639378364
-2.434093741257831
-2.2433051041428067
-2.1017522443478045
-1.9417359680577726
-1.7386383866127564
-1.5724676381577152
-1.4616871391877062
-1.3816790010426905
-1.1293456422776516
-0.26771953917753555
-0.8031586175326066
-0.9262480608326351
-1.000101726812641
-1.1355001144426613
-1.2708985020726815
-1.3016708628976748
-1.289361918567683
-1.3878334732077002
-1.3570611123826792
-1.2462806134126705
-1.25243508557768
-1.2278171969176688
-1.3201342793926762
-1.855573357747775
-1.3816790010426905
-1.2955163907326928
-1.2339716690826785
-0.6431423412426027
0.3538821494875609
-1.6586302484677409
-1.3816790010426905
-1.2770529742376913
-1.6217034154777374
-2.304849825792821
-1.400142417537692
-1.2647440299076718
-1.2770529742376913
-1.3201342793926762
-1.3139798072276945
-1.2278171969176688
-1.2031993082576575
-1.2647440299076718
-1.2093537804226673
-1.2647440299076718
-1.2770529742376913
-1.2278171969176688
-1.2278171969176688
-1.215508252587677
-1.1908903639276658
-1.3447521680526875
-0.9508659494926462
-0.36619109381755277
-1.0308740876376343
-1.1724269474326645
-1.184735891762656
-1.1908903639276658
-1.1908903639276658
-1.3693700567126987
-1.3016708628976748
-1.2585895577426898
-1.2955163907326928
-1.3139798072276945
-1.3385976958876775
-1.289361918567683
-1.590931054652717
-2.0955977721827947
-1.3570611123826792
-1.363215584547689
-1.3570611123826792
-1.3385976958876775
-1.3816790010426905
-1.39398794537271
-1.4186058340326935
-1.4924595000126994
-1.473996083517698
-1.4062968897027015
-1.3755245288776807
-1.4124513618677115
-1.3816790010426905
-1.473996083517698
-1.4186058340326935
-1.4616871391877062
-1.467841611352716
-1.4493781948577145
-1.3816790010426905
-1.3693700567126987
-1.4493781948577145
-1.3385976958876775
-1.4555326670226965
-1.363215584547689
-1.5663131659927332
-1.849418885582765
-0.9693293659876481
-1.3385976958876775
-1.3570611123826792
-1.2647440299076718
-1.400142417537692
-1.4555326670226965
-1.3447521680526875
-1.2955163907326928
-1.3570611123826792
-1.363215584547689
-1.3816790010426905
-1.3016708628976748
-1.4863050278477177
-1.4124513618677115
-1.221662724752659
-1.467841611352716
-1.3755245288776807
-1.3755245288776807
-1.3385976958876775
-1.3201342793926762
-1.400142417537692
-1.4062968897027015
-1.4616871391877062
-1.437069250527695
-1.3816790010426905
-1.3816790010426905
-1.4186058340326935
-1.4062968897027015
-1.3693700567126987
-1.510922916507701
-1.473996083517698
-1.4247603061977032
-1.5232318608377204
-1.4986139721777092
-1.4124513618677115
-1.4309147783627132
-1.5170773886727107
-1.473996083517698
-1.5170773886727107
-1.510922916507701
-1.504768444342719
-1.473996083517698
-1.3016708628976748
-1.5416952773327224
-1.4986139721777092
-1.510922916507701
-1.5232318608377204
-1.578622110322725
-1.5601586938277234
-1.5478497494977315
-1.504768444342719
-1.578622110322725
-1.5478497494977315
-1.5293863330027024
-1.5416952773327224
-1.4493781948577145
-1.5416952773327224
-1.2093537804226673
-0.8523943948526291
-2.680272627857888
-1.7201749701177547
-1.5540042216627135
-1.5724676381577152
-1.5601586938277234
-1.5293863330027024
-1.504768444342719
-1.4616871391877062
-1.510922916507701
-1.4986139721777092
-1.4062968897027015
-1.4247603061977032
-1.6586302484677409
-1.5540042216627135
-1.504768444342719
-1.510922916507701
-1.615548943312728
-1.504768444342719
-1.504768444342719
-1.5416952773327224
-1.5416952773327224
-1.504768444342719
-1.4986139721777092
-1.5355408051677124
-1.5663131659927332
-1.6463213041377216
-1.590931054652717
-1.4801505556827075
-1.5170773886727107
-1.510922916507701
-1.5478497494977315
-1.5847765824877347
-1.6217034154777374
-1.5416952773327224
-1.5355408051677124
-1.5724676381577152
-1.5663131659927332
-1.590931054652717
-1.6032399989827366
-1.8063375804277528
-1.7017115536227536
-1.6278578876427194
-1.5847765824877347
-1.5724676381577152
-1.590931054652717
-1.6278578876427194
-1.0616464484626553
-0.6800691742326057
-1.6586302484677409
-1.2708985020726815
-1.5724676381577152
-1.6093944711477182
-1.39398794537271
-1.104727753617668
-1.972508328882766
-2.575646601052861
-1.6217034154777374
-1.467841611352716
-1.4555326670226965
-1.4616871391877062
-1.4924595000126994
-1.473996083517698
-1.39398794537271
-1.6340123598077294
-1.5416952773327224
-1.5540042216627135
-1.578622110322725
-1.7140204979527456
-1.6093944711477182
-1.5724676381577152
-1.504768444342719
-1.6278578876427194
-1.5663131659927332
-1.5170773886727107
-1.5540042216627135
-1.5724676381577152
-1.5478497494977315
-1.510922916507701
-1.4801505556827075
-1.578622110322725
-1.0924188092876486
-0.7477683680476023
-1.3816790010426905
-1.4924595000126994
-1.510922916507701
-1.467841611352716
-1.4616871391877062
-1.5478497494977315
-1.504768444342719
-1.467841611352716
-1.467841611352716
-1.504768444342719
-1.5601586938277234
-1.5478497494977315
-2.1817603824928202
-2.4217847969278394
-1.7447928587777384
-1.6217034154777374
-1.5416952773327224
-1.5601586938277234
-1.6032399989827366
-1.0247196154726523
-1.7632562752727399
-1.91096360723278
-1.5724676381577152
-1.5970855268177266
-1.578622110322725
-1.4924595000126994
-1.3816790010426905
-1.818646524757745
-2.070979883522784
-1.326288751557686
-1.5416952773327224
-1.5170773886727107
-1.5601586938277234
-1.6217034154777374
-1.5970855268177266
-1.4555326670226965
-1.5416952773327224
-1.578622110322725
-1.104727753617668
-0.3108008443325483
-1.5540042216627135
-1.7140204979527456
-1.6709391927977324
-2.434093741257831
-2.409475852597848
-1.5970855268177266
-1.5478497494977315
-1.5478497494977315
-1.504768444342719
-1.5416952773327224
-1.5663131659927332
-1.326288751557686
-1.5724676381577152
-1.510922916507701
-1.3693700567126987
-1.6463213041377216
-1.6032399989827366
-1.578622110322725
-1.6032399989827366
-1.5847765824877347
-1.5970855268177266
-1.5663131659927332
-1.5847765824877347
-1.5724676381577152
-1.578622110322725
-1.5601586938277234
-1.5170773886727107
-1.510922916507701
-1.5416952773327224
-1.7017115536227536
-1.590931054652717
-1.6401668319727392
-1.5970855268177266
-1.5478497494977315
-1.5970855268177266
-1.5847765824877347
-1.5232318608377204
-1.5416952773327224
-1.5724676381577152
-1.5355408051677124
-1.578622110322725
-1.5478497494977315
-1.5232318608377204
-1.683248137127724
-1.590931054652717
-1.615548943312728
-1.6217034154777374
-1.5663131659927332
-1.5416952773327224
-1.6278578876427194
-1.5601586938277234
-1.590931054652717
-1.5478497494977315
-1.5478497494977315
-1.5724676381577152
-1.5416952773327224
-1.467841611352716
-1.5724676381577152
-1.5416952773327224
-1.5970855268177266
-1.5355408051677124
-1.683248137127724
-1.892500190737778
-1.2339716690826785
-1.4247603061977032
-1.467841611352716
-1.4801505556827075
-1.5847765824877347
-1.5663131659927332
-1.473996083517698
-1.2585895577426898
-1.467841611352716
-1.5293863330027024
-1.5540042216627135
-1.578622110322725
-1.6093944711477182
-1.5847765824877347
-1.5724676381577152
-1.5724676381577152
-1.5601586938277234
-1.578622110322725
-1.5663131659927332
-1.6032399989827366
-1.757101803107758
-2.1017522443478045
-1.7263294422827367
-1.6032399989827366
-1.6032399989827366
-1.5663131659927332
-1.5847765824877347
-1.5232318608377204
-1.5293863330027024
-1.6340123598077294
-1.6463213041377216
-1.5970855268177266
-1.5847765824877347
-1.590931054652717
-1.5355408051677124
-1.8001831082627426
-1.6647847206327224
-1.5601586938277234
-1.6032399989827366
-1.6217034154777374
-1.6032399989827366
-1.5724676381577152
-1.5601586938277234
-1.7078660257877356
-1.6032399989827366
-1.5724676381577152
-1.5601586938277234
-1.5601586938277234
-1.3201342793926762
-1.4186058340326935
-1.467841611352716
-1.5663131659927332
-1.5724676381577152
-1.5724676381577152
-1.578622110322725
-1.5478497494977315
-1.5170773886727107
-1.0862643371226666
-0.3846545103125543
-1.615548943312728
-1.6093944711477182
-1.6401668319727392
-1.5355408051677124
-1.7140204979527456
-1.6524757763027313
-1.7078660257877356
-2.6433457948678853
-2.1017522443478045
-1.5478497494977315
-1.504768444342719
-1.5293863330027024
-1.5724676381577152
-1.6217034154777374
-1.5724676381577152
-1.5663131659927332
-1.5724676381577152
-1.3509066402176972
-1.5724676381577152
-1.5416952773327224
-1.4616871391877062
-1.510922916507701
-1.5170773886727107
-1.5355408051677124
-1.578622110322725
-1.5540042216627135
-1.578622110322725
-1.578622110322725
-1.5663131659927332
-1.6217034154777374
-1.5355408051677124
-1.6032399989827366
-1.855573357747775
-1.683248137127724
-1.6032399989827366
-1.6032399989827366
-1.578622110322725
-1.6524757763027313
-1.5540042216627135
-1.6340123598077294
-1.6955570814577436
-1.6340123598077294
-1.6217034154777374
-1.6340123598077294
-1.578622110322725
-1.3755245288776807
-1.6463213041377216
-1.6709391927977324
-1.6340123598077294
-1.6524757763027313
-1.5847765824877347
-1.578622110322725
-1.6032399989827366
-1.5663131659927332
-1.5601586938277234
-1.6709391927977324
-1.5970855268177266
-1.6401668319727392
-1.5601586938277234
-1.6093944711477182
-1.7694107474377496
-1.830955469087764
-2.077134355687793
-1.3016708628976748
-1.5663131659927332
-1.5416952773327224
-1.4924595000126994
-1.5724676381577152
-1.6278578876427194
-1.6278578876427194
-1.615548943312728
-1.677093664962742
-1.6278578876427194
-1.6093944711477182
-1.7755652196027594
-1.6955570814577436
-1.7017115536227536
-1.683248137127724
-1.6278578876427194
-1.615548943312728
-1.6463213041377216
-1.6955570814577436
-1.6709391927977324
-1.7017115536227536
-1.7078660257877356
-1.6032399989827366
-1.6093944711477182
-1.5847765824877347
-1.6955570814577436
-1.6709391927977324
-1.6586302484677409
-1.7078660257877356
-1.6093944711477182
-1.504768444342719
-1.6709391927977324
-1.6340123598077294
-1.6463213041377216
-1.6340123598077294
-1.6955570814577436
-1.7017115536227536
-1.5601586938277234
-1.4555326670226965
-1.7386383866127564
-1.6586302484677409
-1.6955570814577436
-1.6524757763027313
-1.6401668319727392
-1.677093664962742
-1.6647847206327224
-1.689402609292734
-1.7263294422827367
-1.677093664962742
-1.7017115536227536
-1.7263294422827367
-1.6955570814577436
-1.7817196917677414
-1.5663131659927332
0.009231708247514623
-1.8432644134177558
-1.855573357747775
-1.2770529742376913
-1.2832074464026733
-2.520256351567857
-1.7817196917677414
-1.89865466290276
-2.8895246814679143
-2.1571424938328088
-1.7140204979527456
-1.4062968897027015
-1.221662724752659
-1.5970855268177266
-1.6217034154777374
-1.6401668319727392
-1.6340123598077294
-1.6709391927977324
-1.6524757763027313
-1.6401668319727392
-1.7017115536227536
-1.6647847206327224
-1.6401668319727392
-1.5540042216627135
-1.6340123598077294
-1.615548943312728
-1.7817196917677414
-1.6463213041377216
-1.6586302484677409
-1.6340123598077294
-1.5847765824877347
-1.5663131659927332
-1.677093664962742
-1.6217034154777374
-1.6524757763027313
-1.7447928587777384
-1.689402609292734
-1.6032399989827366
-1.6278578876427194
-1.8001831082627426
-2.138679077337807
-1.7386383866127564
-1.6709391927977324
-1.689402609292734
-1.6647847206327224
-1.6709391927977324
-1.7078660257877356
-1.677093664962742
-1.757101803107758
-1.7017115536227536
-1.6709391927977324
-1.7386383866127564
-1.689402609292734
-1.5663131659927332
-1.8678823020777668
-1.7509473309427481
-1.7509473309427481
-1.6647847206327224
-1.6955570814577436
-1.6647847206327224
-1.6340123598077294
-1.6955570814577436
-1.7078660257877356
-1.7201749701177547
-1.7324839144477464
-1.7509473309427481
-1.892500190737778
-2.0463619948628
-1.615548943312728
-1.7263294422827367
-1.683248137127724
-1.6586302484677409
-1.6278578876427194
-1.6463213041377216
-1.689402609292734
-1.6955570814577436
-1.7324839144477464
-1.7263294422827367
-1.6586302484677409
-1.7386383866127564
-1.6463213041377216
-1.2955163907326928
-1.6032399989827366
-1.689402609292734
-1.6586302484677409
-1.6463213041377216
-1.5478497494977315
-1.7386383866127564
-1.7140204979527456
-1.6524757763027313
-1.6401668319727392
-1.6647847206327224
-1.6709391927977324
-1.677093664962742
-1.5663131659927332
-1.7078660257877356
-1.8371099412527454
-1.7324839144477464
-1.6524757763027313
-1.6955570814577436
-1.7324839144477464
-1.6955570814577436
-1.6217034154777374
-1.757101803107758
-1.677093664962742
-1.6524757763027313
-1.7078660257877356
-1.7386383866127564
-1.6647847206327224
-1.590931054652717
-1.7447928587777384
-1.7263294422827367
-1.7386383866127564
-1.6647847206327224
-1.6217034154777374
-1.6340123598077294
-1.7140204979527456
-1.6586302484677409
-1.6647847206327224
-1.7078660257877356
-1.6709391927977324
-1.689402609292734
-1.6278578876427194
-1.6032399989827366
-1.757101803107758
-1.3139798072276945
-0.47697159278756174
-1.5293863330027024
-1.7263294422827367
-1.7447928587777384
-1.7017115536227536
-1.7817196917677414
-1.7447928587777384
-2.0955977721827947
-2.8341344319829105
-1.9048091350677696
-1.590931054652717
-1.590931054652717
-1.689402609292734
-1.7017115536227536
-1.6709391927977324
-1.5663131659927332
-1.7078660257877356
-1.6647847206327224
-1.6955570814577436
-1.677093664962742
-1.6340123598077294
-1.6217034154777374
-1.6278578876427194
-1.5663131659927332
-1.7386383866127564
-1.7632562752727399
-1.7017115536227536
-1.677093664962742
-1.6524757763027313
-1.6586302484677409
-1.6340123598077294
-1.5724676381577152
-1.6278578876427194
-1.5847765824877347
-1.590931054652717
-1.6401668319727392
-1.6647847206327224
-1.615548943312728
-1.677093664962742
-1.9848172732127856
-1.7940286360977609
-1.6955570814577436
-1.7386383866127564
-1.7078660257877356
-1.6401668319727392
-1.6647847206327224
-1.6463213041377216
-1.6093944711477182
-1.6647847206327224
-1.6463213041377216
-1.6401668319727392
-1.6524757763027313
-1.3755245288776807
-1.3201342793926762
-1.5355408051677124
-1.5970855268177266
-1.6401668319727392
-1.6524757763027313
-1.689402609292734
-1.677093664962742
-1.6217034154777374
-1.6217034154777374
-1.7632562752727399
-2.120215660842805
-1.3878334732077002
-1.615548943312728
-1.6093944711477182
-1.830955469087764
-1.6278578876427194
-1.7017115536227536
-1.6340123598077294
-1.7447928587777384
-1.677093664962742
-1.6955570814577436
-1.6524757763027313
-1.6278578876427194
-1.7017115536227536
-1.6278578876427194
-1.590931054652717
-1.7201749701177547
-1.5663131659927332
-1.7632562752727399
-1.6586302484677409
-1.615548943312728
-1.6524757763027313
-1.615548943312728
-1.5478497494977315
-1.615548943312728
-1.6032399989827366
-1.5724676381577152
-1.5416952773327224
-1.5970855268177266
-1.6032399989827366
-1.5232318608377204
-1.400142417537692
-1.757101803107758
-1.5970855268177266
-1.6278578876427194
-1.6278578876427194
-1.6340123598077294
-1.615548943312728
-1.5847765824877347
-1.6217034154777374
-1.6093944711477182
-1.5601586938277234
-1.6032399989827366
-1.6647847206327224
-1.6093944711477182
-1.4924595000126994
-1.6709391927977324
-1.6032399989827366
-1.5847765824877347
-1.6524757763027313
-1.6340123598077294
-1.5970855268177266
-1.6524757763027313
-1.6709391927977324
-0.9385570051626267
-1.7817196917677414
-2.003280689707787
-1.6401668319727392
-1.0616464484626553
-0.04615854123751762
-2.064825411357801
-1.7632562752727399
-2.200223798987821
-2.68642710002287
-1.7509473309427481
-1.6217034154777374
-1.6401668319727392
-1.6093944711477182
-1.615548943312728
-1.6401668319727392
-1.590931054652717
-1.7694107474377496
-1.6524757763027313
-1.6032399989827366
-1.7509473309427481
-1.6032399989827366
-1.6586302484677409
-1.6278578876427194
-1.504768444342719
-1.689402609292734
-1.6709391927977324
-1.615548943312728
-1.590931054652717
-1.6524757763027313
-1.578622110322725
-1.5540042216627135
-1.5601586938277234
-1.6401668319727392
-1.6709391927977324
-1.6340123598077294
-1.6217034154777374
-1.6401668319727392
-1.7017115536227536
-1.4986139721777092
-1.5601586938277234
-1.6524757763027313
-1.6586302484677409
-1.677093664962742
-1.6463213041377216
-1.677093664962742
-1.5970855268177266
-1.5293863330027024
-1.6955570814577436
-1.683248137127724
-1.6401668319727392
-1.6463213041377216
-1.6093944711477182
-1.5970855268177266
-1.6093944711477182
-0.9939472546476313
-1.7201749701177547
-1.954044912387765
-1.683248137127724
-1.6586302484677409
-1.578622110322725
-1.590931054652717
-1.7140204979527456
-1.6032399989827366
-1.6709391927977324
-1.6032399989827366
-1.6032399989827366
-1.8063375804277528
-1.990971745377768
-1.326288751557686
-1.5232318608377204
-0.6308333969125834
-0.8031586175326066
-1.6340123598077294
-1.677093664962742
-1.7878741639327511
-1.7201749701177547
-1.6709391927977324
-1.6709391927977324
-2.495638462907845
-2.3663945474428347
-1.5970855268177266
-1.5478497494977315
-1.5478497494977315
-1.6217034154777374
-1.578622110322725
-1.5724676381577152
-1.6340123598077294
-1.1970448360926755
-0.5631342030975872
-1.3570611123826792
-1.5478497494977315
-1.6032399989827366
-1.5847765824877347
-1.5416952773327224
-1.5724676381577152
-1.6709391927977324
-1.615548943312728
-1.6401668319727392
-1.6401668319727392
-1.6586302484677409
-1.6340123598077294
-2.070979883522784
-2.5387197680628573
-1.9294270237277809
-1.7201749701177547
-1.6709391927977324
-1.6647847206327224
-1.6217034154777374
-1.683248137127724
-1.6709391927977324
-1.6278578876427194
-1.6278578876427194
-1.6093944711477182
-1.6032399989827366
-1.6524757763027313
-1.5601586938277234
-1.6586302484677409
-1.6032399989827366
-1.6709391927977324
-1.6217034154777374
-1.683248137127724
-1.6524757763027313
-1.6278578876427194
-1.6709391927977324
-1.6647847206327224
-1.0616464484626553
-0.1384756237125251
-2.1632969659978185
-1.7447928587777384
-1.5478497494977315
-1.8248009969227534
-1.7017115536227536
-1.7140204979527456
-2.403321380432838
-2.3540856031128428
-1.6217034154777374
-1.5416952773327224
-1.5540042216627135
-1.5293863330027024
-1.5416952773327224
-1.5847765824877347
-1.6217034154777374
-1.6709391927977324
-1.510922916507701
-1.7386383866127564
-1.6524757763027313
-1.6278578876427194
-1.615548943312728
-1.578622110322725
-1.590931054652717
-1.6278578876427194
-1.6217034154777374
-1.6217034154777374
-1.6340123598077294
-1.5970855268177266
-1.6217034154777374
-1.5540042216627135
-1.4555326670226965
-1.7694107474377496
-1.6647847206327224
-1.6032399989827366
-1.5847765824877347
-1.6401668319727392
-1.6709391927977324
-1.689402609292734
-1.5970855268177266
-1.5970855268177266
-1.6463213041377216
-1.6709391927977324
-1.7017115536227536
-1.590931054652717
-1.510922916507701
-1.6955570814577436
-1.7078660257877356
-1.683248137127724
-1.6340123598077294
-1.5601586938277234
-1.6217034154777374
-1.6093944711477182
-1.6217034154777374
-1.6278578876427194
-1.7078660257877356
-1.6709391927977324
-1.6955570814577436
-1.578622110322725
-1.5847765824877347
-1.7878741639327511
-1.6463213041377216
-1.7263294422827367
-2.1263701330077875
-1.3755245288776807
-1.5724676381577152
-1.6093944711477182
-1.6463213041377216
-1.6217034154777374
-1.5847765824877347
-1.5970855268177266
-1.677093664962742
-1.5232318608377204
-1.400142417537692
-1.7078660257877356
-1.6217034154777374
-1.6093944711477182
-1.5847765824877347
-1.5540042216627135
-1.6524757763027313
-1.6647847206327224
-1.677093664962742
-1.6709391927977324
-1.6463213041377216
-1.6032399989827366
-1.5970855268177266
-1.5724676381577152
-1.5663131659927332
-1.615548943312728
-1.6217034154777374
-1.6463213041377216
-1.6093944711477182
-1.5540042216627135
-1.5478497494977315
-1.4924595000126994
-1.5540042216627135
-1.6340123598077294
-1.6401668319727392
-1.6032399989827366
-1.6709391927977324
-1.683248137127724
-1.683248137127724
-1.7386383866127564
-1.6093944711477182
-1.5724676381577152
-1.6340123598077294
-1.6217034154777374
-1.578622110322725
-1.5601586938277234
-1.5355408051677124
-1.689402609292734
-1.6093944711477182
-1.6032399989827366
-1.6524757763027313
-1.6955570814577436
-1.7878741639327511
-1.6647847206327224
-1.5601586938277234
-1.6709391927977324
-1.5847765824877347
-1.5540042216627135
-1.1170366979476598
-0.4092723989725655
-1.855573357747775
-1.7878741639327511
-2.618727906207874
-2.2925408814628288
-1.683248137127724
-1.4247603061977032
-1.3816790010426905
-1.6032399989827366
-1.6524757763027313
-1.6586302484677409
-1.590931054652717
-1.683248137127724
-1.6586302484677409
-1.6586302484677409
-1.677093664962742
-1.689402609292734
-1.6340123598077294
-1.6032399989827366
-1.683248137127724
-1.6340123598077294
-1.7694107474377496
-1.6709391927977324
-1.689402609292734
-1.6647847206327224
-1.6647847206327224
-1.677093664962742
-1.6647847206327224
-1.6401668319727392
-1.6278578876427194
-1.6647847206327224
-1.7017115536227536
-1.677093664962742
-1.6217034154777374
-1.4309147783627132
-1.6463213041377216
-1.6340123598077294
-1.6093944711477182
-1.615548943312728
-1.677093664962742
-1.6463213041377216
-1.6524757763027313
-1.5478497494977315
-1.6278578876427194
-1.5663131659927332
-1.6709391927977324
-1.6463213041377216
-1.6217034154777374
-1.5540042216627135
-1.7755652196027594
-1.6093944711477182
-1.677093664962742
-1.6093944711477182
-1.5663131659927332
-1.5847765824877347
-1.6217034154777374
-1.6709391927977324
-1.6401668319727392
-1.5847765824877347
-1.6278578876427194
-1.615548943312728
-1.6093944711477182
-1.6709391927977324
-2.1263701330077875
-1.3509066402176972
-1.5416952773327224
-1.5355408051677124
-1.5293863330027024
-1.4801505556827075
-1.5416952773327224
-1.578622110322725
-1.6032399989827366
-1.6278578876427194
-1.590931054652717
-1.6093944711477182
-1.6401668319727392
-1.5232318608377204
-1.7386383866127564
-1.6463213041377216
-1.6278578876427194
-1.5970855268177266
-1.6217034154777374
-1.6647847206327224
-1.6032399989827366
-1.5970855268177266
-1.6524757763027313
-1.7017115536227536
-1.6217034154777374
-1.6217034154777374
-1.467841611352716
-1.504768444342719
-1.6586302484677409
-1.5540042216627135
-1.5970855268177266
-1.5847765824877347
-1.5847765824877347
-1.5478497494977315
-1.4986139721777092
-1.7078660257877356
-1.6709391927977324
-1.6217034154777374
-1.615548943312728
-1.6340123598077294
-1.5478497494977315
-1.5416952773327224
-1.6278578876427194
-1.677093664962742
-1.6093944711477182
-1.590931054652717
-1.5970855268177266
-1.5847765824877347
-1.5847765824877347
-1.5478497494977315
-1.5232318608377204
-1.689402609292734
-1.6340123598077294
-1.6524757763027313
-1.615548943312728
-1.578622110322725
-1.6586302484677409
-1.590931054652717
-0.9508659494926462
-0.02154065257750637
-1.966353856717784
-1.7324839144477464
-1.6401668319727392
-1.578622110322725
-1.578622110322725
-1.7447928587777384
-2.624882378372884
-1.855573357747775
-1.4432237226927047
-1.590931054652717
-1.6401668319727392
-1.5478497494977315
-1.5478497494977315
-1.1970448360926755
-0.32310978866254003
-2.2063782711528033
-1.5478497494977315
-1.6647847206327224
-1.5724676381577152
-1.5663131659927332
-1.5847765824877347
-2.009435161872797
-2.729508405177883
-1.9848172732127856
-1.892500190737778
-1.8001831082627426
-1.7755652196027594
-1.8063375804277528
-1.7201749701177547
-1.6340123598077294
-1.7201749701177547
-1.689402609292734
-1.7509473309427481
-1.7017115536227536
-1.7386383866127564
-1.7632562752727399
-1.6647847206327224
-1.9355814958927628
-1.861727829912757
-1.7324839144477464
-1.7324839144477464
-1.7263294422827367
-1.7078660257877356
-1.683248137127724
-1.6586302484677409
-1.6647847206327224
-1.7509473309427481
-1.689402609292734
-1.6955570814577436
-1.7509473309427481
-1.3878334732077002
-1.2955163907326928
-1.6278578876427194
-1.689402609292734
-1.689402609292734
-1.6217034154777374
-1.615548943312728
-1.6463213041377216
-1.7140204979527456
-1.7017115536227536
-1.6340123598077294
-1.6524757763027313
-1.6463213041377216
-1.6032399989827366
-1.5663131659927332
-1.7694107474377496
-1.6217034154777374
-1.6278578876427194
-1.6463213041377216
-1.6278578876427194
-1.6340123598077294
-1.6647847206327224
-1.6524757763027313
-1.6463213041377216
-1.6278578876427194
-1.6463213041377216
-1.8001831082627426
-2.0278985783677985
-1.178581419597674
-1.6278578876427194
-1.6340123598077294
-1.689402609292734
-1.7017115536227536
-1.615548943312728
-1.5601586938277234
-1.6709391927977324
-1.6524757763027313
-1.6524757763027313
-1.7078660257877356
-1.6340123598077294
-1.6278578876427194
-1.6032399989827366
-1.7201749701177547
-2.070979883522784
-1.7140204979527456
-1.6709391927977324
-1.683248137127724
-1.7017115536227536
-1.6401668319727392
-1.615548943312728
-1.5293863330027024
-1.6586302484677409
-1.7201749701177547
-1.6524757763027313
-1.6647847206327224
-1.6217034154777374
-1.2401261412476885
-1.4924595000126994
-1.590931054652717
-1.7263294422827367
-1.615548943312728
-1.590931054652717
-1.6340123598077294
-1.6340123598077294
-1.6524757763027313
-1.6463213041377216
-1.6217034154777374
-1.7140204979527456
-1.7201749701177547
-1.6217034154777374
-1.0801098649576568
-0.5138984257775646
-1.7140204979527456
-1.861727829912757
-2.907988097962916
-2.1017522443478045
-1.7078660257877356
-1.6463213041377216
-1.683248137127724
-1.6709391927977324
-1.6463213041377216
-1.6463213041377216
-1.7694107474377496
-1.6647847206327224
-1.578622110322725
-1.7078660257877356
-1.6524757763027313
-1.6586302484677409
-1.6709391927977324
-1.5663131659927332
-1.5847765824877347
-1.6032399989827366
-1.6340123598077294
-1.6093944711477182
-1.5601586938277234
-1.5663131659927332
-1.6524757763027313
-1.5601586938277234
-1.5663131659927332
-1.7263294422827367
-1.6463213041377216
-1.7140204979527456
-1.7324839144477464
-1.6401668319727392
-1.6278578876427194
-1.6340123598077294
-1.7386383866127564
-1.683248137127724
-1.7263294422827367
-1.6586302484677409
-1.677093664962742
-1.6401668319727392
-1.6032399989827366
-1.6709391927977324
-1.689402609292734
-1.5847765824877347
-1.6032399989827366
-1.6647847206327224
-1.6278578876427194
-1.6093944711477182
-1.6340123598077294
-1.683248137127724
-1.6955570814577436
-1.689402609292734
-1.677093664962742
-1.615548943312728
-1.6586302484677409
-1.677093664962742
-1.7201749701177547
-1.6401668319727392
-1.6463213041377216
-1.6955570814577436
-1.6647847206327224
-1.830955469087764
-1.9601993845527748
-1.2647440299076718
-1.6217034154777374
-1.6955570814577436
-1.6586302484677409
-1.7386383866127564
-2.052516467027782
-1.7386383866127564
-1.6524757763027313
-1.7078660257877356
-1.6401668319727392
-1.7386383866127564
-1.6709391927977324
-1.6340123598077294
-1.6463213041377216
-1.6955570814577436
-1.6340123598077294
-1.6401668319727392
-1.5293863330027024
-1.4432237226927047
-1.289361918567683
-1.578622110322725
-1.590931054652717
-1.6524757763027313
-1.6217034154777374
-1.578622110322725
-1.615548943312728
-1.7078660257877356
-1.6586302484677409
-1.6278578876427194
-1.6463213041377216
-1.7201749701177547
-1.6401668319727392
-1.5293863330027024
-1.6524757763027313
-1.6401668319727392
-1.6217034154777374
-1.5663131659927332
-1.4309147783627132
-1.3447521680526875
-1.2339716690826785
-1.1293456422776516
-1.0124106711426328
-1.0678009206276373
-1.104727753617668
-1.215508252587677
-1.3201342793926762
-1.3078253350626845
-1.6032399989827366
-1.4309147783627132
-1.4309147783627132
-1.510922916507701
-1.504768444342719
-1.5355408051677124
-1.4801505556827075
-1.5170773886727107
-1.5293863330027024
-0.895475700007614
-1.2401261412476885
-0.8031586175326066
-1.7386383866127564
-1.467841611352716
-1.6401668319727392
-1.6340123598077294
-1.5601586938277234
-2.0278985783677985
-2.600264489712873
-1.6955570814577436
-1.5847765824877347
-1.5232318608377204
-1.6032399989827366
-1.6217034154777374
-1.590931054652717
-1.5847765824877347
-1.6093944711477182
-1.510922916507701
-1.849418885582765
-1.7878741639327511
-1.7017115536227536
-1.7140204979527456
-1.7509473309427481
-1.683248137127724
-1.7940286360977609
-1.7817196917677414
-1.7940286360977609
-1.7940286360977609
-1.7817196917677414
-1.830955469087764
-1.7509473309427481
-1.6463213041377216
-1.849418885582765
-1.7632562752727399
-1.7017115536227536
-1.7140204979527456
-1.7078660257877356
-1.7078660257877356
-1.7140204979527456
-1.683248137127724
-1.7263294422827367
-1.689402609292734
-1.6463213041377216
-1.689402609292734
-1.5970855268177266
-1.5478497494977315
-1.7447928587777384
-1.7694107474377496
-1.7017115536227536
-1.6401668319727392
-1.6278578876427194
-1.6647847206327224
-1.677093664962742
-1.6709391927977324
-1.104727753617668
-1.849418885582765
-2.064825411357801
-1.7447928587777384
-1.6032399989827366
-1.6401668319727392
-1.8371099412527454
-1.6709391927977324
-1.615548943312728
-1.9294270237277809
-1.9848172732127856
-1.25243508557768
-1.6401668319727392
-1.7140204979527456
-1.6647847206327224
-1.6647847206327224
-1.6032399989827366
-1.7632562752727399
-1.6647847206327224
-1.5970855268177266
-1.7140204979527456
-1.6463213041377216
-1.6217034154777374
-1.6093944711477182
-1.5540042216627135
-1.7509473309427481
-1.6709391927977324
-1.6586302484677409
-1.7201749701177547
-1.6401668319727392
-1.6524757763027313
-1.4924595000126994
0.05231301340249961
-1.7817196917677414
-1.8801912464077586
-1.6647847206327224
-1.6032399989827366
-1.6401668319727392
-1.6586302484677409
-1.830955469087764
-2.8649067928079033
-2.2679229928028177
-1.7078660257877356
-1.6586302484677409
-1.6709391927977324
-1.615548943312728
-1.5232318608377204
-1.5232318608377204
-1.5847765824877347
-1.5601586938277234
-1.5724676381577152
-1.5478497494977315
-1.4493781948577145
-1.4247603061977032
-1.437069250527695
-1.4555326670226965
-1.3816790010426905
-1.2401261412476885
-1.215508252587677
-1.2708985020726815
-1.0924188092876486
-0.9447114773276367
-1.2770529742376913
-1.3385976958876775
-1.4986139721777092
-1.4924595000126994
-1.4616871391877062
-1.510922916507701
-1.0616464484626553
-0.18155692886753785
-1.0493375041326358
-2.3971669082678284
-2.8095165433228986
-1.91096360723278
-2.3110042979578305
-2.68642710002287
-1.4247603061977032
-1.4555326670226965
-1.4186058340326935
-1.437069250527695
-1.6401668319727392
-1.6093944711477182
-1.6093944711477182
-1.6217034154777374
-1.6093944711477182
-1.6463213041377216
-1.6340123598077294
-1.5847765824877347
-1.689402609292734
-1.7878741639327511
-1.683248137127724
-1.689402609292734
-1.615548943312728
-1.6278578876427194
-1.6217034154777374
-1.615548943312728
-1.7140204979527456
-1.615548943312728
-1.590931054652717
-1.6032399989827366
-1.6524757763027313
-1.677093664962742
-1.5232318608377204
-1.7386383866127564
-1.7017115536227536
-1.6463213041377216
-1.6463213041377216
-1.590931054652717
-1.5416952773327224
-1.504768444342719
-1.578622110322725
-1.5478497494977315
-0.9570204216576284
-1.4247603061977032
-1.7878741639327511
-1.7509473309427481
-1.590931054652717
-2.194069326822812
-1.757101803107758
-1.504768444342719
-1.4986139721777092
-1.4801505556827075
-1.5293863330027024
-1.5724676381577152
-1.504768444342719
-1.4924595000126994
-1.467841611352716
-1.6093944711477182
-1.5663131659927332
-1.5170773886727107
-1.5847765824877347
-1.7447928587777384
-1.6340123598077294
-1.615548943312728
-1.590931054652717
-1.6463213041377216
-1.6278578876427194
-1.5663131659927332
-1.6032399989827366
-1.5847765824877347
-1.4863050278477177
-1.5970855268177266
-1.6340123598077294
-1.6278578876427194
-1.5478497494977315
-1.8063375804277528
-1.5970855268177266
-1.5847765824877347
-1.689402609292734
-1.6340123598077294
-1.578622110322725
-1.6586302484677409
-1.6217034154777374
-1.5847765824877347
-1.6032399989827366
-1.677093664962742
-1.6278578876427194
-1.5416952773327224
-1.4924595000126994
-1.7447928587777384
-1.6401668319727392
-1.5663131659927332
-1.5355408051677124
-1.5601586938277234
-1.5478497494977315
-1.6032399989827366
-1.5970855268177266
-1.578622110322725
-1.578622110322725
-1.6032399989827366
-1.6955570814577436
-1.578622110322725
-1.590931054652717
-1.6586302484677409
-1.6463213041377216
-1.6401668319727392
-1.615548943312728
-1.5847765824877347
-1.6032399989827366
-2.0463619948628
-1.6524757763027313
-1.3755245288776807
-1.677093664962742
-1.6340123598077294
-1.6032399989827366
-1.578622110322725
-1.6647847206327224
-1.6217034154777374
-1.5478497494977315
-1.5232318608377204
-1.1231911701126696
-0.3538821494875609
-1.7140204979527456
-1.6955570814577436
-1.7201749701177547
-1.7140204979527456
-1.7017115536227536
-2.575646601052861
-2.2802319371328093
-1.615548943312728
-1.5540042216627135
-1.5663131659927332
-1.6340123598077294
-1.6647847206327224
-1.6093944711477182
-1.6463213041377216
-1.6647847206327224
-1.6401668319727392
-1.6278578876427194
-1.6093944711477182
-1.6093944711477182
-1.5663131659927332
-1.6032399989827366
-1.7263294422827367
-2.1448335495027893
-1.8432644134177558
-1.7078660257877356
-1.7386383866127564
-1.757101803107758
-1.6709391927977324
-1.6955570814577436
-1.6524757763027313
-1.6340123598077294
-1.6401668319727392
-1.6647847206327224
-1.6709391927977324
-1.6586302484677409
-1.3385976958876775
-1.2770529742376913
-1.6463213041377216
-1.578622110322725
-1.5724676381577152
-1.6647847206327224
-1.6709391927977324
-1.6340123598077294
-1.6709391927977324
-1.6401668319727392
-1.6955570814577436
-1.6586302484677409
-1.6709391927977324
-1.6032399989827366
-1.5170773886727107
-1.7632562752727399
-1.6524757763027313
-1.6278578876427194
-1.689402609292734
-1.6340123598077294
-1.6463213041377216
-1.615548943312728
-1.6217034154777374
-1.6278578876427194
-1.6340123598077294
-1.578622110322725
-1.8248009969227534
-2.009435161872797
-1.1908903639276658
-1.7263294422827367
-1.6340123598077294
-1.6217034154777374
-1.5970855268177266
-1.5847765824877347
-1.6340123598077294
-1.6278578876427194
-1.6032399989827366
-1.5970855268177266
-1.6217034154777374
-1.6647847206327224
-1.6217034154777374
-1.6463213041377216
-1.590931054652717
-1.7140204979527456
-1.6401668319727392
-1.6647847206327224
-1.7078660257877356
-1.6586302484677409
-1.6217034154777374
-1.6586302484677409
-1.615548943312728
-1.6032399989827366
-1.6463213041377216
-1.6647847206327224
-1.6463213041377216
-1.578622110322725
-1.4555326670226965
-1.7078660257877356
-1.6463213041377216
-1.6463213041377216
-1.615548943312728
-1.5970855268177266
-1.5663131659927332
-1.5478497494977315
-1.510922916507701
-1.6401668319727392
-1.5724676381577152
-1.5478497494977315
-1.615548943312728
-1.6032399989827366
-1.5540042216627135
-1.6401668319727392
-1.5232318608377204
-1.6340123598077294
-1.590931054652717
-1.510922916507701
-1.5478497494977315
-1.6217034154777374
-1.6340123598077294
-1.510922916507701
-1.504768444342719
-1.6278578876427194
-1.6032399989827366
-1.4924595000126994
-1.4493781948577145
-1.1539635309376628
-0.3846545103125543
-1.8248009969227534
-2.754126293837894
-2.194069326822812
-1.6524757763027313
-1.5970855268177266
-1.6217034154777374
-1.683248137127724
-1.7263294422827367
-1.6093944711477182
-1.5970855268177266
-1.6524757763027313
-1.6217034154777374
-1.8124920525927626
-1.677093664962742
-1.6278578876427194
-1.6647847206327224
-1.677093664962742
-1.6093944711477182
-1.6340123598077294
-1.683248137127724
-1.6463213041377216
-1.6463213041377216
-1.6586302484677409
-1.6401668319727392
-1.5232318608377204
-1.5970855268177266
-1.7017115536227536
-1.6709391927977324
-1.6647847206327224
-1.6524757763027313
-1.6647847206327224
-1.6463213041377216
-0.7539228402126119
-0.9385570051626267
-2.009435161872797
-1.5970855268177266
-1.7201749701177547
-1.7017115536227536
-1.6709391927977324
-1.7324839144477464
-2.3971669082678284
-2.5141018794028467
-1.7263294422827367
-1.6401668319727392
-1.590931054652717
-1.6093944711477182
-1.6278578876427194
-1.6524757763027313
-1.6278578876427194
-1.7324839144477464
-1.7324839144477464
-1.757101803107758
-1.4493781948577145
-1.1170366979476598
-1.5355408051677124
-1.578622110322725
-1.590931054652717
-1.6463213041377216
-1.5601586938277234
-1.5970855268177266
-1.6217034154777374
-1.6524757763027313
-1.6032399989827366
-1.5847765824877347
-1.5416952773327224
-1.6278578876427194
-1.7324839144477464
-1.990971745377768
-1.677093664962742
-1.6524757763027313
-1.5970855268177266
-1.5540042216627135
-1.6032399989827366
-1.615548943312728
-1.6524757763027313
-1.6093944711477182
-1.6955570814577436
-1.7447928587777384
-1.8432644134177558
-1.7940286360977609
-1.861727829912757
-1.7940286360977609
-1.7509473309427481
-1.8371099412527454
-1.7817196917677414
-1.7817196917677414
-1.7509473309427481
-1.6340123598077294
-1.7078660257877356
-1.7324839144477464
-1.7755652196027594
-1.7755652196027594
-1.7201749701177547
-1.677093664962742
-1.6032399989827366
-2.0340530505327803
-1.89865466290276
-1.363215584547689
-1.7201749701177547
-1.7509473309427481
-1.7694107474377496
-1.7694107474377496
-1.7324839144477464
-1.689402609292734
-1.7878741639327511
-1.7078660257877356
-1.7140204979527456
-1.6586302484677409
-1.5232318608377204
-1.8124920525927626
-1.6955570814577436
-1.6278578876427194
-1.7017115536227536
-1.7017115536227536
-1.7017115536227536
-1.7324839144477464
-1.7017115536227536
-1.6524757763027313
-1.7017115536227536
-1.7263294422827367
-1.178581419597674
-0.02154065257750637
-1.8863457185727683
-1.8432644134177558
-1.677093664962742
-1.7078660257877356
-1.9601993845527748
-2.9633783474479203
-2.150988021667799
-1.757101803107758
-1.7078660257877356
-1.7140204979527456
-1.6463213041377216
-1.6278578876427194
-1.6647847206327224
-1.6647847206327224
-1.6278578876427194
-1.91096360723278
-1.7386383866127564
-1.7263294422827367
-1.7263294422827367
-1.683248137127724
-1.5847765824877347
-1.6955570814577436
-1.7447928587777384
-1.7324839144477464
-1.6709391927977324
-1.6278578876427194
-1.6586302484677409
-1.6955570814577436
-1.818646524757745
-2.04020752269779
-1.757101803107758
-1.677093664962742
-1.6463213041377216
-1.5663131659927332
-1.510922916507701
-1.289361918567683
-1.104727753617668
-1.184735891762656
-1.1478090587726528
-1.1231911701126696
-1.1662724752676545
-1.11088222578265
-1.000101726812641
-1.504768444342719
-1.510922916507701
-1.7017115536227536
-1.6217034154777374
-1.6032399989827366
-1.615548943312728
-1.5970855268177266
-1.6586302484677409
-1.6340123598077294
-1.6278578876427194
-1.7386383866127564
-1.6647847206327224
-1.6340123598077294
-1.7201749701177547
-1.7386383866127564
-1.689402609292734
-1.689402609292734
-1.7447928587777384
-1.954044912387765
-2.1448335495027893
-1.4493781948577145
-1.7078660257877356
-1.7078660257877356
-1.7201749701177547
-1.6278578876427194
-1.7694107474377496
-1.6647847206327224
-1.6032399989827366
-1.7632562752727399
-1.7201749701177547
-1.7201749701177547
-1.6955570814577436
-1.6401668319727392
-1.7940286360977609
-1.7632562752727399
-1.7386383866127564
-1.7509473309427481
-1.7509473309427481
-1.683248137127724
-1.677093664962742
-1.6093944711477182
-1.8063375804277528
-1.757101803107758
-1.7324839144477464
-1.7509473309427481
-1.7263294422827367
-1.7078660257877356
-1.6955570814577436
-1.683248137127724
-1.7940286360977609
-1.7817196917677414
-1.7386383866127564
-1.7447928587777384
-1.7694107474377496
-1.7386383866127564
-1.9601993845527748
-1.818646524757745
-1.8001831082627426
-1.757101803107758
-1.7940286360977609
-1.8063375804277528
-1.7817196917677414
-1.8432644134177558
-1.8678823020777668
-1.7940286360977609
-1.849418885582765
-1.8801912464077586
-1.91096360723278
-1.7078660257877356
-1.849418885582765
-1.9478904402227823
-1.8432644134177558
-1.892500190737778
-1.972508328882766
-1.972508328882766
-1.954044912387765
-1.892500190737778
-1.3755245288776807
-0.4092723989725655
-2.120215660842805
-3.344955621677997
-2.55102871239285
-1.849418885582765
-1.9848172732127856
-1.966353856717784
-1.9171180793977614
-1.9417359680577726
-1.9232725515627715
-1.9786628010477763
-1.9171180793977614
-1.9294270237277809
-1.972508328882766
-1.966353856717784
-1.9971262175427773
-2.0586709391927913
-1.972508328882766
-1.9232725515627715
-2.1571424938328088
-2.0340530505327803
-1.972508328882766
-2.009435161872797
-1.990971745377768
-2.015589634037779
-1.9848172732127856
-2.0278985783677985
-1.966353856717784
-1.972508328882766
-2.015589634037779
-1.9971262175427773
-1.89865466290276
-1.7694107474377496
-2.04020752269779
-2.0955977721827947
-2.009435161872797
-2.015589634037779
-2.052516467027782
-2.052516467027782
-2.015589634037779
-2.0340530505327803
-2.1017522443478045
-2.1263701330077875
-2.070979883522784
-2.1325246051727973
-2.120215660842805
-2.0340530505327803
-2.3417766587828237
-2.212532743317813
-2.2433051041428067
-2.3110042979578305
-2.3417766587828237
-2.2925408814628288
-2.335622186617841
-2.329467714452832
-2.2802319371328093
-2.304849825792821
-2.2802319371328093
-2.3233132422878215
-2.372549019607845
-2.3233132422878215
-2.55718318455786
-2.631036850537866
-2.883370209302905
-2.064825411357801
-2.4156303247628297
-2.329467714452832
-2.1694514381628007
-2.1325246051727973
-2.1079067165127863
-2.194069326822812
-2.150988021667799
-2.1079067165127863
-2.187914854657802
-2.070979883522784
-2.249459576307816
-2.2371506319778245
-2.2371506319778245
-2.255614048472826
-2.2371506319778245
-2.2309961598128147
-2.372549019607845
-2.2740774649678275
-2.2925408814628288
-2.249459576307816
-2.2433051041428067
-2.3233132422878215
-2.194069326822812
-2.0278985783677985
-2.2802319371328093
-2.2371506319778245
-2.255614048472826
-2.2063782711528033
-2.138679077337807
-2.2309961598128147
-2.224841687647805
-2.077134355687793
-2.138679077337807
-2.1632969659978185
-2.212532743317813
-2.1817603824928202
-2.1571424938328088
-2.501792935072855
-1.972508328882766
-0.8400854505226096
-2.0586709391927913
-2.0463619948628
-2.120215660842805
-2.138679077337807
-2.064825411357801
-2.083288827852803
-2.434093741257831
-3.25263853920299
-2.391012436102846
-2.083288827852803
-1.8801912464077586
-1.855573357747775
-1.972508328882766
-1.9601993845527748
-1.9048091350677696
-1.972508328882766
-1.400142417537692
-0.2800284835075273
-2.249459576307816
-1.972508328882766
-1.9294270237277809
-1.9294270237277809
-2.655654739197877
-3.092622262912931
-1.8001831082627426
-1.400142417537692
-1.7878741639327511
-1.7817196917677414
-1.818646524757745
-1.8063375804277528
-1.7878741639327511
-1.8432644134177558
-1.7201749701177547
-1.6524757763027313
-1.4801505556827075
-1.2401261412476885
-1.2462806134126705
-1.2401261412476885
-1.3139798072276945
-1.7940286360977609
-1.467841611352716
-1.4186058340326935
-1.400142417537692
-1.39398794537271
-1.437069250527695
-1.363215584547689
-1.3016708628976748
-1.3693700567126987
-1.2708985020726815
-1.3078253350626845
-1.3385976958876775
-1.3078253350626845
-1.2031993082576575
-1.4062968897027015
-1.3878334732077002
-1.3016708628976748
-1.1970448360926755
-1.2339716690826785
-1.1908903639276658
-1.2031993082576575
-1.2832074464026733
-1.3509066402176972
-1.2832074464026733
-1.1724269474326645
-1.1908903639276658
-1.1970448360926755
-1.0185651433076426
-1.2339716690826785
-1.2278171969176688
-1.0493375041326358
-1.1908903639276658
-1.178581419597674
-1.1231911701126696
-1.0924188092876486
-1.1355001144426613
-1.1724269474326645
-1.1355001144426613
-1.1355001144426613
-1.2708985020726815
-1.3447521680526875
-1.7017115536227536
-1.0985732814526583
-1.141654586607671
-1.1170366979476598
-1.178581419597674
-1.1170366979476598
-1.1908903639276658
-1.215508252587677
-1.2585895577426898
-1.2708985020726815
-1.2093537804226673
-1.2647440299076718
-1.2278171969176688
-1.073955392792647
-1.0431830319676536
-1.1970448360926755
-1.2647440299076718
-1.178581419597674
-1.221662724752659
-1.3447521680526875
-1.289361918567683
-1.2401261412476885
-1.3447521680526875
-1.3201342793926762
-1.3509066402176972
-1.3016708628976748
-1.2955163907326928
-1.2031993082576575
-1.104727753617668
-1.4124513618677115
-1.363215584547689
-1.4186058340326935
-1.400142417537692
-1.437069250527695
-1.4493781948577145
-1.4186058340326935
-1.4863050278477177
-1.4186058340326935
-1.3816790010426905
-1.39398794537271
-1.437069250527695
-1.4309147783627132
-1.3078253350626845
-1.4616871391877062
-1.3878334732077002
-1.4801505556827075
-1.504768444342719
-1.510922916507701
-1.5170773886727107
-1.4863050278477177
-1.4616871391877062
-1.4924595000126994
-1.4124513618677115
-1.4801505556827075
-1.4924595000126994
-1.4616871391877062
-1.5847765824877347
-1.6647847206327224
-1.0247196154726523
-0.2800284835075273
-2.3663945474428347
-2.409475852597848
-1.615548943312728
-1.5416952773327224
-1.5170773886727107
-1.5416952773327224
-1.5416952773327224
-1.4986139721777092
-1.4863050278477177
-1.5355408051677124
-1.5847765824877347
-1.6463213041377216
-1.4986139721777092
-1.5416952773327224
-1.5170773886727107
-1.4493781948577145
-1.4863050278477177
-1.578622110322725
-1.5232318608377204
-1.5540042216627135
-1.5970855268177266
-1.5355408051677124
-1.5970855268177266
-1.4801505556827075
-1.437069250527695
-1.5293863330027024
-1.5232318608377204
-1.4863050278477177
-1.504768444342719
-1.5232318608377204
-1.4986139721777092
-1.510922916507701
-1.473996083517698
-1.4924595000126994
-1.5416952773327224
-1.5724676381577152
-1.578622110322725
-1.578622110322725
-1.7140204979527456
-1.5663131659927332
-1.615548943312728
-1.615548943312728
-1.6401668319727392
-1.5478497494977315
-1.5478497494977315
-1.5847765824877347
-1.6463213041377216
-1.5540042216627135
-1.6340123598077294
-1.6586302484677409
-1.6217034154777374
-1.4616871391877062
-1.467841611352716
-1.5601586938277234
-1.5847765824877347
-1.5232318608377204
-1.6340123598077294
-1.590931054652717
-1.5478497494977315
-1.5663131659927332
-1.5847765824877347
-1.7755652196027594
-1.9971262175427773
-1.2585895577426898
-1.5847765824877347
-1.4432237226927047
-1.6340123598077294
-1.5663131659927332
-1.5478497494977315
-1.5355408051677124
-1.5601586938277234
-1.5232318608377204
-1.578622110322725
-1.5601586938277234
-1.5416952773327224
-1.5601586938277234
-1.5601586938277234
-1.5663131659927332
-1.4986139721777092
-1.4247603061977032
-1.7078660257877356
-1.615548943312728
-1.5601586938277234
-1.5601586938277234
-1.615548943312728
-1.6217034154777374
-1.5663131659927332
-1.5478497494977315
-1.590931054652717
-1.6340123598077294
-1.615548943312728
-1.6032399989827366
-1.5663131659927332
-1.473996083517698
-1.6463213041377216
-1.683248137127724
-1.6463213041377216
-1.6401668319727392
-1.6401668319727392
-1.6278578876427194
-1.615548943312728
-1.6524757763027313
-1.578622110322725
-1.7078660257877356
-1.6647847206327224
-1.7386383866127564
-1.6032399989827366
-1.5355408051677124
-1.8063375804277528
-1.6709391927977324
-1.6032399989827366
-1.7447928587777384
-1.6647847206327224
-1.6463213041377216
-1.683248137127724
-1.6463213041377216
-1.6401668319727392
-1.615548943312728
-1.615548943312728
-1.7386383866127564
-1.0985732814526583
-0.14463009587750708
-2.138679077337807
-1.7940286360977609
-1.683248137127724
-1.7632562752727399
-2.618727906207874
-2.077134355687793
-1.5724676381577152
-1.5847765824877347
-1.6401668319727392
-1.6217034154777374
-1.6524757763027313
-1.6278578876427194
-1.6217034154777374
-1.7017115536227536
-1.8432644134177558
-1.6709391927977324
-1.7017115536227536
-1.7386383866127564
-1.7386383866127564
-1.689402609292734
-1.689402609292734
-1.7263294422827367
-1.6955570814577436
-1.7201749701177547
-1.7509473309427481
-1.7263294422827367
-1.6401668319727392
-1.6524757763027313
-1.8001831082627426
-1.7017115536227536
-1.6463213041377216
-1.6709391927977324
-1.7078660257877356
-1.677093664962742
-1.677093664962742
-1.5663131659927332
-1.683248137127724
-1.7263294422827367
-1.6340123598077294
-1.590931054652717
-1.6093944711477182
-1.6401668319727392
-1.7201749701177547
-1.6340123598077294
-1.683248137127724
-1.615548943312728
-1.6093944711477182
-1.6278578876427194
-1.6032399989827366
-1.5970855268177266
-1.5724676381577152
-0.36619109381755277
-1.8740367742427766
-1.473996083517698
-1.5170773886727107
-1.5478497494977315
-1.6647847206327224
-1.6524757763027313
-1.7078660257877356
-2.587955545382853
-2.1448335495027893
-1.6340123598077294
-1.6524757763027313
-1.6401668319727392
-1.6278578876427194
-1.6217034154777374
-1.6217034154777374
-1.7263294422827367
-1.6586302484677409
-1.7694107474377496
-1.7694107474377496
-1.6709391927977324
-1.6217034154777374
-1.5970855268177266
-1.615548943312728
-1.6586302484677409
-1.6709391927977324
-1.6647847206327224
-1.6955570814577436
-1.6340123598077294
-1.590931054652717
-1.6463213041377216
-1.5847765824877347
-1.757101803107758
-1.7755652196027594
-1.7263294422827367
-1.7017115536227536
-1.7447928587777384
-1.7509473309427481
-1.6709391927977324
-1.6278578876427194
-1.8001831082627426
-1.7324839144477464
-1.6278578876427194
-1.6401668319727392
-1.683248137127724
-1.5232318608377204
-1.5170773886727107
-1.5724676381577152
-1.7694107474377496
-1.6647847206327224
-1.677093664962742
-1.7078660257877356
-1.757101803107758
-1.6647847206327224
-1.504768444342719
-1.6217034154777374
-1.7447928587777384
-1.7386383866127564
-1.7078660257877356
-1.5355408051677124
-1.7694107474377496
-1.7632562752727399
-1.7017115536227536
-2.089443300017785
-1.7386383866127564
-1.5170773886727107
-1.6278578876427194
-1.5663131659927332
-1.615548943312728
-1.1355001144426613
-0.37850003814754446
-3.24648406703798
-2.194069326822812
-1.5847765824877347
-1.7632562752727399
-1.6955570814577436
-1.683248137127724
-1.7017115536227536
-1.683248137127724
-1.6401668319727392
-1.5847765824877347
-1.6032399989827366
-1.6401668319727392
-1.7140204979527456
-1.683248137127724
-1.683248137127724
-1.6278578876427194
-1.5293863330027024
-1.8001831082627426
-1.7201749701177547
-1.689402609292734
-1.6709391927977324
-1.683248137127724
-1.6709391927977324
-1.590931054652717
-1.689402609292734
-1.6217034154777374
-1.6032399989827366
-1.6032399989827366
-1.6586302484677409
-1.590931054652717
-1.5232318608377204
-1.7694107474377496
-1.7201749701177547
-1.6463213041377216
-1.6647847206327224
-1.7078660257877356
-1.683248137127724
-1.677093664962742
-1.6463213041377216
-1.6093944711477182
-1.7447928587777384
-1.677093664962742
-1.689402609292734
-1.6278578876427194
-1.5232318608377204
-1.7201749701177547
-1.6093944711477182
-1.6278578876427194
-1.6278578876427194
-1.578622110322725
-1.6463213041377216
-1.5540042216627135
-1.510922916507701
-1.6032399989827366
-1.6032399989827366
-1.5724676381577152
-1.6647847206327224
-1.578622110322725
-1.4493781948577145
-1.5970855268177266
-1.5724676381577152
-1.7694107474377496
-1.9971262175427773
-1.2832074464026733
-1.4616871391877062
-1.5355408051677124
-1.4924595000126994
-1.4924595000126994
-1.5601586938277234
-1.5970855268177266
-1.0370285598026439
-1.7755652196027594
-1.9478904402227823
-1.7017115536227536
-1.7017115536227536
-1.6524757763027313
-1.6586302484677409
-1.6217034154777374
-1.5293863330027024
-1.677093664962742
-1.6586302484677409
-1.6524757763027313
-1.6586302484677409
-1.615548943312728
-1.6709391927977324
-1.6278578876427194
-1.5847765824877347
-1.7447928587777384
-1.5847765824877347
-1.5847765824877347
-1.5970855268177266
-1.615548943312728
-1.5724676381577152
-1.5293863330027024
-1.5170773886727107
-1.5601586938277234
-1.5724676381577152
-1.6340123598077294
-1.6401668319727392
-1.467841611352716
-1.5355408051677124
-1.5540042216627135
-1.4124513618677115
-1.5355408051677124
-1.4986139721777092
-1.5293863330027024
-1.4432237226927047
-1.4493781948577145
-1.5293863330027024
-1.4432237226927047
-1.400142417537692
-1.578622110322725
-1.5478497494977315
-1.1970448360926755
-0.5631342030975872
-1.25243508557768
-1.4493781948577145
-1.4309147783627132
-1.4124513618677115
-1.5601586938277234
-0.889321227842632
-0.033849596907498114
-2.0217441062027888
-1.7078660257877356
-1.6217034154777374
-1.9048091350677696
-2.704890516517872
-2.212532743317813
-2.3417766587828237
-1.7140204979527456
-1.6340123598077294
-1.6463213041377216
-1.615548943312728
-1.5355408051677124
-1.6340123598077294
-1.590931054652717
-1.5847765824877347
-1.5355408051677124
-1.6340123598077294
-1.6524757763027313
-1.6032399989827366
-1.510922916507701
-1.8124920525927626
-1.6401668319727392
-1.6401668319727392
-1.5847765824877347
-1.5724676381577152
-1.578622110322725
-1.5293863330027024
-1.4432237226927047
-1.6401668319727392
-1.677093664962742
-1.6217034154777374
-1.615548943312728
-1.6217034154777374
-1.4124513618677115
-1.6463213041377216
-1.5416952773327224
-1.5601586938277234
-1.5416952773327224
-1.5540042216627135
-1.5170773886727107
-1.504768444342719
-1.4986139721777092
-1.4924595000126994
-1.5293863330027024
-1.5847765824877347
-1.5847765824877347
-1.5293863330027024
-1.4493781948577145
-1.7694107474377496
-1.6586302484677409
-1.5724676381577152
-1.590931054652717
-1.5970855268177266
-1.5970855268177266
-1.615548943312728
-1.578622110322725
-1.5724676381577152
-1.578622110322725
-1.6524757763027313
-1.590931054652717
-1.5601586938277234
-1.7201749701177547
-2.150988021667799
-1.3693700567126987
-1.5478497494977315
-1.4801505556827075
-1.4493781948577145
-1.5601586938277234
-1.6032399989827366
-1.5601586938277234
-1.5540042216627135
-1.615548943312728
-1.5601586938277234
-1.5540042216627135
-1.504768444342719
-1.5355408051677124
-1.7263294422827367
-1.590931054652717
-1.5540042216627135
-1.6093944711477182
-1.5970855268177266
-1.5724676381577152
-1.5540042216627135
-1.6401668319727392
-1.578622110322725
-1.5478497494977315
-1.5970855268177266
-1.683248137127724
-1.6586302484677409
-1.5601586938277234
-1.5970855268177266
-1.6586302484677409
-1.6032399989827366
-1.5601586938277234
-1.6401668319727392
-1.5847765824877347
-1.578622110322725
-1.5847765824877347
-1.5478497494977315
-1.6524757763027313
-1.6217034154777374
-1.6217034154777374
-1.5416952773327224
-1.5232318608377204
-1.7017115536227536
-1.5478497494977315
-1.5416952773327224
-1.5847765824877347
-1.615548943312728
-1.5540042216627135
-1.4801505556827075
-1.6093944711477182
-1.5601586938277234
-1.6032399989827366
-1.5416952773327224
-1.5232318608377204
-1.5293863330027024
-1.6032399989827366
-1.6586302484677409
-1.590931054652717
-1.0062561989776508
0.14463009587750708
-1.7447928587777384
-2.194069326822812
-1.7078660257877356
-1.7140204979527456
-1.6709391927977324
-1.578622110322725
-1.5355408051677124
-2.175605910327811
-2.581801073217871
-1.7078660257877356
-1.615548943312728
-1.6032399989827366
-1.6093944711477182
-1.5847765824877347
-1.578622110322725
-1.5601586938277234
-1.6401668319727392
-1.5724676381577152
-1.6217034154777374
-1.6401668319727392
-1.6401668319727392
-1.6524757763027313
-1.510922916507701
-1.3447521680526875
-1.5970855268177266
-1.5170773886727107
-1.5663131659927332
-1.578622110322725
-1.6093944711477182
-1.5847765824877347
-1.5724676381577152
-1.6032399989827366
-1.6401668319727392
-1.5540042216627135
-1.5663131659927332
-1.6217034154777374
-1.7078660257877356
-1.9601993845527748
-1.6586302484677409
-1.590931054652717
-1.5478497494977315
-1.5232318608377204
-1.5416952773327224
-1.504768444342719
-1.5478497494977315
-1.5663131659927332
-1.5601586938277234
-1.5540042216627135
-1.590931054652717
-1.5970855268177266
-1.4247603061977032
-1.578622110322725
-1.5724676381577152
-1.6217034154777374
-1.5540042216627135
-1.6278578876427194
-1.6217034154777374
-1.6401668319727392
-1.6586302484677409
-1.6217034154777374
-1.6032399989827366
-1.6401668319727392
-1.7817196917677414
-2.089443300017785
-1.221662724752659
-1.578622110322725
-1.615548943312728
-1.5663131659927332
-1.5293863330027024
-1.5847765824877347
-1.5478497494977315
-1.6463213041377216
-1.6093944711477182
-1.6093944711477182
-1.590931054652717
-1.5970855268177266
-1.615548943312728
-1.5663131659927332
-1.4493781948577145
-1.830955469087764
-1.6955570814577436
-1.6278578876427194
-1.6401668319727392
-1.6217034154777374
-1.615548943312728
-1.677093664962742
-1.689402609292734
-1.7078660257877356
-1.6032399989827366
-1.6093944711477182
-1.683248137127724
-1.6401668319727392
-1.5478497494977315
-1.7263294422827367
-1.615548943312728
-1.6524757763027313
-1.6093944711477182
-1.6340123598077294
-1.683248137127724
-1.677093664962742
-1.689402609292734
-1.7017115536227536
-1.677093664962742
-1.677093664962742
-1.689402609292734
-1.6217034154777374
-1.5170773886727107
-1.7755652196027594
-1.6647847206327224
-1.578622110322725
-1.7324839144477464
-1.677093664962742
-1.6955570814577436
-1.7509473309427481
-1.7386383866127564
-1.7817196917677414
-1.7509473309427481
-1.6709391927977324
-1.7694107474377496
-1.6278578876427194
-1.0924188092876486
-0.29233742783754685
-2.1448335495027893
-1.8678823020777668
-1.8248009969227534
-2.495638462907845
-2.587955545382853
-1.6524757763027313
-1.689402609292734
-1.6586302484677409
-1.590931054652717
-1.677093664962742
-1.7509473309427481
-1.683248137127724
-1.7201749701177547
-1.8678823020777668
-1.7509473309427481
-1.7386383866127564
-1.7694107474377496
-1.7078660257877356
-1.7078660257877356
-1.6709391927977324
-1.7140204979527456
-1.6647847206327224
-1.7201749701177547
-1.7017115536227536
-1.689402609292734
-1.6586302484677409
-1.5416952773327224
-1.6586302484677409
-1.6647847206327224
-1.6955570814577436
-1.683248137127724
-1.677093664962742
-1.6955570814577436
-1.683248137127724
-1.6647847206327224
-1.677093664962742
-1.6647847206327224
-1.615548943312728
-1.6278578876427194
-1.7201749701177547
-1.7940286360977609
-1.7386383866127564
-1.6340123598077294
-1.7324839144477464
-1.7201749701177547
-1.6709391927977324
-1.7017115536227536
-1.7263294422827367
-1.7201749701177547
-1.689402609292734
-1.590931054652717
-1.7632562752727399
-1.7324839144477464
-1.5847765824877347
-1.7694107474377496
-1.8248009969227534
-1.6647847206327224
-1.6401668319727392
-1.6524757763027313
-1.849418885582765
-1.7386383866127564
-1.892500190737778
-2.1694514381628007
-1.4863050278477177
-1.5724676381577152
-1.578622110322725
-1.5724676381577152
-1.4309147783627132
-1.1970448360926755
-1.5416952773327224
-1.6217034154777374
-1.6586302484677409
-1.6278578876427194
-1.5663131659927332
-1.4924595000126994
-1.6278578876427194
-1.590931054652717
-1.578622110322725
-1.6401668319727392
-1.590931054652717
-1.590931054652717
-1.9355814958927628
-2.495638462907845
-1.8801912464077586
-1.7140204979527456
-1.7078660257877356
-1.6955570814577436
-1.689402609292734
-1.7447928587777384
-1.689402609292734
-1.6463213041377216
-1.7324839144477464
-1.677093664962742
-1.6955570814577436
-1.7140204979527456
-1.3201342793926762
-1.4124513618677115
-1.6647847206327224
-1.7632562752727399
-1.683248137127724
-1.689402609292734
-1.7201749701177547
-1.689402609292734
-1.6955570814577436
-1.6955570814577436
-1.683248137127724
-1.855573357747775
-1.7509473309427481
-1.6463213041377216
-1.4986139721777092
-1.7940286360977609
-1.7263294422827367
-1.7017115536227536
-1.683248137127724
-1.7263294422827367
-1.6586302484677409
-1.7509473309427481
-1.7017115536227536
-1.683248137127724
-1.6955570814577436
-1.141654586607671
-0.2984919000025288
-1.9355814958927628
-1.8124920525927626
-1.972508328882766
-1.7509473309427481
-1.7632562752727399
-1.7140204979527456
-1.7386383866127564
-2.6618092113628857
-2.2371506319778245
-1.6647847206327224
-1.677093664962742
-1.6647847206327224
-1.6093944711477182
-1.7017115536227536
-1.6586302484677409
-1.4186058340326935
-1.6340123598077294
-1.6093944711477182
-1.615548943312728
-1.6647847206327224
-1.7324839144477464
-1.6340123598077294
-1.5847765824877347
-1.6217034154777374
-1.6463213041377216
-1.677093664962742
-1.6709391927977324
-1.7017115536227536
-1.6093944711477182
-1.615548943312728
-1.2093537804226673
-1.8001831082627426
-1.9786628010477763
-1.7140204979527456
-1.5847765824877347
-1.5293863330027024
-1.5478497494977315
-1.6093944711477182
-1.5724676381577152
-1.6586302484677409
-1.590931054652717
-1.5724676381577152
-1.590931054652717
-1.5663131659927332
-1.7324839144477464
-1.6032399989827366
-1.4309147783627132
-1.6524757763027313
-1.6524757763027313
-1.6463213041377216
-1.6278578876427194
-1.6278578876427194
-1.5970855268177266
-1.6647847206327224
-1.5478497494977315
-1.6032399989827366
-1.5601586938277234
-1.5478497494977315
-1.615548943312728
-1.5601586938277234
-1.6463213041377216
-1.7632562752727399
-1.954044912387765
-1.39398794537271
-1.5478497494977315
-1.5847765824877347
-1.5170773886727107
-1.5232318608377204
-1.6340123598077294
-1.4309147783627132
-0.18155692886753785
-1.4555326670226965
-1.5663131659927332
-1.677093664962742
-1.7078660257877356
-1.683248137127724
-1.615548943312728
-1.8063375804277528
-2.735662877342893
-1.91096360723278
-1.5970855268177266
-1.5847765824877347
-1.5355408051677124
-1.5540042216627135
-1.5170773886727107
-1.5601586938277234
-1.6278578876427194
-1.5601586938277234
-1.6093944711477182
-1.6524757763027313
-1.578622110322725
-1.6278578876427194
-1.6463213041377216
-1.5663131659927332
-1.7878741639327511
-1.7509473309427481
-1.6955570814577436
-1.6709391927977324
-1.5478497494977315
-1.4432237226927047
-1.6340123598077294
-1.578622110322725
-1.6524757763027313
-1.6647847206327224
-1.7324839144477464
-1.7140204979527456
-1.6586302484677409
-1.6093944711477182
-1.6340123598077294
-1.590931054652717
-1.7140204979527456
-1.683248137127724
-1.7078660257877356
-1.954044912387765
-1.7263294422827367
-1.6647847206327224
-1.6647847206327224
-1.5970855268177266
-1.6955570814577436
-1.6709391927977324
-1.0985732814526583
-0.04615854123751762
-2.0217441062027888
-1.757101803107758
-1.8124920525927626
-2.7910531268278973
-2.120215660842805
-1.683248137127724
-1.6278578876427194
-1.6032399989827366
-1.6217034154777374
-1.6093944711477182
-1.5293863330027024
-1.5601586938277234
-1.6340123598077294
-1.683248137127724
-1.689402609292734
-1.6524757763027313
-1.6647847206327224
-1.6401668319727392
-1.7940286360977609
-2.175605910327811
-1.757101803107758
-1.5847765824877347
-1.683248137127724
-1.683248137127724
-1.6217034154777374
-1.6032399989827366
-1.6955570814577436
-1.9171180793977614
-1.89865466290276
-1.89865466290276
-1.8432644134177558
-1.7263294422827367
-1.3755245288776807
-1.615548943312728
-1.6524757763027313
-1.7694107474377496
-1.7755652196027594
-1.8001831082627426
-1.7140204979527456
-1.757101803107758
-1.7878741639327511
-1.683248137127724
-1.6647847206327224
-1.8124920525927626
-1.7878741639327511
-1.7324839144477464
-1.683248137127724
-1.8432644134177558
-1.7509473309427481
-1.7140204979527456
-1.6709391927977324
-1.7386383866127564
-1.7386383866127564
-1.6647847206327224
-1.6217034154777374
-1.6093944711477182
-1.6217034154777374
-1.6032399989827366
-1.5663131659927332
-1.4924595000126994
-1.4124513618677115
-1.830955469087764
-1.855573357747775
-1.1970448360926755
-1.5232318608377204
-1.5847765824877347
-1.5847765824877347
-1.6217034154777374
-1.5847765824877347
-1.5232318608377204
-1.510922916507701
-1.510922916507701
-1.578622110322725
-1.590931054652717
-1.504768444342719
-1.689402609292734
-1.7509473309427481
-1.7201749701177547
-1.7201749701177547
-1.7694107474377496
-1.8124920525927626
-1.7263294422827367
-1.7694107474377496
-1.7140204979527456
-1.7263294422827367
-1.7509473309427481
-1.757101803107758
-1.683248137127724
-1.6217034154777374
-1.6524757763027313
-1.7324839144477464
-1.7509473309427481
-1.7509473309427481
-1.7078660257877356
-1.6709391927977324
-1.6463213041377216
-1.683248137127724
-1.6401668319727392
-1.6524757763027313
-1.615548943312728
-1.683248137127724
-1.6401668319727392
-1.6647847206327224
-1.7201749701177547
-1.615548943312728
-1.5540042216627135
-1.6709391927977324
-1.6093944711477182
-1.6032399989827366
-1.5847765824877347
-1.6217034154777374
-1.6217034154777374
-1.6093944711477182
-1.5601586938277234
-1.677093664962742
-1.5847765824877347
-1.6463213041377216
-1.757101803107758
-1.6647847206327224
-1.590931054652717
-1.3139798072276945
-0.7785407288726233
-1.1355001144426613
-1.4309147783627132
-1.6093944711477182
-1.615548943312728
-1.615548943312728
-1.6278578876427194
-1.9048091350677696
-2.8095165433228986
-1.9786628010477763
-1.7386383866127564
-1.6647847206327224
-1.5416952773327224
-1.4186058340326935
-1.363215584547689
-1.3509066402176972
-1.3509066402176972
-1.2401261412476885
-1.215508252587677
-1.2093537804226673
-1.25243508557768
-1.3324432237226955
-1.0801098649576568
-0.6677602299025862
-1.3816790010426905
-1.4247603061977032
-1.3816790010426905
-1.3878334732077002
-1.4493781948577145
-1.4555326670226965
-1.504768444342719
-1.4247603061977032
-1.467841611352716
-1.4432237226927047
-1.4924595000126994
-1.5170773886727107
-1.7509473309427481
-2.1448335495027893
-1.6340123598077294
-1.5540042216627135
-1.6524757763027313
-1.6093944711477182
-1.5601586938277234
-1.5232318608377204
-1.5355408051677124
-1.5293863330027024
-1.4863050278477177
-1.4924595000126994
-1.5663131659927332
-1.5293863330027024
-1.4124513618677115
-1.5355408051677124
-1.5416952773327224
-1.6217034154777374
-1.590931054652717
-1.5970855268177266
-1.6278578876427194
-1.6093944711477182
-1.578622110322725
-1.5663131659927332
-1.590931054652717
-1.6340123598077294
-1.7386383866127564
-2.0217441062027888
-1.2093537804226673
-1.6709391927977324
-1.5970855268177266
-1.5724676381577152
-1.6586302484677409
-1.6217034154777374
-1.615548943312728
-1.7263294422827367
-1.6586302484677409
-1.7201749701177547
-1.7017115536227536
-1.6709391927977324
-1.7078660257877356
-1.6709391927977324
-1.4924595000126994
-1.7324839144477464
-1.7324839144477464
-1.7017115536227536
-1.6586302484677409
-1.7140204979527456
-1.7447928587777384
-1.8063375804277528
-1.861727829912757
-1.990971745377768
-1.966353856717784
-1.9171180793977614
-1.8801912464077586
-1.7817196917677414
-1.849418885582765
-2.0586709391927913
-1.818646524757745
-1.9355814958927628
-1.9355814958927628
-1.9048091350677696
-1.8740367742427766
-1.9048091350677696
-1.849418885582765
-1.7940286360977609
-1.757101803107758
-1.7878741639327511
-1.7201749701177547
-1.7509473309427481
-1.689402609292734
-1.9232725515627715
-1.8863457185727683
-1.8432644134177558
-1.8432644134177558
-1.9355814958927628
-1.8740367742427766
-1.8740367742427766
-1.89865466290276
-1.89865466290276
-1.8740367742427766
-1.818646524757745
-1.9048091350677696
-1.8371099412527454
-1.7878741639327511
-1.3878334732077002
-0.6000610360875902
-1.861727829912757
-1.8432644134177558
-2.249459576307816
-2.9264515144579173
-1.9478904402227823
-1.6709391927977324
-1.6586302484677409
-1.7201749701177547
-1.7078660257877356
-1.7386383866127564
-1.5663131659927332
-1.683248137127724
-1.8248009969227534
-1.677093664962742
-1.6217034154777374
-1.683248137127724
-1.7755652196027594
-1.7509473309427481
-0.5508252587675677
-1.4247603061977032
-1.9786628010477763
-1.6278578876427194
-1.6340123598077294
-1.590931054652717
-1.5478497494977315
-1.6586302484677409
-2.477175046412844
-2.2309961598128147
-1.4432237226927047
-1.400142417537692
-1.467841611352716
-1.3693700567126987
-1.4247603061977032
-1.39398794537271
-1.289361918567683
-1.467841611352716
-1.400142417537692
-1.3201342793926762
-1.289361918567683
-1.400142417537692
-1.4863050278477177
-1.3509066402176972
-1.3816790010426905
-1.5601586938277234
-1.4801505556827075
-1.4616871391877062
-1.4186058340326935
-1.363215584547689
-1.4924595000126994
-1.4309147783627132
-1.504768444342719
-1.4986139721777092
-1.4124513618677115
-1.5416952773327224
-1.4555326670226965
-1.39398794537271
-1.3878334732077002
-1.3139798072276945
-1.4124513618677115
-1.437069250527695
-1.4493781948577145
-1.4555326670226965
-1.3816790010426905
-1.4247603061977032
-1.4493781948577145
-1.3693700567126987
-1.3016708628976748
-1.3324432237226955
-1.4309147783627132
-1.3816790010426905
-1.4124513618677115
-1.3816790010426905
-1.3878334732077002
-1.289361918567683
-1.467841611352716
-1.4186058340326935
-1.3509066402176972
-1.3385976958876775
-1.4432237226927047
-1.4863050278477177
-1.2401261412476885
-1.7140204979527456
-1.6340123598077294
-1.0370285598026439
-1.1970448360926755
-1.2401261412476885
-1.2647440299076718
-1.215508252587677
-1.1478090587726528
-1.073955392792647
-1.221662724752659
-1.1601180031026725
-1.221662724752659
-1.1478090587726528
-0.9570204216576284
-1.0554919762976458
-0.9262480608326351
-0.9816383103176396
-1.1478090587726528
-1.0493375041326358
-1.0247196154726523
-0.9816383103176396
-0.9939472546476313
-0.9508659494926462
-0.901630172172624
-0.9139391165026156
-0.9877927824826491
-0.9447114773276367
-0.8400854505226096
-1.221662724752659
-1.215508252587677
-1.2401261412476885
-0.5815976195925888
-1.3755245288776807
-1.5601586938277234
-1.1478090587726528
-1.2401261412476885
-1.215508252587677
-1.1478090587726528
-1.184735891762656
-0.5508252587675677
0.02769512474251612
-1.3693700567126987
-1.5663131659927332
-1.3693700567126987
-1.4247603061977032
-1.4432237226927047
-1.4493781948577145
-2.0217441062027888
-2.1817603824928202
-1.467841611352716
-1.4309147783627132
-1.4062968897027015
-1.473996083517698
-1.5847765824877347
-1.5293863330027024
-1.5601586938277234
-1.8371099412527454
-1.5232318608377204
-1.578622110322725
-1.6401668319727392
-1.5724676381577152
-1.5847765824877347
-1.6463213041377216
-1.6278578876427194
-1.7694107474377496
-1.7447928587777384
-1.7509473309427481
-1.830955469087764
-1.7878741639327511
-1.4124513618677115
-1.7140204979527456
-1.757101803107758
-1.8001831082627426
-1.7324839144477464
-1.7201749701177547
-1.7755652196027594
-1.7755652196027594
-1.7263294422827367
-1.7509473309427481
-1.7817196917677414
-1.818646524757745
-1.9232725515627715
-1.9478904402227823
-1.9848172732127856
-2.0278985783677985
-1.9601993845527748
-1.289361918567683
-2.003280689707787
-2.2802319371328093
-1.9171180793977614
-1.8248009969227534
-1.7817196917677414
-1.7817196917677414
-1.8124920525927626
-1.7817196917677414
-1.855573357747775
-1.677093664962742
-1.7201749701177547
-1.7509473309427481
-1.7078660257877356
-1.7078660257877356
-1.7509473309427481
-1.892500190737778
-2.2925408814628288
-1.5663131659927332
-1.7201749701177547
-1.7632562752727399
-1.5847765824877347
-1.590931054652717
-1.855573357747775
-1.7940286360977609
-2.0955977721827947
-2.0586709391927913
-2.04020752269779
-2.003280689707787
-2.009435161872797
-2.003280689707787
-1.966353856717784
-1.972508328882766
-2.009435161872797
-1.9786628010477763
-1.892500190737778
-1.892500190737778
-1.9417359680577726
-1.7201749701177547
-1.2585895577426898
-1.7140204979527456
-1.9232725515627715
-1.9417359680577726
-1.8863457185727683
-1.9294270237277809
-1.9417359680577726
-1.9355814958927628
-1.9294270237277809
-1.9232725515627715
-1.9478904402227823
-1.89865466290276
-1.954044912387765
-2.255614048472826
-2.618727906207874
-2.070979883522784
-2.003280689707787
-1.972508328882766
-1.9601993845527748
-1.990971745377768
-1.9417359680577726
-1.9355814958927628
-1.966353856717784
-2.015589634037779
-1.892500190737778
-1.9971262175427773
-1.9848172732127856
-1.8001831082627426
-1.89865466290276
-1.9971262175427773
-1.9971262175427773
-1.9417359680577726
-1.9048091350677696
-1.9971262175427773
-2.0217441062027888
-2.009435161872797
-1.4432237226927047
-0.4708171206225797
-2.3971669082678284
-2.0340530505327803
-2.766435238167886
-2.8033620711578893
-2.200223798987821
-1.9232725515627715
-1.849418885582765
-1.9048091350677696
-1.8678823020777668
-1.861727829912757
-1.8063375804277528
-1.8863457185727683
-1.8801912464077586
-1.818646524757745
-1.7632562752727399
-1.7878741639327511
-1.5478497494977315
-1.0678009206276373
-1.2832074464026733
-1.3385976958876775
-1.3016708628976748
-1.3078253350626845
-1.2955163907326928
-1.3509066402176972
-1.4124513618677115
-1.437069250527695
-1.4616871391877062
-1.4863050278477177
-1.4616871391877062
-1.504768444342719
-1.5170773886727107
-1.473996083517698
-1.7078660257877356
-1.5540042216627135
-1.504768444342719
-1.4924595000126994
-1.4863050278477177
-1.4493781948577145
-1.400142417537692
-1.4062968897027015
-1.3570611123826792
-1.25243508557768
-1.3139798072276945
-1.3201342793926762
-1.4247603061977032
-1.1724269474326645
-1.39398794537271
-1.3878334732077002
-1.4062968897027015
-1.3816790010426905
-1.4924595000126994
-1.467841611352716
-1.4924595000126994
-1.5170773886727107
-1.5416952773327224
-1.5601586938277234
-1.4986139721777092
-1.4309147783627132
-1.6647847206327224
-1.7017115536227536
-1.818646524757745
-1.8001831082627426
-2.077134355687793
-1.3509066402176972
-1.5724676381577152
-1.5355408051677124
-1.6278578876427194
-1.5601586938277234
-1.5416952773327224
-1.6586302484677409
-1.677093664962742
-1.6217034154777374
-1.5478497494977315
-1.2647440299076718
-1.5663131659927332
-1.683248137127724
-1.6401668319727392
-1.6463213041377216
-1.677093664962742
-1.6463213041377216
-1.6278578876427194
-1.7201749701177547
-1.757101803107758
-1.7263294422827367
-1.7140204979527456
-1.7940286360977609
-1.7694107474377496
-2.1079067165127863
-1.5663131659927332
-0.12001220721752358
-2.0463619948628
-1.9232725515627715
-1.9171180793977614
-1.9048091350677696
-1.8863457185727683
-1.9048091350677696
-2.3417766587828237
-3.092622262912931
-2.1017522443478045
-1.849418885582765
-1.7940286360977609
-1.7940286360977609
-1.7447928587777384
-1.683248137127724
-1.4863050278477177
-1.5293863330027024
-1.4986139721777092
-1.4986139721777092
-1.5847765824877347
-1.6093944711477182
-1.5970855268177266
-1.5478497494977315
-1.5478497494977315
-1.689402609292734
-1.6401668319727392
-1.5478497494977315
-1.6463213041377216
-1.7017115536227536
-1.6278578876427194
-1.590931054652717
-1.0493375041326358
-0.033849596907498114
-2.0340530505327803
-1.7078660257877356
-1.6955570814577436
-1.6401668319727392
-1.6093944711477182
-1.6955570814577436
-2.187914854657802
-0.9508659494926462
-1.2585895577426898
-1.400142417537692
-1.504768444342719
-1.5416952773327224
-1.5601586938277234
-1.5170773886727107
-1.590931054652717
-1.6524757763027313
-1.6217034154777374
-1.6647847206327224
-1.6401668319727392
-1.6340123598077294
-2.1817603824928202
-2.6987360443528896
-1.9048091350677696
-1.689402609292734
-1.7078660257877356
-1.7017115536227536
-1.615548943312728
-1.590931054652717
-1.6401668319727392
-1.5847765824877347
-1.683248137127724
-1.6463213041377216
-1.6217034154777374
-1.6586302484677409
-1.6463213041377216
-1.8863457185727683
-1.7694107474377496
-1.7140204979527456
-1.7755652196027594
-1.7632562752727399
-1.8248009969227534
-1.8248009969227534
-1.818646524757745
-1.818646524757745
-1.8001831082627426
-1.7694107474377496
-1.8863457185727683
-1.8063375804277528
-1.6586302484677409
-1.9232725515627715
-1.855573357747775
-1.8248009969227534
-1.7632562752727399
-1.677093664962742
-1.8371099412527454
-1.818646524757745
-1.8063375804277528
-1.7632562752727399
-1.7632562752727399
-1.757101803107758
-1.7755652196027594
-1.8740367742427766
-1.861727829912757
-1.3509066402176972
-1.7140204979527456
-1.7140204979527456
-1.677093664962742
-1.6278578876427194
-1.7694107474377496
-1.6955570814577436
-1.757101803107758
-1.6463213041377216
-1.6340123598077294
-1.7263294422827367
-1.7324839144477464
-1.6709391927977324
-1.6278578876427194
-1.855573357747775
-1.7201749701177547
-1.6955570814577436
-1.677093664962742
-1.7263294422827367
-1.6340123598077294
-1.5724676381577152
-1.590931054652717
-1.689402609292734
-1.6586302484677409
-1.689402609292734
-1.683248137127724
-1.578622110322725
-1.4924595000126994
-1.7263294422827367
-1.578622110322725
-1.7078660257877356
-1.6340123598077294
-1.6217034154777374
-1.6524757763027313
-1.6217034154777374
-1.6278578876427194
-1.6217034154777374
-1.6217034154777374
-1.7324839144477464
-1.7201749701177547
-1.6340123598077294
-1.6217034154777374
-1.7755652196027594
-1.7140204979527456
-1.6463213041377216
-1.5847765824877347
-1.7078660257877356
-1.6032399989827366
-1.6278578876427194
-1.6586302484677409
-1.683248137127724
-1.615548943312728
-1.6401668319727392
-1.6586302484677409
-1.590931054652717
-1.6217034154777374
-1.7509473309427481
-1.0801098649576568
-0.09539431855751236
-2.04020752269779
-1.855573357747775
-2.8649067928079033
-2.175605910327811
-1.6709391927977324
-1.6463213041377216
-1.677093664962742
-1.677093664962742
-1.615548943312728
-1.5724676381577152
-1.6955570814577436
-1.7017115536227536
-1.6340123598077294
-1.6401668319727392
-1.6278578876427194
-1.677093664962742
-1.590931054652717
-1.5293863330027024
-1.6586302484677409
-1.6032399989827366
-1.615548943312728
-1.5724676381577152
-1.5847765824877347
-1.6032399989827366
-1.615548943312728
-1.5847765824877347
-1.615548943312728
-1.5847765824877347
-1.615548943312728
-1.6217034154777374
-1.5847765824877347
-1.5724676381577152
-1.6278578876427194
-1.5170773886727107
-1.6463213041377216
-1.590931054652717
-1.5847765824877347
-1.6709391927977324
-1.861727829912757
-1.7263294422827367
-1.683248137127724
-1.5601586938277234
-1.6586302484677409
-1.590931054652717
-1.590931054652717
-1.5970855268177266
-1.6278578876427194
-1.6278578876427194
-1.5601586938277234
-1.5416952773327224
-1.6463213041377216
-1.3201342793926762
-1.2647440299076718
-1.4986139721777092
-1.5601586938277234
-1.6401668319727392
-1.3816790010426905
-1.4186058340326935
-1.4309147783627132
-1.4493781948577145
-1.4863050278477177
-1.6093944711477182
-1.7509473309427481
-1.0985732814526583
-1.4124513618677115
-1.39398794537271
-1.6709391927977324
-1.5847765824877347
-1.5478497494977315
-1.590931054652717
-1.578622110322725
-1.5601586938277234
-1.5478497494977315
-1.6524757763027313
-1.6586302484677409
-1.5970855268177266
-1.5847765824877347
-1.6401668319727392
-1.5970855268177266
-1.4555326670226965
-1.6401668319727392
-1.7017115536227536
-1.5970855268177266
-1.5970855268177266
-1.6032399989827366
-1.5970855268177266
-1.5970855268177266
-1.6401668319727392
-1.578622110322725
-1.6463213041377216
-1.6278578876427194
-1.6463213041377216
-1.6032399989827366
-1.437069250527695
-1.683248137127724
-1.615548943312728
-1.5847765824877347
-1.7017115536227536
-1.6340123598077294
-1.615548943312728
-1.6217034154777374
-1.615548943312728
-1.5355408051677124
-1.510922916507701
-1.510922916507701
-1.677093664962742
-1.5416952773327224
-1.437069250527695
-1.7017115536227536
-1.5847765824877347
-1.578622110322725
-1.5663131659927332
-1.578622110322725
-1.6401668319727392
-1.5663131659927332
-1.5601586938277234
-1.6032399989827366
-1.6032399989827366
-1.6093944711477182
-1.6032399989827366
-1.0431830319676536
-0.02769512474251612
-2.1571424938328088
-1.7386383866127564
-1.6278578876427194
-1.6278578876427194
-1.6647847206327224
-1.4309147783627132
-3.0310775412629165
-2.2740774649678275
-1.6463213041377216
-1.6463213041377216
-1.590931054652717
-1.5293863330027024
-1.5540042216627135
-1.4124513618677115
-1.7447928587777384
-1.6524757763027313
-1.6401668319727392
-1.6093944711477182
-1.677093664962742
-1.7078660257877356
-1.6463213041377216
-1.5847765824877347
-1.7694107474377496
-1.6278578876427194
-1.5601586938277234
-1.615548943312728
-1.578622110322725
-1.5724676381577152
-1.6032399989827366
-1.5540042216627135
-1.6955570814577436
-1.683248137127724
-1.6463213041377216
-1.6340123598077294
-1.6217034154777374
-1.590931054652717
-1.5355408051677124
-0.3846545103125543
-1.8063375804277528
-1.1170366979476598
-1.5724676381577152
-1.6217034154777374
-1.677093664962742
-1.6463213041377216
-1.8001831082627426
-2.871061264972913
-2.2309961598128147
-1.7263294422827367
-1.6401668319727392
-1.6463213041377216
-1.6955570814577436
-1.6217034154777374
-1.5970855268177266
-1.6524757763027313
-1.6463213041377216
-1.8124920525927626
-1.757101803107758
-1.6463213041377216
-1.6709391927977324
-1.6340123598077294
-0.9508659494926462
-1.8124920525927626
-2.04020752269779
-1.6709391927977324
-1.6217034154777374
-1.6524757763027313
-1.6586302484677409
-1.6463213041377216
-1.4863050278477177
-1.4555326670226965
-1.5540042216627135
-1.5170773886727107
-1.5355408051677124
-1.6586302484677409
-1.590931054652717
-1.6217034154777374
-1.5724676381577152
-1.689402609292734
-1.683248137127724
-1.683248137127724
-1.689402609292734
-1.6340123598077294
-1.6524757763027313
-2.04020752269779
-1.7263294422827367
-1.7940286360977609
-1.7386383866127564
-1.7263294422827367
-1.7078660257877356
-1.7017115536227536
-1.7017115536227536
-1.6586302484677409
-1.6032399989827366
-1.757101803107758
-1.689402609292734
-1.6709391927977324
-1.3816790010426905
-1.3816790010426905
-1.6524757763027313
-1.6463213041377216
-1.9786628010477763
-1.4247603061977032
-1.4432237226927047
-1.6340123598077294
-1.578622110322725
-1.5232318608377204
-1.578622110322725
-1.4924595000126994
-1.5232318608377204
-1.5663131659927332
-1.4432237226927047
-1.6709391927977324
-1.5970855268177266
-1.4924595000126994
-1.473996083517698
-1.590931054652717
-1.5170773886727107
-1.510922916507701
-1.510922916507701
-1.5170773886727107
-0.9570204216576284
0.06462195773251911
-1.91096360723278
-2.1017522443478045
-2.6064189618778553
-1.9355814958927628
-1.6463213041377216
-1.5847765824877347
-1.5170773886727107
-1.4924595000126994
-1.5170773886727107
-1.4555326670226965
-1.5601586938277234
-1.5724676381577152
-1.590931054652717
-1.5478497494977315
-1.5478497494977315
-1.5663131659927332
-1.4124513618677115
-1.5663131659927332
-1.6586302484677409
-1.5847765824877347
-1.6093944711477182
-1.5970855268177266
-1.5540042216627135
-1.6093944711477182
-1.5847765824877347
-1.4616871391877062
-1.5540042216627135
-1.5355408051677124
-1.5170773886727107
-1.5355408051677124
-1.467841611352716
-1.6340123598077294
-1.5847765824877347
-1.5540042216627135
-1.6032399989827366
-1.5293863330027024
-1.5478497494977315
-1.5601586938277234
-1.5847765824877347
-1.5847765824877347
-1.510922916507701
-1.5293863330027024
-1.5724676381577152
-1.4801505556827075
-1.510922916507701
-1.7140204979527456
-1.578622110322725
-1.5293863330027024
-1.5601586938277234
-1.5416952773327224
-1.510922916507701
-1.4986139721777092
-1.504768444342719
-1.4801505556827075
-1.5170773886727107
-1.5293863330027024
-1.5416952773327224
-1.578622110322725
-1.4124513618677115
-1.6278578876427194
-1.5970855268177266
-1.7201749701177547
-1.830955469087764
-1.1601180031026725
-1.4986139721777092
-1.578622110322725
-1.504768444342719
-1.5478497494977315
-1.5970855268177266
-1.4432237226927047
-1.5416952773327224
-1.4432237226927047
-1.11088222578265
-1.4986139721777092
-1.5293863330027024
-1.4924595000126994
-1.5232318608377204
-1.5170773886727107
-1.510922916507701
-1.473996083517698
-1.467841611352716
-1.6093944711477182
-1.5416952773327224
-1.5170773886727107
-1.5355408051677124
-1.578622110322725
-1.8432644134177558
-1.6463213041377216
-1.5232318608377204
-1.4986139721777092
-1.5170773886727107
-1.5724676381577152
-1.5416952773327224
-1.5355408051677124
-1.5724676381577152
-1.5293863330027024
-1.5232318608377204
-1.5540042216627135
-1.5416952773327224
-1.5293863330027024
-1.467841611352716
-1.473996083517698
-1.4924595000126994
-1.5232318608377204
-1.5293863330027024
-1.5478497494977315
-1.5232318608377204
-1.578622110322725
-1.5663131659927332
-1.5293863330027024
-1.578622110322725
-1.504768444342719
-1.5478497494977315
-1.5293863330027024
-1.8740367742427766
-1.7140204979527456
-1.5847765824877347
-1.5416952773327224
-1.4986139721777092
-1.4863050278477177
-1.0062561989776508
0.15078456804251686
-1.9171180793977614
-1.615548943312728
-1.5601586938277234
-1.6032399989827366
-1.6647847206327224
-1.9417359680577726
-1.4186058340326935
-1.4986139721777092
-1.5540042216627135
-1.5724676381577152
-1.5724676381577152
-1.5293863330027024
-1.4801505556827075
-1.4309147783627132
-1.6032399989827366
-1.5540042216627135
-1.5540042216627135
-1.5601586938277234
-1.5540042216627135
-2.015589634037779
-2.477175046412844
-1.7201749701177547
-1.6401668319727392
-1.615548943312728
-1.5293863330027024
-1.5540042216627135
-1.5478497494977315
-1.5663131659927332
-1.5724676381577152
-1.578622110322725
-1.6278578876427194
-1.5601586938277234
-1.510922916507701
-1.4186058340326935
-1.6217034154777374
-1.5478497494977315
-1.5847765824877347
-1.5478497494977315
-1.5170773886727107
-1.5724676381577152
-1.5170773886727107
-1.4863050278477177
-1.5601586938277234
-1.5970855268177266
-1.4801505556827075
-1.590931054652717
-1.5355408051677124
-1.363215584547689
-1.5847765824877347
-1.590931054652717
-1.5293863330027024
-1.4924595000126994
-1.4616871391877062
-1.5293863330027024
-1.5293863330027024
-1.5478497494977315
-1.510922916507701
-1.4801505556827075
-1.4801505556827075
-1.5601586938277234
-1.4309147783627132
-1.510922916507701
-1.972508328882766
-1.184735891762656
-1.4247603061977032
-1.4924595000126994
-1.4863050278477177
-1.4986139721777092
-1.4986139721777092
-1.5293863330027024
-1.504768444342719
-1.5355408051677124
-1.5847765824877347
-1.6340123598077294
-1.5232318608377204
-1.400142417537692
-1.6955570814577436
-1.677093664962742
-1.6093944711477182
-1.5847765824877347
-1.615548943312728
-1.6032399989827366
-1.578622110322725
-1.5970855268177266
-1.6093944711477182
-1.6032399989827366
-1.5847765824877347
-1.5724676381577152
-1.4493781948577145
-1.437069250527695
-1.6340123598077294
-1.5232318608377204
-1.6093944711477182
-1.5293863330027024
-1.5232318608377204
-1.5540042216627135
-1.5355408051677124
-1.5416952773327224
-1.5170773886727107
-1.504768444342719
-1.6340123598077294
-1.5416952773327224
-1.4863050278477177
-1.39398794537271
-1.5724676381577152
-1.5478497494977315
-1.5170773886727107
-0.7108415350575992
-0.538516314437576
-1.4309147783627132
-1.4924595000126994
-1.5232318608377204
-1.504768444342719
-1.504768444342719
-1.5416952773327224
-2.304849825792821
-2.4402482134228407
-1.757101803107758
-1.7755652196027594
-1.5170773886727107
-0.9693293659876481
-0.3108008443325483
-1.4986139721777092
-2.4156303247628297
-2.335622186617841
-1.590931054652717
-1.5293863330027024
-1.4924595000126994
-1.5232318608377204
-1.5293863330027024
-1.363215584547689
-1.1908903639276658
-1.5170773886727107
-1.4432237226927047
-1.4309147783627132
-1.4924595000126994
-1.4309147783627132
-1.437069250527695
-1.4863050278477177
-1.4616871391877062
-1.473996083517698
-1.4493781948577145
-1.4801505556827075
-1.5355408051677124
-1.3816790010426905
-1.4124513618677115
-1.473996083517698
-1.4186058340326935
-1.4616871391877062
-1.4801505556827075
-1.4863050278477177
-1.467841611352716
-1.4247603061977032
-1.4309147783627132
-1.4432237226927047
-1.4555326670226965
-1.467841611352716
-1.5416952773327224
-1.5540042216627135
-1.8248009969227534
-1.578622110322725
-1.5601586938277234
-1.4863050278477177
-1.5724676381577152
-1.5416952773327224
-1.5355408051677124
-1.5540042216627135
-1.6217034154777374
-1.5416952773327224
-1.510922916507701
-1.4493781948577145
-1.5601586938277234
-1.3078253350626845
-1.3201342793926762
-1.5478497494977315
-1.5355408051677124
-1.4863050278477177
-1.510922916507701
-1.504768444342719
-1.5416952773327224
-1.4432237226927047
-1.4863050278477177
-1.5355408051677124
-1.6278578876427194
-1.7940286360977609
-1.1601180031026725
-1.2647440299076718
-1.5724676381577152
-1.5724676381577152
-1.504768444342719
-1.4247603061977032
-1.437069250527695
-1.5170773886727107
-1.437069250527695
-1.4801505556827075
-1.510922916507701
-1.4924595000126994
-1.4493781948577145
-1.5355408051677124
-1.5724676381577152
-1.3878334732077002
-1.6586302484677409
-1.4986139721777092
-1.4986139721777092
-1.5724676381577152
-1.677093664962742
-1.6340123598077294
-1.5478497494977315
-1.578622110322725
-1.5847765824877347
-1.615548943312728
-1.6401668319727392
-1.6586302484677409
-1.5416952773327224
-1.5355408051677124
-1.689402609292734
-1.5847765824877347
-1.6278578876427194
-1.7940286360977609
-1.7509473309427481
-1.7017115536227536
-1.6463213041377216
-1.7017115536227536
-1.7386383866127564
-1.8063375804277528
-1.7694107474377496
-1.9417359680577726
-1.8432644134177558
-1.689402609292734
-1.89865466290276
-1.830955469087764
-1.7878741639327511
-1.7817196917677414
-1.7386383866127564
-1.855573357747775
-1.7632562752727399
-1.7817196917677414
-1.8124920525927626
-1.7694107474377496
-1.7632562752727399
-1.7263294422827367
-1.6093944711477182
-1.184735891762656
-0.5939065639225805
-1.7078660257877356
-1.6463213041377216
-1.7386383866127564
-1.7447928587777384
-1.861727829912757
-2.858752320642893
-2.2802319371328093
-1.7817196917677414
-1.7447928587777384
-1.7140204979527456
-1.7140204979527456
-1.689402609292734
-1.6340123598077294
-1.8124920525927626
-1.7140204979527456
-1.6586302484677409
-1.6401668319727392
-1.6586302484677409
-1.6955570814577436
-1.683248137127724
-1.0062561989776508
-1.8863457185727683
-2.1263701330077875
-1.7386383866127564
-1.6955570814577436
-1.6401668319727392
-1.6647847206327224
-1.8001831082627426
-1.6032399989827366
-1.7201749701177547
-1.689402609292734
-1.677093664962742
-1.6709391927977324
-1.7017115536227536
-1.615548943312728
-1.6217034154777374
-1.510922916507701
-1.7447928587777384
-1.7386383866127564
-1.6093944711477182
-1.6093944711477182
-1.683248137127724
-1.677093664962742
-1.7201749701177547
-1.683248137127724
-1.8001831082627426
-1.7263294422827367
-1.7017115536227536
-1.7386383866127564
-1.7694107474377496
-1.7201749701177547
-1.7509473309427481
-1.7201749701177547
-1.7140204979527456
-1.7509473309427481
-1.7509473309427481
-1.7201749701177547
-1.7324839144477464
-1.7140204979527456
-1.6709391927977324
-1.6524757763027313
-1.9355814958927628
-1.966353856717784
-1.2955163907326928
-1.6093944711477182
-1.6401668319727392
-1.677093664962742
-1.5478497494977315
-1.6217034154777374
-1.683248137127724
-1.6709391927977324
-1.6647847206327224
-1.590931054652717
-1.5601586938277234
-1.6093944711477182
-1.6463213041377216
-1.5663131659927332
-1.5724676381577152
-1.6278578876427194
-1.5663131659927332
-1.5355408051677124
-1.4801505556827075
-1.5663131659927332
-1.4924595000126994
-1.578622110322725
-1.4986139721777092
-1.5416952773327224
-1.5601586938277234
-1.5416952773327224
-1.5663131659927332
-1.5355408051677124
-1.510922916507701
-1.6401668319727392
-1.5540042216627135
-1.5355408051677124
-1.4616871391877062
-1.578622110322725
-1.5847765824877347
-1.5970855268177266
-1.4801505556827075
-1.6093944711477182
-1.590931054652717
-1.5478497494977315
-1.6093944711477182
-1.5970855268177266
-1.6032399989827366
-1.5970855268177266
-1.5601586938277234
-1.6340123598077294
-1.5170773886727107
-1.7078660257877356
-1.5601586938277234
-1.5478497494977315
-1.5170773886727107
-1.3878334732077002
-1.3693700567126987
-1.4616871391877062
-1.3570611123826792
-1.2401261412476885
-1.104727753617668
-0.5262073701075842
0.396963454642546
-1.9417359680577726
-2.600264489712873
-2.0340530505327803
-1.6278578876427194
-1.683248137127724
-1.689402609292734
-1.6586302484677409
-1.6340123598077294
-1.7017115536227536
-1.6340123598077294
-1.6093944711477182
-1.5724676381577152
-1.510922916507701
-1.578622110322725
-1.4986139721777092
-1.289361918567683
-1.5601586938277234
-1.578622110322725
-1.510922916507701
-1.4309147783627132
-1.4555326670226965
-1.4801505556827075
-1.4432237226927047
-1.4493781948577145
-1.3878334732077002
-1.4986139721777092
-1.4124513618677115
-1.4616871391877062
-1.467841611352716
-1.3016708628976748
-1.4986139721777092
-1.3755245288776807
-1.3201342793926762
-1.39398794537271
-1.3509066402176972
-1.3878334732077002
-1.3816790010426905
-1.4062968897027015
-1.3693700567126987
-1.2955163907326928
-1.25243508557768
-1.3447521680526875
-1.2093537804226673
-1.3570611123826792
-1.5170773886727107
-1.3078253350626845
-1.4062968897027015
-1.39398794537271
-1.3016708628976748
-1.3447521680526875
-1.2770529742376913
-1.1539635309376628
-1.3447521680526875
-1.4247603061977032
-1.4124513618677115
-1.073955392792647
-0.427735815467567
-1.818646524757745
-1.2770529742376913
-1.3693700567126987
-1.363215584547689
-1.3816790010426905
-1.5293863330027024
-1.7386383866127564
-2.3848579639378364
-1.6278578876427194
-1.39398794537271
-1.4924595000126994
-1.4555326670226965
-1.4555326670226965
-1.39398794537271
-1.3755245288776807
-1.6524757763027313
-1.578622110322725
-1.6093944711477182
-1.504768444342719
-1.400142417537692
-1.4616871391877062
-1.5232318608377204
-1.5724676381577152
-1.6093944711477182
-1.5170773886727107
-1.510922916507701
-1.5170773886727107
-1.4555326670226965
-1.4863050278477177
-1.5293863330027024
-1.4124513618677115
-1.6278578876427194
-1.5663131659927332
-1.615548943312728
-1.4555326670226965
-1.5355408051677124
-1.5601586938277234
-1.504768444342719
-1.4924595000126994
-1.5355408051677124
-1.5232318608377204
-1.3878334732077002
-1.3816790010426905
-1.504768444342719
-1.39398794537271
-1.4062968897027015
-1.473996083517698
-1.5478497494977315
-1.5416952773327224
-1.5601586938277234
-1.5847765824877347
-1.5293863330027024
-1.5540042216627135
-1.437069250527695
-1.3755245288776807
-1.1908903639276658
-0.8523943948526291
-1.3755245288776807
-1.4432237226927047
-1.467841611352716
-1.4616871391877062
-1.5478497494977315
-1.91096360723278
-0.6246789247476012
0.2738740113425453
-1.7817196917677414
-1.5416952773327224
-1.473996083517698
-1.4309147783627132
-1.9171180793977614
-2.7910531268278973
-1.590931054652717
-1.363215584547689
-1.39398794537271
-1.3816790010426905
-1.3693700567126987
-1.3878334732077002
-1.3201342793926762
-1.400142417537692
-1.3509066402176972
-1.2770529742376913
-1.1970448360926755
-1.178581419597674
-1.2339716690826785
-1.467841611352716
-1.2031993082576575
-1.3385976958876775
-1.3570611123826792
-1.3385976958876775
-1.326288751557686
-1.2708985020726815
-1.1539635309376628
-1.2093537804226673
-1.184735891762656
-1.3201342793926762
-1.3078253350626845
-1.2585895577426898
-1.141654586607671
-1.289361918567683
-1.3324432237226955
-1.3693700567126987
-1.400142417537692
-1.4493781948577145
-1.3693700567126987
-1.2401261412476885
-1.3201342793926762
-1.4309147783627132
-1.5293863330027024
-1.467841611352716
-1.4124513618677115
-1.4062968897027015
-1.3509066402176972
-1.5724676381577152
-1.4432237226927047
-1.4493781948577145
-1.400142417537692
-1.4062968897027015
-1.4124513618677115
-1.3201342793926762
-1.289361918567683
-1.3816790010426905
-1.4555326670226965
-1.3570611123826792
-1.400142417537692
-1.3385976958876775
-1.39398794537271
-1.8740367742427766
-2.015589634037779
-1.3570611123826792
-1.5663131659927332
-1.467841611352716
-1.437069250527695
-1.437069250527695
-1.6032399989827366
-1.5170773886727107
-1.5170773886727107
-1.4986139721777092
-1.5170773886727107
-1.4493781948577145
-1.4309147783627132
-1.615548943312728
-1.5847765824877347
-1.5478497494977315
-1.5293863330027024
-1.4863050278477177
-1.5232318608377204
-1.615548943312728
-1.590931054652717
-1.467841611352716
-1.5540042216627135
-1.5478497494977315
-1.5663131659927332
-1.504768444342719
-1.4432237226927047
-1.7078660257877356
-1.5724676381577152
-1.5293863330027024
-1.578622110322725
-1.590931054652717
-1.6217034154777374
-1.6709391927977324
-1.6217034154777374
-1.5355408051677124
-1.5540042216627135
-1.5540042216627135
-1.615548943312728
-1.4986139721777092
-1.363215584547689
-1.6463213041377216
-1.6032399989827366
-1.5663131659927332
-1.5663131659927332
-1.6278578876427194
-1.6278578876427194
-1.5478497494977315
-1.578622110322725
-1.5478497494977315
-1.5663131659927332
-1.615548943312728
-1.6401668319727392
-1.6647847206327224
-1.7201749701177547
-1.7632562752727399
-1.7201749701177547
-1.6647847206327224
-1.104727753617668
-0.11385773505251384
-2.649500267032867
-2.8464433763129016
-1.8863457185727683
-1.7509473309427481
-1.689402609292734
-1.6955570814577436
-1.7632562752727399
-1.677093664962742
-1.5724676381577152
-1.8432644134177558
-1.7755652196027594
-1.7447928587777384
-1.757101803107758
-1.7324839144477464
-1.757101803107758
-1.7078660257877356
-1.6278578876427194
-1.7940286360977609
-1.7632562752727399
-1.7940286360977609
-1.818646524757745
-1.6709391927977324
-1.6401668319727392
-1.7632562752727399
-1.757101803107758
-1.8863457185727683
-1.818646524757745
-1.7817196917677414
-1.8801912464077586
-1.8801912464077586
-1.8801912464077586
-1.8432644134177558
-1.8678823020777668
-1.9417359680577726
-1.9478904402227823
-2.0278985783677985
-2.471020574247862
-2.089443300017785
-1.9232725515627715
-1.9601993845527748
-1.954044912387765
-1.954044912387765
-1.9294270237277809
-1.8678823020777668
-1.89865466290276
-1.966353856717784
-1.9294270237277809
-1.8740367742427766
-1.966353856717784
-1.7201749701177547
-1.677093664962742
-1.892500190737778
-1.8863457185727683
-1.892500190737778
-1.91096360723278
-1.8740367742427766
-1.966353856717784
-1.9355814958927628
-1.9478904402227823
-1.9417359680577726
-1.9478904402227823
-2.138679077337807
-2.298695353627811
-1.4555326670226965
-1.990971745377768
-1.9786628010477763
-1.9601993845527748
-1.9417359680577726
-1.91096360723278
-1.9171180793977614
-1.892500190737778
-1.7632562752727399
-2.0217441062027888
-1.954044912387765
-1.892500190737778
-1.9971262175427773
-1.990971745377768
-1.7878741639327511
-2.064825411357801
-1.9232725515627715
-1.9786628010477763
-2.015589634037779
-1.954044912387765
-1.954044912387765
-2.009435161872797
-2.009435161872797
-2.0340530505327803
-1.966353856717784
-2.0586709391927913
-2.04020752269779
-1.954044912387765
-1.8740367742427766
-2.138679077337807
-1.9848172732127856
-1.972508328882766
-2.003280689707787
-1.990971745377768
-1.954044912387765
-1.9848172732127856
-1.9971262175427773
-1.966353856717784
-2.04020752269779
-1.504768444342719
-2.138679077337807
-2.3971669082678284
-1.89865466290276
-2.138679077337807
-2.077134355687793
-2.052516467027782
-2.0463619948628
-1.9601993845527748
-2.1017522443478045
-2.052516467027782
-1.9848172732127856
-1.9601993845527748
-2.009435161872797
-1.990971745377768
-1.9478904402227823
-1.849418885582765
-1.8678823020777668
-1.5416952773327224
-0.7293049515526008
-1.892500190737778
-1.8678823020777668
-1.9294270237277809
-1.9786628010477763
-1.6647847206327224
-2.9202970422929075
-1.8371099412527454
-1.89865466290276
-1.990971745377768
-2.003280689707787
-2.003280689707787
-2.0463619948628
-3.2095572340479768
-2.766435238167886
-2.114061188677796
-2.003280689707787
-2.003280689707787
-1.9971262175427773
-1.9848172732127856
-2.003280689707787
-1.972508328882766
-2.04020752269779
-2.003280689707787
-1.9971262175427773
-1.9601993845527748
-1.9971262175427773
-2.1079067165127863
-1.9417359680577726
-1.9478904402227823
-1.9971262175427773
-1.9355814958927628
-1.9601993845527748
-1.9601993845527748
-1.954044912387765
-1.9232725515627715
-2.0463619948628
-2.0340530505327803
-1.966353856717784
-1.9478904402227823
-1.966353856717784
-2.052516467027782
-2.003280689707787
-2.009435161872797
-1.990971745377768
-2.04020752269779
-2.015589634037779
-2.0586709391927913
-2.0278985783677985
-2.009435161872797
-2.04020752269779
-1.9786628010477763
-1.990971745377768
-1.8740367742427766
-1.1170366979476598
-1.7940286360977609
-1.990971745377768
-2.003280689707787
-2.0340530505327803
-2.0278985783677985
-1.9971262175427773
-2.120215660842805
-2.1017522443478045
-2.077134355687793
-2.052516467027782
-2.077134355687793
-2.052516467027782
-2.3110042979578305
-2.9572238752829105
-2.1448335495027893
-1.9355814958927628
-2.150988021667799
-2.1079067165127863
-2.0955977721827947
-2.0463619948628
-2.0586709391927913
-2.1079067165127863
-2.187914854657802
-2.070979883522784
-2.070979883522784
-2.1448335495027893
-2.1817603824928202
-2.4217847969278394
-2.1571424938328088
-2.1017522443478045
-2.1632969659978185
-2.120215660842805
-2.0955977721827947
-2.083288827852803
-2.1263701330077875
-2.1263701330077875
-2.070979883522784
-2.0586709391927913
-2.0586709391927913
-2.120215660842805
-1.966353856717784
-2.120215660842805
-2.1263701330077875
-2.120215660842805
-2.0586709391927913
-2.1448335495027893
-2.089443300017785
-2.052516467027782
-2.114061188677796
-2.1079067165127863
-2.0586709391927913
-2.070979883522784
-2.1017522443478045
-2.150988021667799
-2.009435161872797
-2.212532743317813
-2.1263701330077875
-2.114061188677796
-2.114061188677796
-2.1079067165127863
-2.015589634037779
-2.1571424938328088
-2.120215660842805
-2.120215660842805
-2.0955977721827947
-2.1017522443478045
-1.6217034154777374
-0.901630172172624
-2.9633783474479203
-2.9387604587879093
-2.212532743317813
-2.083288827852803
-2.120215660842805
-2.083288827852803
-2.0586709391927913
-2.070979883522784
-2.0217441062027888
-2.0955977721827947
-2.0955977721827947
-2.070979883522784
-2.064825411357801
-1.9971262175427773
-1.9232725515627715
-2.200223798987821
-2.04020752269779
-2.1017522443478045
-2.064825411357801
-2.015589634037779
-2.0463619948628
-2.052516467027782
-2.003280689707787
-1.966353856717784
-1.972508328882766
-2.003280689707787
-1.972508328882766
-1.8801912464077586
-1.8801912464077586
-2.0340530505327803
-1.91096360723278
-1.849418885582765
-1.9848172732127856
-1.9478904402227823
-1.9171180793977614
-1.9417359680577726
-1.9601993845527748
-1.892500190737778
-1.9294270237277809
-1.8432644134177558
-1.9232725515627715
-1.8678823020777668
-1.7386383866127564
-2.003280689707787
-1.9048091350677696
-1.8863457185727683
-1.8863457185727683
-1.861727829912757
-1.9294270237277809
-1.89865466290276
-1.855573357747775
-1.89865466290276
-1.892500190737778
-1.818646524757745
-1.818646524757745
-1.7940286360977609
-1.8124920525927626
-2.0278985783677985
-1.8740367742427766
-1.8432644134177558
-1.892500190737778
-2.089443300017785
-2.150988021667799
-1.5416952773327224
-2.015589634037779
-1.9294270237277809
-1.9417359680577726
-1.990971745377768
-1.9971262175427773
-1.8801912464077586
-1.9048091350677696
-1.990971745377768
-1.990971745377768
-1.8801912464077586
-1.9171180793977614
-1.9601993845527748
-1.892500190737778
-1.91096360723278
-1.954044912387765
-1.9355814958927628
-1.9232725515627715
-1.9232725515627715
-1.861727829912757
-1.8001831082627426
-1.7509473309427481
-1.8248009969227534
-1.8248009969227534
-1.9971262175427773
-1.9048091350677696
-1.8740367742427766
-1.8371099412527454
-1.8371099412527454
-1.830955469087764
-1.8001831082627426
-1.7694107474377496
-1.8740367742427766
-1.8371099412527454
-1.818646524757745
-2.224841687647805
-2.0586709391927913
-1.9355814958927628
-1.9601993845527748
-1.8801912464077586
-1.972508328882766
-1.9417359680577726
-1.8678823020777668
-1.818646524757745
-1.849418885582765
-1.8678823020777668
-1.8678823020777668
-1.8801912464077586
-1.3324432237226955
-0.7108415350575992
-1.677093664962742
-1.9478904402227823
-1.855573357747775
-1.9232725515627715
-1.9601993845527748
-1.9355814958927628
-2.120215660842805
-1.5232318608377204
-0.7785407288726233
-2.015589634037779
-1.9971262175427773
-2.0586709391927913
-2.8279799598179
-4.391215889728128
-2.8341344319829105
-2.2679229928028177
-2.2309961598128147
-2.2063782711528033
-2.2186872154828228
-2.298695353627811
-2.335622186617841
-2.360240075277825
-2.4587116299178424
-2.501792935072855
-2.526410823732866
-2.471020574247862
-2.2740774649678275
-2.403321380432838
-2.378703491772827
-2.477175046412844
-2.3971669082678284
-2.378703491772827
-2.4217847969278394
-2.391012436102846
-2.446402685587851
-2.434093741257831
-2.2371506319778245
-2.2802319371328093
-2.3171587701228398
-2.2925408814628288
-2.1571424938328088
-2.378703491772827
-2.304849825792821
-2.2679229928028177
-2.187914854657802
-2.347931130947833
-2.194069326822812
-2.2186872154828228
-2.175605910327811
-2.1817603824928202
-2.1817603824928202
-2.1263701330077875
-2.175605910327811
-2.224841687647805
-2.0278985783677985
-2.286386409297819
-2.200223798987821
-2.1632969659978185
-2.200223798987821
-2.2309961598128147
-2.261768520637808
-2.2925408814628288
-2.3233132422878215
-2.304849825792821
-2.2679229928028177
-2.3110042979578305
-2.3540856031128428
-2.200223798987821
-2.1817603824928202
-2.477175046412844
-2.4279392690928487
-2.581801073217871
-1.892500190737778
-2.138679077337807
-2.1694514381628007
-2.1017522443478045
-2.1263701330077875
-2.1571424938328088
-2.1079067165127863
-2.052516467027782
-2.0955977721827947
-2.0217441062027888
-1.9048091350677696
-1.510922916507701
-0.9077846443376336
-1.91096360723278
-1.9355814958927628
-2.0217441062027888
-2.0340530505327803
-1.9848172732127856
-1.990971745377768
-2.507947407237865
-2.994150708272913
-2.077134355687793
-1.9232725515627715
-1.7755652196027594
-1.7140204979527456
-1.9417359680577726
-1.9294270237277809
-1.8248009969227534
-2.083288827852803
-2.009435161872797
-2.015589634037779
-2.052516467027782
-2.0217441062027888
-2.0463619948628
-2.04020752269779
-2.0278985783677985
-2.175605910327811
-2.009435161872797
-2.003280689707787
-2.1694514381628007
-2.083288827852803
-2.0955977721827947
-2.1079067165127863
-2.009435161872797
-2.083288827852803
-2.1079067165127863
-2.083288827852803
-2.009435161872797
-1.9417359680577726
-1.9048091350677696
-1.9232725515627715
-1.89865466290276
-1.9171180793977614
-1.89865466290276
-1.9417359680577726
-1.9417359680577726
-1.89865466290276
-1.3139798072276945
-0.5692886752625692
-3.468045064977998
-2.4402482134228407
-1.9786628010477763
-1.954044912387765
-1.8863457185727683
-1.9048091350677696
-1.89865466290276
-1.892500190737778
-1.91096360723278
-1.8801912464077586
-1.8863457185727683
-1.830955469087764
-1.7632562752727399
-1.8124920525927626
-1.8001831082627426
-1.7324839144477464
-1.855573357747775
-1.7509473309427481
-1.7386383866127564
-1.818646524757745
-1.8001831082627426
-1.9232725515627715
-1.8124920525927626
-1.7017115536227536
-1.849418885582765
-1.8001831082627426
-1.8124920525927626
-1.830955469087764
-1.757101803107758
-1.7632562752727399
-1.7940286360977609
-1.7509473309427481
-1.8740367742427766
-1.8678823020777668
-1.7386383866127564
-1.8432644134177558
-1.8863457185727683
-1.8740367742427766
-1.861727829912757
-1.8371099412527454
-1.9048091350677696
-1.9048091350677696
-1.9048091350677696
-1.9417359680577726
-1.89865466290276
-1.8371099412527454
-1.849418885582765
-1.8863457185727683
-1.818646524757745
-1.9232725515627715
-1.8678823020777668
-1.8678823020777668
-1.8678823020777668
-1.855573357747775
-1.8001831082627426
-1.855573357747775
-1.892500190737778
-1.8432644134177558
-1.855573357747775
-1.91096360723278
-1.9232725515627715
-2.0217441062027888
-1.4309147783627132
-1.757101803107758
-2.2802319371328093
-1.8863457185727683
-1.8863457185727683
-1.8678823020777668
-1.8678823020777668
-1.830955469087764
-1.7201749701177547
-1.9417359680577726
-1.8678823020777668
-1.849418885582765
-1.8740367742427766
-1.7878741639327511
-1.677093664962742
-1.9294270237277809
-1.818646524757745
-1.89865466290276
-1.8124920525927626
-1.849418885582765
-1.8248009969227534
-1.8063375804277528
-1.7878741639327511
-1.7940286360977609
-1.7878741639327511
-1.8124920525927626
-1.8001831082627426
-1.7324839144477464
-1.6278578876427194
-1.8740367742427766
-1.8124920525927626
-1.757101803107758
-1.6401668319727392
-1.7324839144477464
-1.6955570814577436
-1.683248137127724
-1.7201749701177547
-1.7324839144477464
-1.7324839144477464
-1.7201749701177547
-1.757101803107758
-1.7386383866127564
-1.5601586938277234
-1.689402609292734
-1.6709391927977324
-1.6647847206327224
-1.6463213041377216
-1.6401668319727392
-1.6647847206327224
-1.757101803107758
-1.7078660257877356
-1.689402609292734
-1.6955570814577436
-1.7201749701177547
-1.7817196917677414
-1.7447928587777384
-1.7324839144477464
-1.861727829912757
-1.2401261412476885
-0.2369471783525424
-2.138679077337807
-1.8432644134177558
-1.8001831082627426
-2.2433051041428067
-2.858752320642893
-1.9232725515627715
-1.5847765824877347
-1.615548943312728
-1.6709391927977324
-1.6278578876427194
-1.689402609292734
-1.7017115536227536
-1.7817196917677414
-1.7324839144477464
-1.7140204979527456
-1.7263294422827367
-1.6955570814577436
-1.7263294422827367
-1.7078660257877356
-1.689402609292734
-1.8124920525927626
-1.6955570814577436
-1.7078660257877356
-1.7201749701177547
-1.8124920525927626
-1.7694107474377496
-1.7078660257877356
-1.6709391927977324
-1.7140204979527456
-1.7324839144477464
-1.7324839144477464
-1.6955570814577436
-1.7017115536227536
-1.6955570814577436
-1.677093664962742
-1.7140204979527456
-1.7263294422827367
-1.4924595000126994
-1.2093537804226673
-1.6463213041377216
-1.6401668319727392
-1.6401668319727392
-1.6401668319727392
-1.7201749701177547
-1.7755652196027594
-1.7140204979527456
-1.6586302484677409
-1.6955570814577436
-1.7201749701177547
-1.7140204979527456
-1.7324839144477464
-1.7447928587777384
-2.212532743317813
-1.892500190737778
-1.7140204979527456
-1.7140204979527456
-1.7140204979527456
-1.689402609292734
-1.5355408051677124
-1.6709391927977324
-1.677093664962742
-1.8432644134177558
-2.0340530505327803
-1.3570611123826792
-1.6463213041377216
-1.104727753617668
-0.433890287632549
-1.4493781948577145
-1.6463213041377216
-1.683248137127724
-1.689402609292734
-1.6955570814577436
-1.7017115536227536
-1.683248137127724
-1.6401668319727392
-1.7386383866127564
-1.7447928587777384
-1.7694107474377496
-1.7324839144477464
-2.2925408814628288
-2.6618092113628857
-1.861727829912757
-1.7447928587777384
-1.8001831082627426
-1.7447928587777384
-1.7447928587777384
-1.7817196917677414
-1.7878741639327511
-1.7940286360977609
-1.7755652196027594
-1.7078660257877356
-1.7878741639327511
-1.7509473309427481
-1.6709391927977324
-1.9294270237277809
-1.849418885582765
-1.7509473309427481
-1.7324839144477464
-1.7263294422827367
-1.7632562752727399
-1.7755652196027594
-1.7817196917677414
-1.8371099412527454
-1.8371099412527454
-1.7509473309427481
-1.7755652196027594
-1.7694107474377496
-1.578622110322725
-1.7878741639327511
-1.7940286360977609
-1.7755652196027594
-1.818646524757745
-1.7940286360977609
-1.757101803107758
-1.9048091350677696
-1.8001831082627426
-1.7817196917677414
-1.818646524757745
-1.7940286360977609
-1.8371099412527454
-1.2647440299076718
-0.5077439536125827
-2.5387197680628573
-1.990971745377768
-1.861727829912757
-1.849418885582765
-1.8801912464077586
-1.9048091350677696
-1.8863457185727683
-2.674118155692878
-2.754126293837894
-1.91096360723278
-1.8432644134177558
-1.849418885582765
-1.8124920525927626
-1.3878334732077002
-1.6340123598077294
-1.7447928587777384
-1.830955469087764
-1.8001831082627426
-1.8678823020777668
-1.8124920525927626
-1.7632562752727399
-1.7817196917677414
-1.5970855268177266
-0.5446707866025856
-1.990971745377768
-1.3385976958876775
-1.7386383866127564
-1.7817196917677414
-1.9232725515627715
-1.7017115536227536
-1.8248009969227534
-2.8341344319829105
-2.064825411357801
-1.6709391927977324
-1.6217034154777374
-1.578622110322725
-1.6340123598077294
-1.6032399989827366
-1.5970855268177266
-1.6093944711477182
-1.5540042216627135
-1.510922916507701
-1.6709391927977324
-1.6278578876427194
-1.5847765824877347
-1.6093944711477182
-1.5847765824877347
-1.6463213041377216
-1.5970855268177266
-1.6524757763027313
-1.6463213041377216
-1.6401668319727392
-1.6709391927977324
-1.677093664962742
-1.5478497494977315
-1.6463213041377216
-1.7694107474377496
-1.6955570814577436
-1.6647847206327224
-1.7078660257877356
-1.7201749701177547
-1.6709391927977324
-1.6463213041377216
-1.7940286360977609
-1.7386383866127564
-1.6955570814577436
-1.7078660257877356
-1.7017115536227536
-1.5601586938277234
-1.473996083517698
-1.615548943312728
-1.7509473309427481
-1.757101803107758
-1.689402609292734
-1.6278578876427194
-1.6463213041377216
-1.677093664962742
-1.7263294422827367
-1.7201749701177547
-1.7755652196027594
-1.7632562752727399
-1.7817196917677414
-1.6524757763027313
-1.3324432237226955
-1.6093944711477182
-1.689402609292734
-2.1325246051727973
-1.5847765824877347
-1.5355408051677124
-1.6647847206327224
-1.6401668319727392
-1.6217034154777374
-1.6278578876427194
-1.6647847206327224
-1.6709391927977324
-1.689402609292734
-1.861727829912757
-2.070979883522784
-1.677093664962742
-1.6032399989827366
-1.6340123598077294
-1.5663131659927332
-1.683248137127724
-1.6709391927977324
-1.683248137127724
-1.7447928587777384
-1.7140204979527456
-1.7509473309427481
-1.7632562752727399
-1.5970855268177266
-1.7017115536227536
-1.966353856717784
-1.7324839144477464
-1.677093664962742
-1.7017115536227536
-1.7078660257877356
-1.6709391927977324
-1.6340123598077294
-1.7017115536227536
-1.6463213041377216
-1.1601180031026725
-0.47697159278756174
-1.7878741639327511
-1.7447928587777384
-1.5663131659927332
-2.600264489712873
-2.520256351567857
-1.6955570814577436
-1.5970855268177266
-1.615548943312728
-1.6340123598077294
-1.7017115536227536
-1.7140204979527456
