4.101955697973087
4.083492281478085
4.101955697973087
4.138882530963089
4.1758093639530935
4.212736196943095
4.225045141273086
4.237354085603107
4.249663029933098
4.243508557768089
4.237354085603107
4.243508557768089
4.249663029933098
4.249663029933098
4.261971974263091
4.255817502098108
4.261971974263091
4.255817502098108
4.261971974263091
4.255817502098108
4.255817502098108
4.2681264464281
4.27428091859311
4.27428091859311
4.2681264464281
4.2681264464281
4.2681264464281
4.261971974263091
4.2681264464281
4.2681264464281
4.280435390758093
4.2865898629231
4.280435390758093
4.2865898629231
4.2865898629231
4.280435390758093
4.27428091859311
4.2865898629231
4.292744335088111
4.298898807253093
4.305053279418103
4.305053279418103
4.3173622237481215
4.3173622237481215
4.3173622237481215
4.3173622237481215
4.3173622237481215
4.3173622237481215
4.323516695913104
4.3173622237481215
4.292744335088111
4.366598001068117
4.3727524732331275
4.366598001068117
4.37890694539811
4.37890694539811
4.354289056738125
4.335825640243124
4.348134584573115
4.341980112408105
4.335825640243124
4.335825640243124
4.335825640243124
4.323516695913104
4.298898807253093
4.2681264464281
4.2681264464281
4.280435390758093
4.2681264464281
4.237354085603107
4.231199613438097
4.225045141273086
4.212736196943095
4.218890669108104
4.212736196943095
4.200427252613103
4.188118308283084
4.200427252613103
4.1942727804480935
4.1942727804480935
4.188118308283084
4.1942727804480935
4.200427252613103
4.200427252613103
4.212736196943095
4.218890669108104
4.225045141273086
4.225045141273086
4.218890669108104
4.218890669108104
4.218890669108104
4.218890669108104
4.225045141273086
4.218890669108104
4.225045141273086
4.181963836118102
4.2065817247780855
4.2681264464281
4.261971974263091
4.261971974263091
4.261971974263091
4.249663029933098
4.237354085603107
4.200427252613103
4.200427252613103
4.212736196943095
4.225045141273086
4.225045141273086
4.243508557768089
4.237354085603107
4.231199613438097
4.243508557768089
4.261971974263091
4.27428091859311
4.2681264464281
4.2681264464281
4.2681264464281
4.27428091859311
4.261971974263091
4.261971974263091
4.261971974263091
4.2681264464281
4.261971974263091
4.2681264464281
4.2681264464281
4.27428091859311
4.27428091859311
4.2681264464281
4.27428091859311
4.2681264464281
4.27428091859311
4.280435390758093
4.2681264464281
4.2681264464281
4.255817502098108
4.249663029933098
4.231199613438097
4.231199613438097
4.249663029933098
4.261971974263091
4.27428091859311
4.261971974263091
4.255817502098108
4.2681264464281
4.261971974263091
4.261971974263091
4.255817502098108
4.255817502098108
4.243508557768089
4.243508557768089
4.249663029933098
4.261971974263091
4.261971974263091
4.27428091859311
4.280435390758093
4.292744335088111
4.298898807253093
4.292744335088111
4.280435390758093
4.298898807253093
4.305053279418103
4.292744335088111
4.2865898629231
4.280435390758093
4.292744335088111
4.292744335088111
4.298898807253093
4.3112077515831135
4.3173622237481215
4.3173622237481215
4.305053279418103
4.292744335088111
4.261971974263091
4.3112077515831135
4.3112077515831135
4.335825640243124
4.329671168078114
4.323516695913104
4.323516695913104
4.3173622237481215
4.323516695913104
4.3112077515831135
4.323516695913104
4.323516695913104
4.305053279418103
4.2865898629231
4.2681264464281
4.27428091859311
4.2681264464281
4.2681264464281
4.280435390758093
4.2865898629231
4.2681264464281
4.255817502098108
4.243508557768089
4.249663029933098
4.249663029933098
4.243508557768089
4.237354085603107
4.218890669108104
4.1942727804480935
4.188118308283084
4.212736196943095
4.27428091859311
4.335825640243124
4.391215889728128
4.434297194883113
4.415833778388112
4.360443528903107
4.2865898629231
4.225045141273086
4.1327280587980795
4.052719920653064
4.028102031993082
4.065028864983084
4.095801225808079
4.151191475293081
4.1942727804480935
4.200427252613103
4.200427252613103
4.212736196943095
4.212736196943095
4.200427252613103
4.2065817247780855
4.1942727804480935
4.1942727804480935
4.200427252613103
4.200427252613103
4.1942727804480935
4.200427252613103
4.2065817247780855
4.218890669108104
4.212736196943095
4.212736196943095
4.218890669108104
4.212736196943095
4.218890669108104
4.237354085603107
4.243508557768089
4.249663029933098
4.243508557768089
4.243508557768089
4.237354085603107
4.231199613438097
4.231199613438097
4.249663029933098
4.249663029933098
4.255817502098108
4.231199613438097
4.255817502098108
4.292744335088111
4.280435390758093
4.280435390758093
4.255817502098108
4.261971974263091
4.2865898629231
4.298898807253093
4.298898807253093
4.305053279418103
4.298898807253093
4.3112077515831135
4.329671168078114
4.348134584573115
4.360443528903107
4.360443528903107
4.341980112408105
4.3173622237481215
4.255817502098108
4.2065817247780855
4.163500419623101
4.1327280587980795
4.145037003128072
4.145037003128072
4.145037003128072
4.138882530963089
4.138882530963089
4.120419114468088
4.101955697973087
4.095801225808079
4.089646753643067
4.095801225808079
4.095801225808079
4.083492281478085
4.089646753643067
4.083492281478085
4.077337809313075
4.077337809313075
4.077337809313075
4.089646753643067
4.095801225808079
4.101955697973087
4.114264642303079
4.120419114468088
4.101955697973087
4.052719920653064
4.151191475293081
4.163500419623101
4.169654891788083
4.151191475293081
4.1327280587980795
4.145037003128072
4.151191475293081
4.151191475293081
4.157345947458091
4.163500419623101
4.163500419623101
4.163500419623101
4.163500419623101
4.169654891788083
4.1758093639530935
4.181963836118102
4.1758093639530935
4.181963836118102
4.181963836118102
4.188118308283084
4.200427252613103
4.200427252613103
4.2065817247780855
4.200427252613103
4.188118308283084
4.188118308283084
4.200427252613103
4.200427252613103
4.1942727804480935
4.181963836118102
4.188118308283084
4.200427252613103
4.2065817247780855
4.200427252613103
4.188118308283084
4.200427252613103
4.212736196943095
4.212736196943095
4.2065817247780855
4.218890669108104
4.231199613438097
4.231199613438097
4.212736196943095
4.2065817247780855
4.2065817247780855
4.218890669108104
4.225045141273086
4.218890669108104
4.218890669108104
4.218890669108104
4.218890669108104
4.218890669108104
4.218890669108104
4.2065817247780855
4.200427252613103
4.212736196943095
4.2065817247780855
4.212736196943095
4.200427252613103
4.212736196943095
4.225045141273086
4.225045141273086
4.218890669108104
4.2065817247780855
4.200427252613103
4.200427252613103
4.2065817247780855
4.218890669108104
4.225045141273086
4.218890669108104
4.218890669108104
4.218890669108104
4.231199613438097
4.243508557768089
4.231199613438097
4.237354085603107
4.249663029933098
4.249663029933098
4.243508557768089
4.243508557768089
4.237354085603107
4.243508557768089
4.261971974263091
4.292744335088111
4.2865898629231
4.280435390758093
4.2681264464281
4.27428091859311
4.261971974263091
4.261971974263091
4.261971974263091
4.261971974263091
4.255817502098108
4.261971974263091
4.2681264464281
4.255817502098108
4.243508557768089
4.243508557768089
4.255817502098108
4.261971974263091
4.255817502098108
4.261971974263091
4.261971974263091
4.261971974263091
4.249663029933098
4.249663029933098
4.255817502098108
4.255817502098108
4.255817502098108
4.249663029933098
4.255817502098108
4.298898807253093
4.348134584573115
4.3727524732331275
4.501996388698137
4.495841916533129
4.428142722718132
4.366598001068117
4.3112077515831135
4.231199613438097
4.114264642303079
4.021947559828071
4.1327280587980795
4.151191475293081
4.1758093639530935
4.2065817247780855
4.231199613438097
4.225045141273086
4.1942727804480935
4.181963836118102
4.1942727804480935
4.1942727804480935
4.200427252613103
4.212736196943095
4.2065817247780855
4.200427252613103
4.188118308283084
4.2065817247780855
4.231199613438097
4.243508557768089
4.255817502098108
4.249663029933098
4.249663029933098
4.237354085603107
4.237354085603107
4.237354085603107
4.237354085603107
4.249663029933098
4.243508557768089
4.243508557768089
4.237354085603107
4.237354085603107
4.237354085603107
4.249663029933098
4.243508557768089
4.261971974263091
4.2681264464281
4.261971974263091
4.261971974263091
4.249663029933098
4.27428091859311
4.305053279418103
4.298898807253093
4.298898807253093
4.305053279418103
4.3173622237481215
4.323516695913104
4.329671168078114
4.335825640243124
4.341980112408105
4.341980112408105
4.341980112408105
4.348134584573115
4.354289056738125
4.360443528903107
4.37890694539811
4.397370361893111
4.397370361893111
4.391215889728128
4.37890694539811
4.37890694539811
4.391215889728128
4.360443528903107
4.335825640243124
4.335825640243124
4.329671168078114
4.305053279418103
4.280435390758093
4.2681264464281
4.243508557768089
4.225045141273086
4.218890669108104
4.231199613438097
4.225045141273086
4.212736196943095
4.212736196943095
4.218890669108104
4.212736196943095
4.212736196943095
4.2065817247780855
4.2065817247780855
4.2065817247780855
4.1942727804480935
4.2065817247780855
4.212736196943095
4.225045141273086
4.218890669108104
4.225045141273086
4.231199613438097
4.218890669108104
4.225045141273086
4.218890669108104
4.218890669108104
4.218890669108104
4.212736196943095
4.231199613438097
4.231199613438097
4.231199613438097
4.225045141273086
4.212736196943095
4.212736196943095
4.218890669108104
4.231199613438097
4.225045141273086
4.225045141273086
4.237354085603107
4.231199613438097
4.225045141273086
4.225045141273086
4.237354085603107
4.237354085603107
4.231199613438097
4.231199613438097
4.237354085603107
4.243508557768089
4.249663029933098
4.249663029933098
4.237354085603107
4.237354085603107
4.237354085603107
4.243508557768089
4.231199613438097
4.218890669108104
4.1758093639530935
4.255817502098108
4.237354085603107
4.212736196943095
4.212736196943095
4.225045141273086
4.218890669108104
4.225045141273086
4.225045141273086
4.218890669108104
4.225045141273086
4.231199613438097
4.237354085603107
4.231199613438097
4.231199613438097
4.225045141273086
4.225045141273086
4.225045141273086
4.231199613438097
4.237354085603107
4.237354085603107
4.237354085603107
4.231199613438097
4.237354085603107
4.237354085603107
4.231199613438097
4.225045141273086
4.231199613438097
4.231199613438097
4.237354085603107
4.237354085603107
4.237354085603107
4.249663029933098
4.249663029933098
4.243508557768089
4.237354085603107
4.249663029933098
4.255817502098108
4.243508557768089
4.237354085603107
4.243508557768089
4.243508557768089
4.243508557768089
4.243508557768089
4.249663029933098
4.255817502098108
4.249663029933098
4.261971974263091
4.2681264464281
4.243508557768089
4.255817502098108
4.280435390758093
4.292744335088111
4.3173622237481215
4.305053279418103
4.292744335088111
4.298898807253093
4.292744335088111
4.292744335088111
4.298898807253093
4.298898807253093
4.2865898629231
4.27428091859311
4.27428091859311
4.280435390758093
4.280435390758093
4.280435390758093
4.2865898629231
4.2865898629231
4.2865898629231
4.27428091859311
4.2681264464281
4.2681264464281
4.280435390758093
4.2681264464281
4.27428091859311
4.27428091859311
4.2681264464281
4.255817502098108
4.255817502098108
4.255817502098108
4.2865898629231
4.366598001068117
4.428142722718132
4.477378500038126
4.508150860863147
4.489687444368147
4.434297194883113
4.366598001068117
4.292744335088111
4.212736196943095
4.138882530963089
4.138882530963089
4.169654891788083
4.200427252613103
4.231199613438097
4.237354085603107
4.255817502098108
4.261971974263091
4.255817502098108
4.2681264464281
4.27428091859311
4.280435390758093
4.27428091859311
4.2681264464281
4.2681264464281
4.2681264464281
4.27428091859311
4.2865898629231
4.292744335088111
4.305053279418103
4.292744335088111
4.292744335088111
4.292744335088111
4.292744335088111
4.2865898629231
4.2865898629231
4.2865898629231
4.2865898629231
4.280435390758093
4.2865898629231
4.280435390758093
4.255817502098108
4.329671168078114
4.335825640243124
4.3173622237481215
4.323516695913104
4.3173622237481215
4.329671168078114
4.354289056738125
4.360443528903107
4.37890694539811
4.385061417563119
4.391215889728128
4.391215889728128
4.397370361893111
4.415833778388112
4.428142722718132
4.434297194883113
4.446606139213133
4.458915083543125
4.458915083543125
4.471224027873144
4.471224027873144
4.477378500038126
4.452760611378115
4.428142722718132
4.428142722718132
4.415833778388112
4.397370361893111
4.385061417563119
4.3727524732331275
4.366598001068117
4.341980112408105
4.329671168078114
4.3173622237481215
4.298898807253093
4.27428091859311
4.2681264464281
4.27428091859311
4.255817502098108
4.237354085603107
4.225045141273086
4.225045141273086
4.218890669108104
4.2065817247780855
4.1942727804480935
4.1942727804480935
4.1942727804480935
4.2065817247780855
4.2065817247780855
4.2065817247780855
4.212736196943095
4.212736196943095
4.2065817247780855
4.225045141273086
4.231199613438097
4.231199613438097
4.231199613438097
4.225045141273086
4.2065817247780855
4.2065817247780855
4.169654891788083
4.237354085603107
4.255817502098108
4.243508557768089
4.237354085603107
4.237354085603107
4.225045141273086
4.212736196943095
4.181963836118102
4.188118308283084
4.2065817247780855
4.212736196943095
4.212736196943095
4.225045141273086
4.231199613438097
4.225045141273086
4.237354085603107
4.237354085603107
4.237354085603107
4.243508557768089
4.225045141273086
4.218890669108104
4.225045141273086
4.225045141273086
4.231199613438097
4.231199613438097
4.231199613438097
4.212736196943095
4.225045141273086
4.225045141273086
4.218890669108104
4.212736196943095
4.225045141273086
4.225045141273086
4.231199613438097
4.218890669108104
4.212736196943095
4.2065817247780855
4.218890669108104
4.2065817247780855
4.225045141273086
4.231199613438097
4.231199613438097
4.225045141273086
4.231199613438097
4.225045141273086
4.218890669108104
4.231199613438097
4.225045141273086
4.231199613438097
4.243508557768089
4.249663029933098
4.237354085603107
4.249663029933098
4.237354085603107
4.231199613438097
4.249663029933098
4.2681264464281
4.27428091859311
4.2681264464281
4.280435390758093
4.2681264464281
4.225045141273086
4.298898807253093
4.305053279418103
4.305053279418103
4.3112077515831135
4.305053279418103
4.305053279418103
4.292744335088111
4.261971974263091
4.249663029933098
4.27428091859311
4.292744335088111
4.280435390758093
4.298898807253093
4.305053279418103
4.3173622237481215
4.305053279418103
4.298898807253093
4.2865898629231
4.292744335088111
4.298898807253093
4.292744335088111
4.292744335088111
4.27428091859311
4.2681264464281
4.261971974263091
4.2681264464281
4.2681264464281
4.255817502098108
4.243508557768089
4.255817502098108
4.249663029933098
4.243508557768089
4.237354085603107
4.237354085603107
4.255817502098108
4.261971974263091
4.2681264464281
4.261971974263091
4.243508557768089
4.280435390758093
4.3173622237481215
4.341980112408105
4.329671168078114
4.3173622237481215
4.305053279418103
4.298898807253093
4.305053279418103
4.292744335088111
4.2865898629231
4.292744335088111
4.305053279418103
4.2865898629231
4.2865898629231
4.292744335088111
4.305053279418103
4.3173622237481215
4.323516695913104
4.3173622237481215
4.3112077515831135
4.341980112408105
4.354289056738125
4.360443528903107
4.360443528903107
4.385061417563119
4.366598001068117
4.366598001068117
4.366598001068117
4.354289056738125
4.341980112408105
4.341980112408105
4.391215889728128
4.458915083543125
4.520459805193139
4.557386638183142
4.569695582513134
4.538923221688139
4.477378500038126
4.415833778388112
4.329671168078114
4.249663029933098
4.2065817247780855
4.2065817247780855
4.225045141273086
4.249663029933098
4.305053279418103
4.335825640243124
4.341980112408105
4.329671168078114
4.329671168078114
4.335825640243124
4.335825640243124
4.323516695913104
4.3112077515831135
4.323516695913104
4.329671168078114
4.329671168078114
4.335825640243124
4.335825640243124
4.335825640243124
4.335825640243124
4.335825640243124
4.335825640243124
4.341980112408105
4.354289056738125
4.354289056738125
4.360443528903107
4.348134584573115
4.354289056738125
4.329671168078114
4.3173622237481215
4.329671168078114
4.329671168078114
4.335825640243124
4.335825640243124
4.335825640243124
4.341980112408105
4.348134584573115
4.354289056738125
4.348134584573115
4.348134584573115
4.348134584573115
4.3112077515831135
4.385061417563119
4.40352483405812
4.366598001068117
4.366598001068117
4.385061417563119
4.397370361893111
4.40352483405812
4.421988250553122
4.446606139213133
4.452760611378115
4.440451667048122
4.446606139213133
4.458915083543125
4.458915083543125
4.452760611378115
4.446606139213133
4.452760611378115
4.452760611378115
4.428142722718132
4.415833778388112
4.415833778388112
4.40352483405812
4.37890694539811
4.366598001068117
4.3727524732331275
4.360443528903107
4.341980112408105
4.348134584573115
4.354289056738125
4.360443528903107
4.354289056738125
4.341980112408105
4.348134584573115
4.348134584573115
4.348134584573115
4.360443528903107
4.366598001068117
4.354289056738125
4.348134584573115
4.341980112408105
4.354289056738125
4.341980112408105
4.335825640243124
4.348134584573115
4.348134584573115
4.335825640243124
4.329671168078114
4.335825640243124
4.348134584573115
4.341980112408105
4.341980112408105
4.354289056738125
4.3727524732331275
4.360443528903107
4.354289056738125
4.354289056738125
4.360443528903107
4.366598001068117
4.3727524732331275
4.366598001068117
4.348134584573115
4.335825640243124
4.348134584573115
4.360443528903107
4.354289056738125
4.323516695913104
4.3112077515831135
4.305053279418103
4.305053279418103
4.3173622237481215
4.3173622237481215
4.3112077515831135
4.3112077515831135
4.305053279418103
4.292744335088111
4.27428091859311
4.27428091859311
4.27428091859311
4.2681264464281
4.261971974263091
4.255817502098108
4.255817502098108
4.243508557768089
4.231199613438097
4.218890669108104
4.212736196943095
4.249663029933098
4.261971974263091
4.249663029933098
4.249663029933098
4.2865898629231
4.2865898629231
4.292744335088111
4.2865898629231
4.27428091859311
4.27428091859311
4.27428091859311
4.280435390758093
4.27428091859311
4.2865898629231
4.2865898629231
4.2865898629231
4.280435390758093
4.27428091859311
4.280435390758093
4.280435390758093
4.280435390758093
4.2865898629231
4.27428091859311
4.27428091859311
4.27428091859311
4.2681264464281
4.27428091859311
4.280435390758093
4.280435390758093
4.2681264464281
4.249663029933098
4.255817502098108
4.255817502098108
4.231199613438097
4.225045141273086
4.188118308283084
4.261971974263091
4.280435390758093
4.280435390758093
4.261971974263091
4.261971974263091
4.181963836118102
4.212736196943095
4.27428091859311
4.261971974263091
4.261971974263091
4.255817502098108
4.255817502098108
4.255817502098108
4.231199613438097
4.225045141273086
4.243508557768089
4.249663029933098
4.255817502098108
4.2681264464281
4.292744335088111
4.292744335088111
4.2865898629231
4.280435390758093
4.27428091859311
4.27428091859311
4.2865898629231
4.280435390758093
4.280435390758093
4.2681264464281
4.255817502098108
4.249663029933098
4.249663029933098
4.255817502098108
4.261971974263091
4.261971974263091
4.261971974263091
4.249663029933098
4.2681264464281
4.280435390758093
4.2865898629231
4.2681264464281
4.2681264464281
4.280435390758093
4.280435390758093
4.2681264464281
4.261971974263091
4.243508557768089
4.243508557768089
4.292744335088111
4.354289056738125
4.421988250553122
4.465069555708134
4.477378500038126
4.446606139213133
4.3727524732331275
4.3112077515831135
4.225045141273086
4.157345947458091
4.1327280587980795
4.145037003128072
4.145037003128072
4.188118308283084
4.255817502098108
4.280435390758093
4.27428091859311
4.261971974263091
4.27428091859311
4.27428091859311
4.27428091859311
4.305053279418103
4.298898807253093
4.2865898629231
4.280435390758093
4.2865898629231
4.2865898629231
4.280435390758093
4.2865898629231
4.280435390758093
4.292744335088111
4.305053279418103
4.305053279418103
4.305053279418103
4.305053279418103
4.305053279418103
4.3173622237481215
4.335825640243124
4.341980112408105
4.354289056738125
4.354289056738125
4.360443528903107
4.366598001068117
4.360443528903107
4.360443528903107
4.360443528903107
4.354289056738125
4.348134584573115
4.354289056738125
4.341980112408105
4.354289056738125
4.335825640243124
4.335825640243124
4.3727524732331275
4.391215889728128
4.397370361893111
4.397370361893111
4.385061417563119
4.391215889728128
4.385061417563119
4.397370361893111
4.40352483405812
4.385061417563119
4.40352483405812
4.40352483405812
4.415833778388112
4.40967930622313
4.415833778388112
4.421988250553122
4.40352483405812
4.385061417563119
4.3727524732331275
4.348134584573115
4.27428091859311
4.298898807253093
4.27428091859311
4.2681264464281
4.2865898629231
4.280435390758093
4.2681264464281
4.249663029933098
4.237354085603107
4.225045141273086
4.212736196943095
4.212736196943095
4.1942727804480935
4.188118308283084
4.169654891788083
4.163500419623101
4.145037003128072
4.151191475293081
4.151191475293081
4.151191475293081
4.145037003128072
4.145037003128072
4.151191475293081
4.151191475293081
4.145037003128072
4.1327280587980795
4.12657358663307
4.12657358663307
4.138882530963089
4.138882530963089
4.145037003128072
4.145037003128072
4.138882530963089
4.151191475293081
4.163500419623101
4.157345947458091
4.157345947458091
4.163500419623101
4.169654891788083
4.1758093639530935
4.1758093639530935
4.169654891788083
4.1758093639530935
4.1758093639530935
4.1758093639530935
4.181963836118102
4.188118308283084
4.200427252613103
4.1942727804480935
4.212736196943095
4.2065817247780855
4.212736196943095
4.218890669108104
4.237354085603107
4.243508557768089
4.237354085603107
4.243508557768089
4.255817502098108
4.249663029933098
4.261971974263091
4.261971974263091
4.261971974263091
4.261971974263091
4.2681264464281
4.261971974263091
4.237354085603107
4.249663029933098
4.237354085603107
4.237354085603107
4.243508557768089
4.249663029933098
4.255817502098108
4.255817502098108
4.255817502098108
4.249663029933098
4.237354085603107
4.243508557768089
4.2681264464281
4.2865898629231
4.27428091859311
4.2681264464281
4.27428091859311
4.280435390758093
4.280435390758093
4.280435390758093
4.280435390758093
4.280435390758093
4.261971974263091
4.27428091859311
4.27428091859311
4.280435390758093
4.280435390758093
4.280435390758093
4.2865898629231
4.280435390758093
4.27428091859311
4.27428091859311
4.280435390758093
4.27428091859311
4.2681264464281
4.2681264464281
4.261971974263091
4.261971974263091
4.261971974263091
4.27428091859311
4.27428091859311
4.280435390758093
4.280435390758093
4.27428091859311
4.261971974263091
4.2681264464281
4.261971974263091
4.261971974263091
4.261971974263091
4.261971974263091
4.261971974263091
4.2681264464281
4.2681264464281
4.249663029933098
4.261971974263091
4.261971974263091
4.249663029933098
4.218890669108104
4.2865898629231
4.280435390758093
4.27428091859311
4.231199613438097
4.218890669108104
4.231199613438097
4.231199613438097
4.237354085603107
4.2681264464281
4.292744335088111
4.305053279418103
4.292744335088111
4.280435390758093
4.27428091859311
4.280435390758093
4.280435390758093
4.280435390758093
4.2681264464281
4.261971974263091
4.249663029933098
4.261971974263091
4.261971974263091
4.261971974263091
4.261971974263091
4.261971974263091
4.261971974263091
4.261971974263091
4.2681264464281
4.261971974263091
4.255817502098108
4.243508557768089
4.243508557768089
4.255817502098108
4.255817502098108
4.249663029933098
4.237354085603107
4.243508557768089
4.243508557768089
4.280435390758093
4.348134584573115
4.421988250553122
4.465069555708134
4.471224027873144
4.452760611378115
4.391215889728128
4.335825640243124
4.249663029933098
4.163500419623101
4.108110170138069
4.120419114468088
4.138882530963089
4.181963836118102
4.231199613438097
4.261971974263091
4.261971974263091
4.261971974263091
4.2681264464281
4.2681264464281
4.261971974263091
4.261971974263091
4.261971974263091
4.249663029933098
4.249663029933098
4.2681264464281
4.298898807253093
4.305053279418103
4.3112077515831135
4.329671168078114
4.323516695913104
4.323516695913104
4.323516695913104
4.329671168078114
4.329671168078114
4.298898807253093
4.2865898629231
4.366598001068117
4.354289056738125
4.348134584573115
4.348134584573115
4.354289056738125
4.360443528903107
4.335825640243124
4.3173622237481215
4.335825640243124
4.348134584573115
4.354289056738125
4.354289056738125
4.360443528903107
4.37890694539811
4.385061417563119
4.385061417563119
4.385061417563119
4.385061417563119
4.391215889728128
4.385061417563119
4.397370361893111
4.40352483405812
4.40967930622313
4.40352483405812
4.40967930622313
4.40967930622313
4.40967930622313
4.40967930622313
4.40352483405812
4.397370361893111
4.397370361893111
4.397370361893111
4.397370361893111
4.385061417563119
4.366598001068117
4.354289056738125
4.354289056738125
4.323516695913104
4.305053279418103
4.292744335088111
4.27428091859311
4.2681264464281
4.2681264464281
4.255817502098108
4.261971974263091
4.237354085603107
4.1942727804480935
4.261971974263091
4.2681264464281
4.255817502098108
4.255817502098108
4.255817502098108
4.237354085603107
4.1942727804480935
4.188118308283084
4.1942727804480935
4.212736196943095
4.212736196943095
4.212736196943095
4.218890669108104
4.225045141273086
4.231199613438097
4.243508557768089
4.243508557768089
4.237354085603107
4.243508557768089
4.243508557768089
4.237354085603107
4.243508557768089
4.243508557768089
4.237354085603107
4.218890669108104
4.218890669108104
4.212736196943095
4.218890669108104
4.212736196943095
4.218890669108104
4.218890669108104
4.225045141273086
4.237354085603107
4.261971974263091
4.249663029933098
4.249663029933098
4.255817502098108
4.255817502098108
4.255817502098108
4.255817502098108
4.255817502098108
4.249663029933098
4.255817502098108
4.2681264464281
4.27428091859311
4.280435390758093
4.2865898629231
4.27428091859311
4.2681264464281
4.27428091859311
4.27428091859311
4.280435390758093
4.27428091859311
4.280435390758093
4.2865898629231
4.2865898629231
4.2865898629231
4.27428091859311
4.27428091859311
4.27428091859311
4.27428091859311
4.27428091859311
4.280435390758093
4.280435390758093
4.261971974263091
4.261971974263091
4.280435390758093
4.280435390758093
4.280435390758093
4.27428091859311
4.292744335088111
4.292744335088111
4.2865898629231
4.298898807253093
4.2865898629231
4.2865898629231
4.2865898629231
4.280435390758093
4.280435390758093
4.280435390758093
4.280435390758093
4.2865898629231
4.280435390758093
4.2681264464281
4.261971974263091
4.2681264464281
4.2681264464281
4.2681264464281
4.255817502098108
4.2681264464281
4.280435390758093
4.2865898629231
4.27428091859311
4.2681264464281
4.280435390758093
4.280435390758093
4.27428091859311
4.261971974263091
4.249663029933098
4.243508557768089
4.231199613438097
4.255817502098108
4.249663029933098
4.243508557768089
4.255817502098108
4.249663029933098
4.237354085603107
4.237354085603107
4.237354085603107
4.237354085603107
4.261971974263091
4.2681264464281
4.2681264464281
4.280435390758093
4.2865898629231
4.292744335088111
4.292744335088111
4.298898807253093
4.298898807253093
4.298898807253093
4.2865898629231
4.249663029933098
4.3173622237481215
4.292744335088111
4.27428091859311
4.292744335088111
4.305053279418103
4.3173622237481215
4.3173622237481215
4.329671168078114
4.366598001068117
4.360443528903107
4.360443528903107
4.354289056738125
4.348134584573115
4.354289056738125
4.354289056738125
4.341980112408105
4.335825640243124
4.329671168078114
4.3173622237481215
4.3173622237481215
4.329671168078114
4.323516695913104
4.3112077515831135
4.298898807253093
4.298898807253093
4.292744335088111
4.305053279418103
4.305053279418103
4.3112077515831135
4.3112077515831135
4.3173622237481215
4.3112077515831135
4.292744335088111
4.292744335088111
4.292744335088111
4.292744335088111
4.292744335088111
4.305053279418103
4.3727524732331275
4.446606139213133
4.514305333028129
4.538923221688139
4.514305333028129
4.446606139213133
4.37890694539811
4.292744335088111
4.212736196943095
4.157345947458091
4.138882530963089
4.169654891788083
4.200427252613103
4.243508557768089
4.2681264464281
4.2865898629231
4.27428091859311
4.2681264464281
4.27428091859311
4.27428091859311
4.27428091859311
4.280435390758093
4.2865898629231
4.27428091859311
4.261971974263091
4.2681264464281
4.261971974263091
4.2681264464281
4.2681264464281
4.261971974263091
4.255817502098108
4.249663029933098
4.243508557768089
4.243508557768089
4.231199613438097
4.237354085603107
4.231199613438097
4.231199613438097
4.237354085603107
4.237354085603107
4.243508557768089
4.225045141273086
4.231199613438097
4.225045141273086
4.231199613438097
4.237354085603107
4.225045141273086
4.243508557768089
4.243508557768089
4.255817502098108
4.255817502098108
4.261971974263091
4.261971974263091
4.261971974263091
4.2681264464281
4.261971974263091
4.27428091859311
4.261971974263091
4.27428091859311
4.280435390758093
4.27428091859311
4.280435390758093
4.292744335088111
4.2865898629231
4.292744335088111
4.2865898629231
4.298898807253093
4.305053279418103
4.3173622237481215
4.3112077515831135
4.305053279418103
4.298898807253093
4.2865898629231
4.280435390758093
4.261971974263091
4.249663029933098
4.243508557768089
4.231199613438097
4.212736196943095
4.2065817247780855
4.1942727804480935
4.188118308283084
4.169654891788083
4.138882530963089
4.188118308283084
4.1942727804480935
4.188118308283084
4.1758093639530935
4.138882530963089
4.138882530963089
4.151191475293081
4.157345947458091
4.157345947458091
4.163500419623101
4.1758093639530935
4.1758093639530935
4.1758093639530935
4.188118308283084
4.181963836118102
4.188118308283084
4.1758093639530935
4.181963836118102
4.1758093639530935
4.151191475293081
4.108110170138069
4.2065817247780855
4.212736196943095
4.200427252613103
4.1942727804480935
4.200427252613103
4.2065817247780855
4.181963836118102
4.157345947458091
4.1758093639530935
4.188118308283084
4.2065817247780855
4.188118308283084
4.188118308283084
4.200427252613103
4.200427252613103
4.1942727804480935
4.2065817247780855
4.2065817247780855
4.2065817247780855
4.2065817247780855
4.2065817247780855
4.212736196943095
4.2065817247780855
4.200427252613103
4.200427252613103
4.212736196943095
4.212736196943095
4.212736196943095
4.212736196943095
4.212736196943095
4.218890669108104
4.225045141273086
4.218890669108104
4.218890669108104
4.2065817247780855
4.212736196943095
4.2065817247780855
4.2065817247780855
4.200427252613103
4.2065817247780855
4.2065817247780855
4.2065817247780855
4.212736196943095
4.212736196943095
4.218890669108104
4.212736196943095
4.212736196943095
4.218890669108104
4.225045141273086
4.225045141273086
4.225045141273086
4.237354085603107
4.225045141273086
4.237354085603107
4.243508557768089
4.249663029933098
4.243508557768089
4.243508557768089
4.243508557768089
4.237354085603107
4.243508557768089
4.237354085603107
4.231199613438097
4.243508557768089
4.237354085603107
4.237354085603107
4.243508557768089
4.237354085603107
4.237354085603107
4.225045141273086
4.225045141273086
4.225045141273086
4.225045141273086
4.231199613438097
4.243508557768089
4.249663029933098
4.243508557768089
4.237354085603107
4.231199613438097
4.243508557768089
4.243508557768089
4.249663029933098
4.255817502098108
4.261971974263091
4.261971974263091
4.261971974263091
4.27428091859311
4.292744335088111
4.305053279418103
4.305053279418103
4.298898807253093
4.3112077515831135
4.305053279418103
4.3173622237481215
4.335825640243124
4.348134584573115
4.348134584573115
4.354289056738125
4.341980112408105
4.323516695913104
4.280435390758093
4.354289056738125
4.348134584573115
4.354289056738125
4.341980112408105
4.329671168078114
4.329671168078114
4.3173622237481215
4.280435390758093
4.27428091859311
4.292744335088111
4.298898807253093
4.3173622237481215
4.323516695913104
4.329671168078114
4.323516695913104
4.323516695913104
4.323516695913104
4.323516695913104
4.3112077515831135
4.305053279418103
4.305053279418103
4.298898807253093
4.323516695913104
4.385061417563119
4.458915083543125
4.508150860863147
4.551232166018132
4.5327687495231315
4.458915083543125
4.391215889728128
4.323516695913104
4.237354085603107
4.169654891788083
4.151191475293081
4.169654891788083
4.2065817247780855
4.27428091859311
4.3173622237481215
4.335825640243124
4.335825640243124
4.323516695913104
4.3173622237481215
4.3173622237481215
4.3112077515831135
4.3173622237481215
4.3173622237481215
4.305053279418103
4.3173622237481215
4.3112077515831135
4.323516695913104
4.323516695913104
4.323516695913104
4.3173622237481215
4.3173622237481215
4.3112077515831135
4.323516695913104
4.323516695913104
4.335825640243124
4.335825640243124
4.341980112408105
4.335825640243124
4.329671168078114
4.323516695913104
4.335825640243124
4.335825640243124
4.341980112408105
4.341980112408105
4.335825640243124
4.335825640243124
4.329671168078114
4.335825640243124
4.348134584573115
4.348134584573115
4.341980112408105
4.348134584573115
4.366598001068117
4.3727524732331275
4.360443528903107
4.366598001068117
4.3727524732331275
4.366598001068117
4.3727524732331275
4.385061417563119
4.37890694539811
4.391215889728128
4.391215889728128
4.391215889728128
4.40352483405812
4.40352483405812
4.40352483405812
4.397370361893111
4.397370361893111
4.385061417563119
4.37890694539811
4.366598001068117
4.348134584573115
4.348134584573115
4.329671168078114
4.3112077515831135
4.298898807253093
4.2865898629231
4.2681264464281
4.261971974263091
4.255817502098108
4.249663029933098
4.249663029933098
4.237354085603107
4.237354085603107
4.231199613438097
4.231199613438097
4.231199613438097
4.231199613438097
4.231199613438097
4.237354085603107
4.231199613438097
4.237354085603107
4.231199613438097
4.231199613438097
4.231199613438097
4.231199613438097
4.225045141273086
4.181963836118102
4.261971974263091
4.255817502098108
4.225045141273086
4.225045141273086
4.231199613438097
4.231199613438097
4.243508557768089
4.243508557768089
4.249663029933098
4.249663029933098
4.243508557768089
4.249663029933098
4.243508557768089
4.243508557768089
4.255817502098108
4.261971974263091
4.261971974263091
4.27428091859311
4.2681264464281
4.255817502098108
4.261971974263091
4.255817502098108
4.249663029933098
4.249663029933098
4.243508557768089
4.243508557768089
4.237354085603107
4.243508557768089
4.243508557768089
4.237354085603107
4.231199613438097
4.231199613438097
4.225045141273086
4.225045141273086
4.237354085603107
4.243508557768089
4.249663029933098
4.243508557768089
4.249663029933098
4.243508557768089
4.243508557768089
4.237354085603107
4.243508557768089
4.249663029933098
4.249663029933098
4.237354085603107
4.237354085603107
4.231199613438097
4.218890669108104
4.225045141273086
4.243508557768089
4.249663029933098
4.237354085603107
4.243508557768089
4.249663029933098
4.237354085603107
4.243508557768089
4.249663029933098
4.255817502098108
4.255817502098108
4.255817502098108
4.231199613438097
4.218890669108104
4.237354085603107
4.237354085603107
4.243508557768089
4.237354085603107
4.249663029933098
4.243508557768089
4.249663029933098
4.255817502098108
4.243508557768089
4.243508557768089
4.243508557768089
4.249663029933098
4.2681264464281
4.261971974263091
4.261971974263091
4.255817502098108
4.255817502098108
4.243508557768089
4.255817502098108
4.261971974263091
4.261971974263091
4.2681264464281
4.261971974263091
4.255817502098108
4.255817502098108
4.200427252613103
4.27428091859311
4.292744335088111
4.2865898629231
4.2865898629231
4.27428091859311
4.27428091859311
4.261971974263091
4.212736196943095
4.218890669108104
4.255817502098108
4.298898807253093
4.335825640243124
4.323516695913104
4.3173622237481215
4.3112077515831135
4.3112077515831135
4.3112077515831135
4.305053279418103
4.305053279418103
4.298898807253093
4.292744335088111
4.280435390758093
4.261971974263091
4.255817502098108
4.249663029933098
4.249663029933098
4.249663029933098
4.249663029933098
4.261971974263091
4.261971974263091
4.2681264464281
4.255817502098108
4.231199613438097
4.298898807253093
4.305053279418103
4.292744335088111
4.280435390758093
4.27428091859311
4.237354085603107
4.2681264464281
4.366598001068117
4.452760611378115
4.501996388698137
4.52661427735815
4.477378500038126
4.40967930622313
4.341980112408105
4.261971974263091
4.181963836118102
4.1327280587980795
4.151191475293081
4.188118308283084
4.237354085603107
4.280435390758093
4.305053279418103
4.3112077515831135
4.298898807253093
4.298898807253093
4.305053279418103
4.305053279418103
4.298898807253093
4.305053279418103
4.3112077515831135
4.305053279418103
4.298898807253093
4.298898807253093
4.292744335088111
4.2865898629231
4.292744335088111
4.298898807253093
4.305053279418103
4.3173622237481215
4.3173622237481215
4.3112077515831135
4.3173622237481215
4.323516695913104
4.323516695913104
4.3173622237481215
4.3173622237481215
4.3112077515831135
4.323516695913104
4.329671168078114
4.329671168078114
4.329671168078114
4.329671168078114
4.329671168078114
4.335825640243124
4.341980112408105
4.335825640243124
4.329671168078114
4.341980112408105
4.354289056738125
4.366598001068117
4.385061417563119
4.397370361893111
4.391215889728128
4.40967930622313
4.415833778388112
4.421988250553122
4.428142722718132
4.428142722718132
4.428142722718132
4.440451667048122
4.446606139213133
4.440451667048122
4.452760611378115
4.465069555708134
4.452760611378115
4.446606139213133
4.446606139213133
4.428142722718132
4.40967930622313
4.397370361893111
4.385061417563119
4.354289056738125
4.335825640243124
4.3173622237481215
4.3112077515831135
4.305053279418103
4.292744335088111
4.2865898629231
4.292744335088111
4.2865898629231
4.280435390758093
4.2681264464281
4.27428091859311
4.2681264464281
4.2681264464281
4.2681264464281
4.2681264464281
4.27428091859311
4.261971974263091
4.2681264464281
4.2681264464281
4.2681264464281
4.261971974263091
4.2681264464281
4.261971974263091
4.2681264464281
4.255817502098108
4.261971974263091
4.261971974263091
4.261971974263091
4.261971974263091
4.255817502098108
4.255817502098108
4.2681264464281
4.27428091859311
4.27428091859311
4.280435390758093
4.27428091859311
4.2681264464281
4.255817502098108
4.243508557768089
4.200427252613103
4.237354085603107
4.237354085603107
4.255817502098108
4.261971974263091
4.261971974263091
4.249663029933098
4.249663029933098
4.243508557768089
4.249663029933098
4.243508557768089
4.249663029933098
4.255817502098108
4.261971974263091
4.261971974263091
4.261971974263091
4.2681264464281
4.2681264464281
4.2681264464281
4.27428091859311
4.2681264464281
4.2681264464281
4.261971974263091
4.2681264464281
4.261971974263091
4.261971974263091
4.261971974263091
4.255817502098108
4.255817502098108
4.255817502098108
4.255817502098108
4.261971974263091
4.255817502098108
4.249663029933098
4.249663029933098
4.249663029933098
4.243508557768089
4.249663029933098
4.261971974263091
4.261971974263091
4.261971974263091
4.261971974263091
4.2681264464281
4.2681264464281
4.261971974263091
4.255817502098108
4.261971974263091
4.255817502098108
4.261971974263091
4.2681264464281
4.261971974263091
4.255817502098108
4.261971974263091
4.249663029933098
4.249663029933098
4.243508557768089
4.249663029933098
4.243508557768089
4.255817502098108
4.255817502098108
4.261971974263091
4.261971974263091
4.255817502098108
4.249663029933098
4.261971974263091
4.261971974263091
4.27428091859311
4.27428091859311
4.280435390758093
4.2865898629231
4.2865898629231
4.2865898629231
4.280435390758093
4.298898807253093
4.298898807253093
4.292744335088111
4.298898807253093
4.3112077515831135
4.3112077515831135
4.3173622237481215
4.3173622237481215
4.335825640243124
4.348134584573115
4.354289056738125
4.348134584573115
4.348134584573115
4.360443528903107
4.360443528903107
4.366598001068117
4.354289056738125
4.366598001068117
4.354289056738125
4.354289056738125
4.348134584573115
4.341980112408105
4.341980112408105
4.354289056738125
4.341980112408105
4.354289056738125
4.341980112408105
4.341980112408105
4.329671168078114
4.305053279418103
4.3112077515831135
4.323516695913104
4.3173622237481215
4.3112077515831135
4.305053279418103
4.3112077515831135
4.3173622237481215
4.360443528903107
4.428142722718132
4.501996388698137
4.551232166018132
4.54507769385315
4.501996388698137
4.428142722718132
4.366598001068117
4.2865898629231
4.212736196943095
4.157345947458091
4.151191475293081
4.12657358663307
4.231199613438097
4.292744335088111
4.3112077515831135
4.2681264464281
4.27428091859311
4.292744335088111
4.292744335088111
4.2865898629231
4.2865898629231
4.2865898629231
4.27428091859311
4.2681264464281
4.2681264464281
4.2681264464281
4.27428091859311
4.280435390758093
4.27428091859311
4.27428091859311
4.27428091859311
4.2865898629231
4.292744335088111
4.292744335088111
4.292744335088111
4.2865898629231
4.2865898629231
4.280435390758093
4.280435390758093
4.292744335088111
4.2865898629231
4.280435390758093
4.2865898629231
4.292744335088111
4.292744335088111
4.2865898629231
4.255817502098108
4.280435390758093
4.329671168078114
4.335825640243124
4.329671168078114
4.329671168078114
4.335825640243124
4.335825640243124
4.3112077515831135
4.3112077515831135
4.329671168078114
4.354289056738125
4.354289056738125
4.354289056738125
4.366598001068117
4.37890694539811
4.3727524732331275
4.3727524732331275
4.385061417563119
4.37890694539811
4.3727524732331275
4.3727524732331275
4.354289056738125
4.341980112408105
4.341980112408105
4.323516695913104
4.305053279418103
4.292744335088111
4.280435390758093
4.261971974263091
4.249663029933098
4.231199613438097
4.231199613438097
4.225045141273086
4.225045141273086
4.225045141273086
4.218890669108104
4.212736196943095
4.200427252613103
4.200427252613103
4.1942727804480935
4.200427252613103
4.200427252613103
4.200427252613103
4.200427252613103
4.200427252613103
4.200427252613103
4.1942727804480935
4.1942727804480935
4.1942727804480935
4.200427252613103
4.2065817247780855
4.200427252613103
4.2065817247780855
4.212736196943095
4.212736196943095
4.2065817247780855
4.212736196943095
4.212736196943095
4.212736196943095
4.225045141273086
4.225045141273086
4.231199613438097
4.225045141273086
4.225045141273086
4.231199613438097
4.237354085603107
4.237354085603107
4.231199613438097
4.237354085603107
4.231199613438097
4.231199613438097
4.237354085603107
4.237354085603107
4.231199613438097
4.237354085603107
4.237354085603107
4.243508557768089
4.237354085603107
4.237354085603107
4.231199613438097
4.231199613438097
4.237354085603107
4.237354085603107
4.237354085603107
4.237354085603107
4.225045141273086
4.188118308283084
4.249663029933098
4.255817502098108
4.249663029933098
4.249663029933098
4.237354085603107
4.231199613438097
4.200427252613103
4.200427252613103
4.212736196943095
4.231199613438097
4.231199613438097
4.225045141273086
4.231199613438097
4.231199613438097
4.237354085603107
4.249663029933098
4.249663029933098
4.249663029933098
4.243508557768089
4.243508557768089
4.237354085603107
4.243508557768089
4.249663029933098
4.243508557768089
4.243508557768089
4.243508557768089
4.249663029933098
4.243508557768089
4.243508557768089
4.243508557768089
4.243508557768089
4.243508557768089
4.243508557768089
4.249663029933098
4.243508557768089
4.243508557768089
4.249663029933098
4.237354085603107
4.249663029933098
4.249663029933098
4.243508557768089
4.249663029933098
4.255817502098108
4.2681264464281
4.2681264464281
4.255817502098108
4.255817502098108
4.255817502098108
4.255817502098108
4.249663029933098
4.261971974263091
4.2681264464281
4.261971974263091
4.261971974263091
4.27428091859311
4.280435390758093
4.27428091859311
4.2681264464281
4.261971974263091
4.2681264464281
4.2865898629231
4.298898807253093
4.298898807253093
4.305053279418103
4.2865898629231
4.27428091859311
4.280435390758093
4.27428091859311
4.2681264464281
4.2865898629231
4.2865898629231
4.27428091859311
4.2865898629231
4.2865898629231
4.27428091859311
4.261971974263091
4.261971974263091
4.255817502098108
4.261971974263091
4.255817502098108
4.255817502098108
4.249663029933098
4.249663029933098
4.249663029933098
4.243508557768089
4.249663029933098
4.255817502098108
4.255817502098108
4.2681264464281
4.298898807253093
4.360443528903107
4.434297194883113
4.483532972203136
4.489687444368147
4.434297194883113
4.3727524732331275
4.3112077515831135
4.231199613438097
4.157345947458091
4.114264642303079
4.1327280587980795
4.163500419623101
4.200427252613103
4.243508557768089
4.261971974263091
4.249663029933098
4.249663029933098
4.249663029933098
4.249663029933098
4.249663029933098
4.249663029933098
4.261971974263091
4.2681264464281
4.2681264464281
4.2681264464281
4.27428091859311
4.2681264464281
4.280435390758093
4.2865898629231
4.292744335088111
4.2865898629231
4.231199613438097
4.3112077515831135
4.2681264464281
4.2681264464281
4.280435390758093
4.2865898629231
4.292744335088111
4.3112077515831135
4.3112077515831135
4.305053279418103
4.292744335088111
4.298898807253093
4.305053279418103
4.305053279418103
4.3173622237481215
4.3173622237481215
4.323516695913104
4.329671168078114
4.341980112408105
4.341980112408105
4.348134584573115
4.348134584573115
4.354289056738125
4.360443528903107
4.366598001068117
4.3727524732331275
4.37890694539811
4.3727524732331275
4.37890694539811
4.385061417563119
4.391215889728128
4.385061417563119
4.385061417563119
4.391215889728128
4.397370361893111
4.397370361893111
4.391215889728128
4.385061417563119
4.3727524732331275
4.360443528903107
4.335825640243124
4.3112077515831135
4.305053279418103
4.2865898629231
4.27428091859311
4.261971974263091
4.261971974263091
4.255817502098108
4.255817502098108
4.237354085603107
4.225045141273086
4.218890669108104
4.225045141273086
4.218890669108104
4.218890669108104
4.212736196943095
4.2065817247780855
4.2065817247780855
4.2065817247780855
4.2065817247780855
4.200427252613103
4.2065817247780855
4.2065817247780855
4.2065817247780855
4.225045141273086
4.218890669108104
4.218890669108104
4.225045141273086
4.218890669108104
4.212736196943095
4.225045141273086
4.225045141273086
4.231199613438097
4.243508557768089
4.237354085603107
4.243508557768089
4.249663029933098
4.243508557768089
4.243508557768089
4.243508557768089
4.243508557768089
4.243508557768089
4.249663029933098
4.249663029933098
4.243508557768089
4.249663029933098
4.249663029933098
4.249663029933098
4.243508557768089
4.243508557768089
4.243508557768089
4.2681264464281
4.27428091859311
4.280435390758093
4.280435390758093
4.2681264464281
4.261971974263091
4.27428091859311
4.2865898629231
4.280435390758093
4.292744335088111
4.2865898629231
4.27428091859311
4.255817502098108
4.225045141273086
4.305053279418103
4.298898807253093
4.2865898629231
4.2865898629231
4.27428091859311
4.280435390758093
4.249663029933098
4.231199613438097
4.261971974263091
4.261971974263091
4.261971974263091
4.261971974263091
4.255817502098108
4.249663029933098
4.243508557768089
4.255817502098108
4.237354085603107
4.2065817247780855
4.2681264464281
4.2681264464281
4.249663029933098
4.243508557768089
4.200427252613103
4.212736196943095
4.231199613438097
4.237354085603107
4.225045141273086
4.218890669108104
4.225045141273086
4.212736196943095
4.2065817247780855
4.212736196943095
4.212736196943095
4.2065817247780855
4.2065817247780855
4.212736196943095
4.2065817247780855
4.200427252613103
4.212736196943095
4.231199613438097
4.231199613438097
4.225045141273086
4.243508557768089
4.243508557768089
4.243508557768089
4.249663029933098
4.237354085603107
4.237354085603107
4.249663029933098
4.2681264464281
4.292744335088111
4.292744335088111
4.305053279418103
4.3112077515831135
4.305053279418103
4.305053279418103
4.305053279418103
4.305053279418103
4.298898807253093
4.292744335088111
4.27428091859311
4.280435390758093
4.27428091859311
4.292744335088111
4.2865898629231
4.280435390758093
4.27428091859311
4.27428091859311
4.27428091859311
4.261971974263091
4.27428091859311
4.280435390758093
4.292744335088111
4.298898807253093
4.2865898629231
4.27428091859311
4.27428091859311
4.305053279418103
4.37890694539811
4.452760611378115
4.501996388698137
4.538923221688139
4.501996388698137
4.428142722718132
4.366598001068117
4.298898807253093
4.212736196943095
4.151191475293081
4.145037003128072
4.169654891788083
4.1942727804480935
4.237354085603107
4.292744335088111
4.3173622237481215
4.305053279418103
4.3112077515831135
4.3112077515831135
4.305053279418103
4.3112077515831135
4.3112077515831135
4.298898807253093
4.292744335088111
4.3112077515831135
4.3112077515831135
4.3173622237481215
4.323516695913104
4.335825640243124
4.329671168078114
4.329671168078114
4.335825640243124
4.335825640243124
4.323516695913104
4.329671168078114
4.341980112408105
4.348134584573115
4.335825640243124
4.335825640243124
4.348134584573115
4.3727524732331275
4.366598001068117
4.3727524732331275
4.385061417563119
4.385061417563119
4.366598001068117
4.366598001068117
4.3727524732331275
4.37890694539811
4.3727524732331275
4.37890694539811
4.37890694539811
4.366598001068117
4.3727524732331275
4.385061417563119
4.391215889728128
4.391215889728128
4.397370361893111
4.40352483405812
4.40967930622313
4.40967930622313
4.366598001068117
4.452760611378115
4.452760611378115
4.428142722718132
4.421988250553122
4.415833778388112
4.40352483405812
4.40352483405812
4.360443528903107
4.354289056738125
4.348134584573115
4.341980112408105
4.329671168078114
4.3173622237481215
4.305053279418103
4.292744335088111
4.27428091859311
4.261971974263091
4.2681264464281
4.255817502098108
4.249663029933098
4.243508557768089
4.243508557768089
4.231199613438097
4.225045141273086
4.231199613438097
4.237354085603107
4.249663029933098
4.243508557768089
4.249663029933098
4.255817502098108
4.243508557768089
4.255817502098108
4.249663029933098
4.249663029933098
4.249663029933098
4.249663029933098
4.249663029933098
4.255817502098108
4.255817502098108
4.261971974263091
4.243508557768089
4.231199613438097
4.237354085603107
4.261971974263091
4.255817502098108
4.243508557768089
4.231199613438097
4.231199613438097
4.225045141273086
4.225045141273086
4.212736196943095
4.225045141273086
4.231199613438097
4.243508557768089
4.231199613438097
4.212736196943095
4.212736196943095
4.218890669108104
4.231199613438097
4.231199613438097
4.231199613438097
4.225045141273086
4.237354085603107
4.249663029933098
4.249663029933098
4.243508557768089
4.237354085603107
4.237354085603107
4.231199613438097
4.237354085603107
4.243508557768089
4.249663029933098
4.243508557768089
4.243508557768089
4.255817502098108
4.243508557768089
4.255817502098108
4.261971974263091
4.2681264464281
4.280435390758093
4.27428091859311
4.280435390758093
4.292744335088111
4.292744335088111
4.3112077515831135
4.3112077515831135
4.323516695913104
4.323516695913104
4.329671168078114
4.323516695913104
4.3112077515831135
4.3173622237481215
4.305053279418103
4.298898807253093
4.298898807253093
4.298898807253093
4.292744335088111
4.298898807253093
4.298898807253093
4.305053279418103
4.305053279418103
4.3112077515831135
4.3112077515831135
4.305053279418103
4.298898807253093
4.3173622237481215
4.335825640243124
4.348134584573115
4.335825640243124
4.335825640243124
4.329671168078114
4.348134584573115
4.348134584573115
4.335825640243124
4.3173622237481215
4.3112077515831135
4.305053279418103
4.329671168078114
4.348134584573115
4.360443528903107
4.348134584573115
4.323516695913104
4.3727524732331275
4.354289056738125
4.3112077515831135
4.3112077515831135
4.323516695913104
4.3173622237481215
4.3173622237481215
4.3112077515831135
4.298898807253093
4.305053279418103
4.305053279418103
4.3112077515831135
4.323516695913104
4.3173622237481215
4.323516695913104
4.3173622237481215
4.323516695913104
4.335825640243124
4.335825640243124
4.348134584573115
4.335825640243124
4.3173622237481215
4.323516695913104
4.329671168078114
4.360443528903107
4.415833778388112
4.489687444368147
4.520459805193139
4.538923221688139
4.520459805193139
4.471224027873144
4.391215889728128
4.305053279418103
4.200427252613103
4.151191475293081
4.157345947458091
4.163500419623101
4.2065817247780855
4.261971974263091
4.292744335088111
4.305053279418103
4.2865898629231
4.280435390758093
4.2865898629231
4.2865898629231
4.292744335088111
4.2865898629231
4.2865898629231
4.280435390758093
4.231199613438097
4.305053279418103
4.305053279418103
4.298898807253093
4.292744335088111
4.2865898629231
4.280435390758093
4.261971974263091
4.225045141273086
4.231199613438097
4.237354085603107
4.243508557768089
4.237354085603107
4.225045141273086
4.212736196943095
4.212736196943095
4.212736196943095
4.212736196943095
4.218890669108104
4.218890669108104
4.225045141273086
4.231199613438097
4.225045141273086
4.225045141273086
4.237354085603107
4.237354085603107
4.237354085603107
4.237354085603107
4.249663029933098
4.249663029933098
4.249663029933098
4.237354085603107
4.237354085603107
4.243508557768089
4.249663029933098
4.255817502098108
4.261971974263091
4.255817502098108
4.2681264464281
4.261971974263091
4.2681264464281
4.27428091859311
4.280435390758093
4.292744335088111
4.27428091859311
4.2681264464281
4.249663029933098
4.237354085603107
4.225045141273086
4.2065817247780855
4.1942727804480935
4.1758093639530935
4.163500419623101
4.151191475293081
4.151191475293081
4.138882530963089
4.12657358663307
4.12657358663307
4.114264642303079
4.12657358663307
4.12657358663307
4.12657358663307
4.114264642303079
4.108110170138069
4.12657358663307
4.1327280587980795
4.120419114468088
4.108110170138069
4.108110170138069
4.114264642303079
4.101955697973087
4.095801225808079
4.0711833371480655
4.12657358663307
4.138882530963089
4.138882530963089
4.138882530963089
4.138882530963089
4.108110170138069
4.114264642303079
4.12657358663307
4.138882530963089
4.145037003128072
4.151191475293081
4.145037003128072
4.157345947458091
4.145037003128072
4.151191475293081
4.157345947458091
4.163500419623101
4.163500419623101
4.163500419623101
4.157345947458091
4.157345947458091
4.163500419623101
4.181963836118102
4.169654891788083
4.1758093639530935
4.1758093639530935
4.1758093639530935
4.1758093639530935
4.1758093639530935
4.188118308283084
4.181963836118102
4.181963836118102
4.188118308283084
4.181963836118102
4.181963836118102
4.169654891788083
4.157345947458091
4.169654891788083
4.1758093639530935
4.1758093639530935
4.188118308283084
4.181963836118102
4.188118308283084
4.181963836118102
4.181963836118102
4.188118308283084
4.188118308283084
4.181963836118102
4.181963836118102
4.1758093639530935
4.181963836118102
4.1758093639530935
4.181963836118102
4.188118308283084
4.181963836118102
4.1942727804480935
4.188118308283084
4.188118308283084
4.1942727804480935
4.1942727804480935
4.1942727804480935
4.188118308283084
4.1942727804480935
4.200427252613103
4.200427252613103
4.200427252613103
4.200427252613103
4.188118308283084
4.200427252613103
4.2065817247780855
4.2065817247780855
4.200427252613103
4.2065817247780855
4.2065817247780855
4.2065817247780855
4.200427252613103
4.2065817247780855
4.212736196943095
4.218890669108104
4.218890669108104
4.212736196943095
4.218890669108104
4.212736196943095
4.212736196943095
4.212736196943095
4.212736196943095
4.218890669108104
4.218890669108104
4.225045141273086
4.225045141273086
4.212736196943095
4.1942727804480935
4.2065817247780855
4.225045141273086
4.243508557768089
4.255817502098108
4.255817502098108
4.249663029933098
4.243508557768089
4.243508557768089
4.231199613438097
4.243508557768089
4.237354085603107
4.231199613438097
4.225045141273086
4.212736196943095
4.2065817247780855
4.218890669108104
4.218890669108104
4.2065817247780855
4.212736196943095
4.212736196943095
4.218890669108104
4.212736196943095
4.2065817247780855
4.2065817247780855
4.2065817247780855
4.212736196943095
4.212736196943095
4.212736196943095
4.181963836118102
4.145037003128072
4.1942727804480935
4.2681264464281
4.360443528903107
4.434297194883113
4.477378500038126
4.471224027873144
4.397370361893111
4.329671168078114
4.261971974263091
4.188118308283084
4.114264642303079
4.101955697973087
4.1327280587980795
4.157345947458091
4.2065817247780855
4.237354085603107
4.243508557768089
4.249663029933098
4.249663029933098
4.255817502098108
4.255817502098108
4.2681264464281
4.2681264464281
4.249663029933098
4.255817502098108
4.261971974263091
4.261971974263091
4.261971974263091
4.27428091859311
4.27428091859311
4.27428091859311
4.2865898629231
4.2865898629231
4.292744335088111
4.292744335088111
4.292744335088111
4.2865898629231
4.2865898629231
4.280435390758093
4.292744335088111
4.3173622237481215
4.335825640243124
4.341980112408105
4.348134584573115
4.341980112408105
4.341980112408105
4.329671168078114
4.3173622237481215
4.323516695913104
4.341980112408105
4.341980112408105
4.354289056738125
4.348134584573115
4.360443528903107
4.354289056738125
4.366598001068117
4.3727524732331275
4.37890694539811
4.37890694539811
4.391215889728128
4.397370361893111
4.397370361893111
4.40352483405812
4.421988250553122
4.415833778388112
4.40967930622313
4.415833778388112
4.40967930622313
4.40967930622313
4.40352483405812
4.397370361893111
4.391215889728128
4.37890694539811
4.360443528903107
4.348134584573115
4.329671168078114
4.3112077515831135
4.305053279418103
4.2865898629231
4.27428091859311
4.27428091859311
4.2681264464281
4.261971974263091
4.255817502098108
4.249663029933098
4.237354085603107
4.243508557768089
4.243508557768089
4.231199613438097
4.243508557768089
4.243508557768089
4.243508557768089
4.237354085603107
4.237354085603107
4.237354085603107
4.237354085603107
4.243508557768089
4.249663029933098
4.249663029933098
4.243508557768089
4.249663029933098
4.249663029933098
4.243508557768089
4.243508557768089
4.243508557768089
4.243508557768089
4.249663029933098
4.255817502098108
4.255817502098108
4.249663029933098
4.255817502098108
4.255817502098108
4.249663029933098
4.249663029933098
4.249663029933098
4.249663029933098
4.243508557768089
4.1942727804480935
4.255817502098108
4.298898807253093
4.27428091859311
4.212736196943095
4.261971974263091
4.27428091859311
4.2681264464281
4.243508557768089
4.249663029933098
4.261971974263091
4.280435390758093
4.280435390758093
4.2865898629231
4.292744335088111
4.292744335088111
4.298898807253093
4.298898807253093
4.292744335088111
4.292744335088111
4.298898807253093
4.298898807253093
4.292744335088111
4.2865898629231
4.298898807253093
4.305053279418103
4.305053279418103
4.298898807253093
4.298898807253093
4.292744335088111
4.298898807253093
4.292744335088111
4.292744335088111
4.305053279418103
4.305053279418103
4.305053279418103
4.3112077515831135
4.305053279418103
4.3112077515831135
4.323516695913104
4.3112077515831135
4.3112077515831135
4.323516695913104
4.3173622237481215
4.3112077515831135
4.3112077515831135
4.3173622237481215
4.3173622237481215
4.329671168078114
4.354289056738125
4.360443528903107
4.360443528903107
4.354289056738125
4.354289056738125
4.366598001068117
4.354289056738125
4.354289056738125
4.341980112408105
4.348134584573115
4.354289056738125
4.354289056738125
4.366598001068117
4.360443528903107
4.360443528903107
4.360443528903107
4.360443528903107
4.348134584573115
4.341980112408105
4.360443528903107
4.341980112408105
4.335825640243124
4.335825640243124
4.341980112408105
4.341980112408105
4.341980112408105
4.354289056738125
4.348134584573115
4.354289056738125
4.335825640243124
4.348134584573115
4.354289056738125
4.3727524732331275
4.385061417563119
4.385061417563119
4.366598001068117
4.366598001068117
4.360443528903107
4.360443528903107
4.354289056738125
4.341980112408105
4.335825640243124
4.341980112408105
4.335825640243124
4.329671168078114
4.323516695913104
4.335825640243124
4.366598001068117
4.3727524732331275
4.385061417563119
4.366598001068117
4.348134584573115
4.354289056738125
4.360443528903107
4.360443528903107
4.385061417563119
4.391215889728128
4.385061417563119
4.360443528903107
4.354289056738125
4.348134584573115
4.40967930622313
4.495841916533129
4.551232166018132
4.588158999008135
4.618931359833156
4.569695582513134
4.483532972203136
4.391215889728128
4.298898807253093
4.2065817247780855
4.145037003128072
4.145037003128072
4.163500419623101
4.188118308283084
4.237354085603107
4.237354085603107
4.181963836118102
4.255817502098108
4.2681264464281
4.255817502098108
4.243508557768089
4.249663029933098
4.243508557768089
4.2065817247780855
4.212736196943095
4.231199613438097
4.225045141273086
4.225045141273086
4.231199613438097
4.225045141273086
4.225045141273086
4.225045141273086
4.225045141273086
4.237354085603107
4.249663029933098
4.249663029933098
4.249663029933098
4.243508557768089
4.237354085603107
4.237354085603107
4.255817502098108
4.255817502098108
4.249663029933098
4.261971974263091
4.255817502098108
4.255817502098108
4.2681264464281
4.27428091859311
4.280435390758093
4.2865898629231
4.280435390758093
4.27428091859311
4.27428091859311
4.2865898629231
4.280435390758093
4.292744335088111
4.305053279418103
4.323516695913104
4.3173622237481215
4.323516695913104
4.323516695913104
4.323516695913104
4.329671168078114
4.335825640243124
4.329671168078114
4.323516695913104
4.329671168078114
4.323516695913104
4.323516695913104
4.323516695913104
4.3173622237481215
4.298898807253093
4.2865898629231
4.27428091859311
4.261971974263091
4.243508557768089
4.231199613438097
4.225045141273086
4.2065817247780855
4.200427252613103
4.2065817247780855
4.1942727804480935
4.181963836118102
4.1758093639530935
4.1758093639530935
4.169654891788083
4.169654891788083
4.169654891788083
4.181963836118102
4.188118308283084
4.181963836118102
4.181963836118102
4.188118308283084
4.1758093639530935
4.1942727804480935
4.200427252613103
4.1942727804480935
4.2065817247780855
4.2065817247780855
4.200427252613103
4.200427252613103
4.212736196943095
4.231199613438097
4.237354085603107
4.261971974263091
4.477378500038126
4.772793163958178
4.945118384578201
5.05589888354821
5.160524910353237
5.252841992828244
5.33285013097326
5.4005493247882566
5.455939574273261
5.511329823758264
5.554411128913278
5.6036469062333
5.640573739223304
5.6713461000482965
5.695963988708308
5.726736349533301
5.73904529386332
5.769817654688314
5.788281071183316
5.806744487678317
5.83751684850331
5.84982579283333
5.874443681493341
5.8805981536583225
5.886752625823332
5.899061570153325
5.905216042318334
5.911370514483344
5.929833930978346
5.935988403143328
5.9421428753083365
5.935988403143328
5.929833930978346
5.899061570153325
5.954451819638329
5.929833930978346
5.929833930978346
5.9421428753083365
5.935988403143328
5.935988403143328
5.935988403143328
5.935988403143328
5.9421428753083365
5.935988403143328
5.917524986648326
5.917524986648326
5.911370514483344
5.917524986648326
5.911370514483344
5.911370514483344
5.899061570153325
5.892907097988342
5.892907097988342
5.892907097988342
5.886752625823332
5.8805981536583225
5.874443681493341
5.874443681493341
5.862134737163322
5.8559802649983395
5.8559802649983395
5.8559802649983395
5.8559802649983395
5.84982579283333
5.83751684850331
5.83751684850331
5.812898959843328
5.806744487678317
5.806744487678317
5.806744487678317
5.81905343200831
5.831362376338328
5.812898959843328
5.800590015513308
5.769817654688314
5.769817654688314
5.763663182523304
5.757508710358322
5.757508710358322
5.751354238193313
5.7328908216983105
5.714427405203311
5.7082729330383
5.714427405203311
5.714427405203311
5.7082729330383
5.695963988708308
5.6898095165432965
5.677500572213306
5.6713461000482965
5.6590371557183055
5.646728211388286
5.628264794893284
5.628264794893284
5.615955850563292
5.597492434068291
5.591337961903281
5.535947712418277
5.554411128913278
5.683655044378289
5.73904529386332
5.788281071183316
5.81905343200831
5.775972126853325
5.695963988708308
5.585183489738299
5.505175351593283
5.419012741283257
5.357468019633243
5.345159075303252
5.369776963963263
5.382085908293255
5.425167213448267
5.455939574273261
5.468248518603279
5.462094046438272
5.462094046438272
5.455939574273261
5.449785102108279
5.437476157778259
5.437476157778259
5.431321685613277
5.431321685613277
5.419012741283257
5.412858269118276
5.406703796953265
5.406703796953265
5.4005493247882566
5.4005493247882566
5.394394852623274
5.394394852623274
5.394394852623274
5.388240380458265
5.375931436128245
5.375931436128245
5.363622491798253
5.357468019633243
5.351313547468262
5.351313547468262
5.3390046031382425
5.326695658808251
5.320541186643241
5.326695658808251
5.31438671447826
5.31438671447826
5.31438671447826
5.31438671447826
5.308232242313249
5.31438671447826
5.308232242313249
5.302077770148239
5.302077770148239
5.31438671447826
5.326695658808251
5.31438671447826
5.265150937158236
5.33285013097326
5.3390046031382425
5.3390046031382425
5.3390046031382425
5.320541186643241
5.326695658808251
5.33285013097326
5.320541186643241
5.326695658808251
5.33285013097326
5.326695658808251
5.302077770148239
5.283614353653239
5.265150937158236
5.258996464993254
5.2405330484982535
5.228224104168233
5.19745174334324
5.185142799013221
5.160524910353237
5.135907021693225
5.129752549528216
5.123598077363234
5.105134660868233
5.0743623000432105
5.068207827878203
5.062053355713221
5.037435467053208
4.994354161898196
4.895882607258178
4.797411052618189
4.5943134711731455
4.243508557768089
3.781923145393024
3.006459652602933
2.175605910327811
1.7817196917677414
1.578622110322725
1.510922916507701
1.4863050278477177
1.4493781948577145
1.4555326670226965
1.473996083517698
1.4924595000126994
1.5170773886727107
1.5416952773327224
1.5847765824877347
1.6278578876427194
1.6524757763027313
1.677093664962742
1.7078660257877356
1.7386383866127564
1.7694107474377496
1.8001831082627426
1.818646524757745
1.849418885582765
1.8740367742427766
1.9048091350677696
1.9355814958927628
1.966353856717784
1.990971745377768
2.0217441062027888
2.052516467027782
2.0955977721827947
2.120215660842805
2.1632969659978185
2.1817603824928202
2.2063782711528033
2.2309961598128147
2.249459576307816
2.2802319371328093
2.298695353627811
2.3171587701228398
2.347931130947833
2.391012436102846
2.4156303247628297
2.4217847969278394
2.434093741257831
2.4402482134228407
2.4525571577528327
2.483329518577854
2.507947407237865
2.5325652958978484
2.544874240227868
2.5694921288878514
2.5941100175478624
2.618727906207874
2.618727906207874
2.6371913227028756
2.667963683527869
2.680272627857888
2.704890516517872
2.7171994608478913
2.723353933012873
2.735662877342893
2.735662877342893
2.754126293837894
2.797207598992907
2.7910531268278973
2.7910531268278973
2.8279799598179
2.858752320642893
2.858752320642893
2.877215737137895
2.9264515144579173
2.9202970422929075
2.9202970422929075
2.9387604587879093
2.9387604587879093
2.944914930952919
2.9633783474479203
3.0003051804379233
3.0126141247679152
3.0003051804379233
3.0126141247679152
3.018768596932925
3.018768596932925
3.049540957757918
3.074158846417929
3.092622262912931
3.0618499020879373
3.0126141247679152
3.141858040232953
3.197248289717957
3.2034027618829395
3.215711706212959
3.215711706212959
3.215711706212959
3.215711706212959
3.191093817552948
3.191093817552948
3.221866178377941
3.234175122707961
3.2526385392029624
3.2464840670379527
3.2464840670379527
3.271101955697964
3.2957198443579747
3.308028788687967
3.308028788687967
3.3141832608529764
3.3511100938429803
3.3695735103379807
3.3695735103379807
3.375727982502963
3.3880369268329824
3.394191398997992
3.412654815492993
3.4003458711629735
3.418809287657976
3.418809287657976
3.4434271763179867
3.504971897968001
3.609597924773
3.6896060629180156
3.7265328959080186
3.732687368073029
3.652679229928013
3.591134508277999
3.541898730958004
3.48035400930799
3.412654815492993
3.3880369268329824
3.412654815492993
3.4741995371429804
3.560362147453006
3.5972889804430093
3.5972889804430093
3.578825563948007
3.6034434526080172
3.6219068691030203
3.61575239693801
3.5972889804430093
3.61575239693801
3.6280613412680016
3.640370285598021
3.658833702093023
3.6896060629180156
3.720378423743037
3.7265328959080186
3.695760535083026
3.7080694794130173
3.7265328959080186
3.7265328959080186
3.7265328959080186
3.75115078456803
3.75115078456803
3.75115078456803
3.763459728898022
3.781923145393024
3.800386561888025
3.800386561888025
3.7757686732280415
3.7757686732280415
3.800386561888025
3.825004450548036
3.8496223392080475
3.8496223392080475
3.874240227868059
3.8803947000330408
3.8988581165280416
3.9173215330230438
3.9173215330230438
3.9357849495180455
3.948093893848065
3.9542483660130467
3.9357849495180455
3.9419394216830552
3.9788662546730578
3.9604028381780574
3.9604028381780574
3.9665573103430645
3.9727117825080467
3.9850207268380675
4.009638615498079
4.040410976323072
4.0465654484880815
4.0465654484880815
4.065028864983084
4.0465654484880815
4.0465654484880815
4.058874392818074
4.058874392818074
4.058874392818074
4.052719920653064
4.040410976323072
4.028102031993082
4.015793087663061
4.009638615498079
3.9973296711680604
3.9788662546730578
3.9788662546730578
3.9727117825080467
3.9665573103430645
3.9727117825080467
3.9665573103430645
3.948093893848065
3.9296304773530633
3.9111670608580615
3.905012588693053
3.905012588693053
3.9111670608580615
3.9357849495180455
3.8927036443630603
3.9357849495180455
3.9419394216830552
3.9234760051880535
3.9234760051880535
3.9727117825080467
3.948093893848065
3.9296304773530633
3.9357849495180455
3.9296304773530633
3.9111670608580615
3.886549172198051
3.9665573103430645
3.9665573103430645
3.9604028381780574
3.9665573103430645
3.9788662546730578
3.9850207268380675
3.9665573103430645
3.9542483660130467
3.9604028381780574
3.9665573103430645
3.9727117825080467
3.9973296711680604
4.028102031993082
4.003484143333068
3.9788662546730578
3.9973296711680604
4.003484143333068
4.003484143333068
3.9973296711680604
4.009638615498079
4.015793087663061
4.028102031993082
4.040410976323072
4.028102031993082
4.028102031993082
4.034256504158063
4.0465654484880815
4.0465654484880815
4.058874392818074
4.058874392818074
4.040410976323072
4.040410976323072
4.034256504158063
4.028102031993082
4.034256504158063
4.0465654484880815
4.0465654484880815
4.040410976323072
4.040410976323072
4.0465654484880815
4.040410976323072
4.058874392818074
4.065028864983084
4.083492281478085
4.077337809313075
4.065028864983084
4.0465654484880815
4.0465654484880815
4.0465654484880815
4.0465654484880815
4.040410976323072
4.058874392818074
4.101955697973087
4.114264642303079
4.120419114468088
4.12657358663307
4.138882530963089
4.138882530963089
4.151191475293081
4.151191475293081
4.157345947458091
4.157345947458091
4.145037003128072
4.12657358663307
4.101955697973087
4.089646753643067
4.108110170138069
4.089646753643067
4.0711833371480655
4.0711833371480655
4.083492281478085
4.089646753643067
4.083492281478085
4.089646753643067
4.089646753643067
4.114264642303079
4.1327280587980795
4.120419114468088
4.101955697973087
4.114264642303079
4.114264642303079
4.12657358663307
4.120419114468088
4.108110170138069
4.108110170138069
4.089646753643067
4.089646753643067
4.095801225808079
4.101955697973087
4.108110170138069
4.108110170138069
4.108110170138069
4.095801225808079
4.101955697973087
4.101955697973087
4.108110170138069
4.101955697973087
4.108110170138069
4.114264642303079
4.114264642303079
4.095801225808079
4.089646753643067
4.083492281478085
4.101955697973087
4.157345947458091
4.237354085603107
4.329671168078114
4.366598001068117
4.348134584573115
4.2865898629231
4.181963836118102
4.151191475293081
4.058874392818074
3.9850207268380675
3.9727117825080467
3.9911751990030497
3.9911751990030497
4.0465654484880815
4.095801225808079
4.114264642303079
4.114264642303079
4.120419114468088
4.12657358663307
4.120419114468088
4.1327280587980795
4.1327280587980795
4.145037003128072
4.1327280587980795
4.145037003128072
4.145037003128072
4.138882530963089
4.151191475293081
4.145037003128072
4.145037003128072
4.151191475293081
4.151191475293081
4.145037003128072
4.145037003128072
4.157345947458091
4.163500419623101
4.1758093639530935
4.1758093639530935
4.188118308283084
4.2065817247780855
4.212736196943095
4.2065817247780855
4.218890669108104
4.225045141273086
4.231199613438097
4.237354085603107
4.243508557768089
4.249663029933098
4.249663029933098
4.261971974263091
4.261971974263091
4.255817502098108
4.2681264464281
4.2681264464281
4.27428091859311
4.2865898629231
4.292744335088111
4.305053279418103
4.3112077515831135
4.3112077515831135
4.3112077515831135
4.3173622237481215
4.329671168078114
4.329671168078114
4.335825640243124
4.329671168078114
4.329671168078114
4.329671168078114
4.329671168078114
4.329671168078114
4.329671168078114
4.3173622237481215
4.292744335088111
4.2681264464281
4.237354085603107
4.243508557768089
4.231199613438097
4.212736196943095
4.2065817247780855
4.2065817247780855
4.200427252613103
4.188118308283084
4.188118308283084
4.188118308283084
4.169654891788083
4.169654891788083
4.169654891788083
4.169654891788083
4.163500419623101
4.1758093639530935
4.169654891788083
4.1758093639530935
4.1758093639530935
4.1758093639530935
4.1758093639530935
4.1758093639530935
4.169654891788083
4.163500419623101
4.145037003128072
4.151191475293081
4.151191475293081
4.145037003128072
4.138882530963089
4.1327280587980795
4.1327280587980795
4.120419114468088
4.1327280587980795
4.138882530963089
4.1327280587980795
4.101955697973087
4.095801225808079
4.083492281478085
4.065028864983084
4.065028864983084
4.0711833371480655
4.0711833371480655
4.058874392818074
4.065028864983084
4.052719920653064
4.052719920653064
4.0465654484880815
4.034256504158063
4.0465654484880815
4.065028864983084
4.058874392818074
4.065028864983084
4.0711833371480655
4.0465654484880815
3.9911751990030497
4.040410976323072
4.0711833371480655
4.077337809313075
4.083492281478085
4.089646753643067
4.089646753643067
4.089646753643067
4.095801225808079
4.077337809313075
4.0711833371480655
4.089646753643067
4.108110170138069
4.101955697973087
4.095801225808079
4.095801225808079
4.095801225808079
4.101955697973087
4.101955697973087
4.095801225808079
4.095801225808079
4.095801225808079
4.101955697973087
4.095801225808079
4.101955697973087
4.101955697973087
4.108110170138069
4.12657358663307
4.1327280587980795
4.12657358663307
4.12657358663307
4.120419114468088
4.12657358663307
4.138882530963089
4.1327280587980795
4.145037003128072
4.145037003128072
4.138882530963089
4.145037003128072
4.145037003128072
4.145037003128072
4.151191475293081
4.157345947458091
4.157345947458091
4.169654891788083
4.181963836118102
4.1942727804480935
4.2065817247780855
4.1942727804480935
4.181963836118102
4.1942727804480935
4.1942727804480935
4.1942727804480935
4.1942727804480935
4.181963836118102
4.1758093639530935
4.157345947458091
4.151191475293081
4.157345947458091
4.157345947458091
4.157345947458091
4.169654891788083
4.1758093639530935
4.1758093639530935
4.181963836118102
4.169654891788083
4.1758093639530935
4.188118308283084
4.200427252613103
4.1942727804480935
4.188118308283084
4.1758093639530935
4.1758093639530935
4.163500419623101
4.188118308283084
4.243508557768089
4.323516695913104
4.37890694539811
4.385061417563119
4.298898807253093
4.3173622237481215
4.2681264464281
4.181963836118102
4.101955697973087
4.040410976323072
4.028102031993082
4.034256504158063
4.021947559828071
4.077337809313075
4.12657358663307
4.157345947458091
4.157345947458091
4.163500419623101
4.169654891788083
4.163500419623101
4.163500419623101
4.169654891788083
4.169654891788083
4.181963836118102
4.181963836118102
4.1758093639530935
4.1758093639530935
4.1758093639530935
4.200427252613103
4.2065817247780855
4.212736196943095
4.2065817247780855
4.2065817247780855
4.218890669108104
4.212736196943095
4.1942727804480935
4.200427252613103
4.2065817247780855
4.212736196943095
4.2065817247780855
4.212736196943095
4.212736196943095
4.2065817247780855
4.200427252613103
4.200427252613103
4.200427252613103
4.200427252613103
4.163500419623101
4.225045141273086
4.231199613438097
4.231199613438097
4.1942727804480935
4.218890669108104
4.237354085603107
4.237354085603107
4.243508557768089
4.237354085603107
4.237354085603107
4.261971974263091
4.261971974263091
4.2681264464281
4.2681264464281
4.261971974263091
4.261971974263091
4.2681264464281
4.2681264464281
4.27428091859311
4.2681264464281
4.27428091859311
4.261971974263091
4.255817502098108
4.237354085603107
4.225045141273086
4.2065817247780855
4.1942727804480935
4.188118308283084
4.181963836118102
4.1758093639530935
4.1758093639530935
4.169654891788083
4.151191475293081
4.145037003128072
4.138882530963089
4.138882530963089
4.145037003128072
4.12657358663307
4.120419114468088
4.1327280587980795
4.157345947458091
4.145037003128072
4.1327280587980795
4.138882530963089
4.1327280587980795
4.1327280587980795
4.138882530963089
4.12657358663307
4.138882530963089
4.145037003128072
4.145037003128072
4.145037003128072
4.151191475293081
4.138882530963089
4.145037003128072
4.157345947458091
4.163500419623101
4.163500419623101
4.1758093639530935
4.1758093639530935
4.188118308283084
4.188118308283084
4.181963836118102
4.181963836118102
4.181963836118102
4.188118308283084
4.181963836118102
4.188118308283084
4.200427252613103
4.200427252613103
4.212736196943095
4.200427252613103
4.1942727804480935
4.200427252613103
4.200427252613103
4.212736196943095
4.212736196943095
4.2065817247780855
4.212736196943095
4.212736196943095
4.2065817247780855
4.1942727804480935
4.200427252613103
4.2065817247780855
4.2065817247780855
4.2065817247780855
4.218890669108104
4.212736196943095
4.212736196943095
4.212736196943095
4.212736196943095
4.218890669108104
4.218890669108104
4.218890669108104
4.231199613438097
4.231199613438097
4.218890669108104
4.231199613438097
4.231199613438097
4.237354085603107
4.225045141273086
4.225045141273086
4.225045141273086
4.218890669108104
4.212736196943095
4.218890669108104
4.212736196943095
4.212736196943095
4.212736196943095
4.212736196943095
4.212736196943095
4.212736196943095
4.212736196943095
4.231199613438097
4.225045141273086
4.212736196943095
4.225045141273086
4.249663029933098
4.2681264464281
4.261971974263091
4.243508557768089
4.2065817247780855
4.261971974263091
4.27428091859311
4.261971974263091
4.261971974263091
4.249663029933098
4.231199613438097
4.1942727804480935
4.200427252613103
4.225045141273086
4.237354085603107
4.237354085603107
4.225045141273086
4.218890669108104
4.212736196943095
4.200427252613103
4.1942727804480935
4.188118308283084
4.1758093639530935
4.163500419623101
4.151191475293081
4.145037003128072
4.145037003128072
4.145037003128072
4.157345947458091
4.163500419623101
4.1758093639530935
4.181963836118102
4.181963836118102
4.1758093639530935
4.1758093639530935
4.1758093639530935
4.181963836118102
4.1942727804480935
4.188118308283084
4.181963836118102
4.1758093639530935
4.1758093639530935
4.2065817247780855
4.261971974263091
4.335825640243124
4.415833778388112
4.446606139213133
4.434297194883113
4.37890694539811
4.329671168078114
4.249663029933098
4.157345947458091
4.083492281478085
4.052719920653064
4.0711833371480655
4.101955697973087
4.157345947458091
4.188118308283084
4.1942727804480935
4.1942727804480935
4.212736196943095
4.2065817247780855
4.212736196943095
4.2065817247780855
4.200427252613103
4.2065817247780855
4.212736196943095
4.200427252613103
4.212736196943095
4.218890669108104
4.225045141273086
4.225045141273086
4.243508557768089
4.249663029933098
4.2681264464281
4.2865898629231
4.2865898629231
4.27428091859311
4.27428091859311
4.2865898629231
4.298898807253093
4.305053279418103
4.3112077515831135
4.305053279418103
4.305053279418103
4.3112077515831135
4.298898807253093
4.2865898629231
4.292744335088111
4.292744335088111
4.305053279418103
4.305053279418103
4.3173622237481215
4.329671168078114
4.335825640243124
4.329671168078114
4.329671168078114
4.329671168078114
4.335825640243124
4.354289056738125
4.366598001068117
4.360443528903107
4.366598001068117
4.37890694539811
4.366598001068117
4.3727524732331275
4.37890694539811
4.385061417563119
4.385061417563119
4.391215889728128
4.391215889728128
4.37890694539811
4.3727524732331275
4.341980112408105
4.323516695913104
4.329671168078114
4.3173622237481215
4.3112077515831135
4.292744335088111
4.27428091859311
4.261971974263091
4.255817502098108
4.243508557768089
4.249663029933098
4.237354085603107
4.212736196943095
4.163500419623101
4.243508557768089
4.2065817247780855
4.218890669108104
4.218890669108104
4.2065817247780855
4.2065817247780855
4.2065817247780855
4.2065817247780855
4.200427252613103
4.2065817247780855
4.2065817247780855
4.200427252613103
4.2065817247780855
4.1942727804480935
4.188118308283084
4.1942727804480935
4.188118308283084
4.1942727804480935
4.1942727804480935
4.1942727804480935
4.200427252613103
4.200427252613103
4.1942727804480935
4.1942727804480935
4.145037003128072
4.181963836118102
4.243508557768089
4.225045141273086
4.225045141273086
4.218890669108104
4.225045141273086
4.212736196943095
4.169654891788083
4.169654891788083
4.188118308283084
4.200427252613103
4.2065817247780855
4.2065817247780855
4.2065817247780855
4.200427252613103
4.200427252613103
4.2065817247780855
4.2065817247780855
4.2065817247780855
4.218890669108104
4.218890669108104
4.2065817247780855
4.200427252613103
4.2065817247780855
4.200427252613103
4.200427252613103
4.200427252613103
4.2065817247780855
4.200427252613103
4.2065817247780855
4.200427252613103
4.2065817247780855
4.212736196943095
4.218890669108104
4.212736196943095
4.212736196943095
4.212736196943095
4.212736196943095
4.212736196943095
4.218890669108104
4.231199613438097
4.231199613438097
4.225045141273086
4.218890669108104
4.212736196943095
4.212736196943095
4.218890669108104
4.218890669108104
4.225045141273086
4.225045141273086
4.225045141273086
4.225045141273086
4.218890669108104
4.212736196943095
4.218890669108104
4.237354085603107
4.237354085603107
4.237354085603107
4.231199613438097
4.231199613438097
4.237354085603107
4.231199613438097
4.212736196943095
4.225045141273086
4.231199613438097
4.225045141273086
4.225045141273086
4.225045141273086
4.225045141273086
4.225045141273086
4.212736196943095
4.225045141273086
4.237354085603107
4.231199613438097
4.218890669108104
4.218890669108104
4.231199613438097
4.261971974263091
4.27428091859311
4.2681264464281
4.261971974263091
4.255817502098108
4.255817502098108
4.249663029933098
4.249663029933098
4.243508557768089
4.243508557768089
4.231199613438097
4.225045141273086
4.231199613438097
4.225045141273086
4.2065817247780855
4.218890669108104
4.218890669108104
4.225045141273086
4.218890669108104
4.181963836118102
4.237354085603107
4.243508557768089
4.237354085603107
4.218890669108104
4.188118308283084
4.1942727804480935
4.200427252613103
4.188118308283084
4.212736196943095
4.255817502098108
4.329671168078114
4.40967930622313
4.458915083543125
4.489687444368147
4.446606139213133
4.3727524732331275
4.305053279418103
4.212736196943095
4.12657358663307
4.077337809313075
4.083492281478085
4.114264642303079
4.169654891788083
4.2065817247780855
4.218890669108104
4.2065817247780855
4.2065817247780855
4.218890669108104
4.237354085603107
4.231199613438097
4.231199613438097
4.231199613438097
4.231199613438097
4.218890669108104
4.218890669108104
4.212736196943095
4.231199613438097
4.237354085603107
4.237354085603107
4.249663029933098
4.243508557768089
4.249663029933098
4.231199613438097
4.225045141273086
4.237354085603107
4.249663029933098
4.261971974263091
4.261971974263091
4.255817502098108
4.2681264464281
4.261971974263091
4.2681264464281
4.2681264464281
4.2681264464281
4.2681264464281
4.280435390758093
4.27428091859311
4.2865898629231
4.280435390758093
4.292744335088111
4.292744335088111
4.2865898629231
4.2865898629231
4.298898807253093
4.298898807253093
4.3112077515831135
4.305053279418103
4.305053279418103
4.3173622237481215
4.323516695913104
4.329671168078114
4.335825640243124
4.354289056738125
4.366598001068117
4.3727524732331275
4.366598001068117
4.354289056738125
4.366598001068117
4.366598001068117
4.348134584573115
4.329671168078114
4.3112077515831135
4.298898807253093
4.2865898629231
4.27428091859311
4.2681264464281
4.255817502098108
4.243508557768089
4.231199613438097
4.225045141273086
4.225045141273086
4.212736196943095
4.212736196943095
4.200427252613103
4.1942727804480935
4.188118308283084
4.1942727804480935
4.1942727804480935
4.188118308283084
4.181963836118102
4.188118308283084
4.1942727804480935
4.1942727804480935
4.1942727804480935
4.1942727804480935
4.200427252613103
4.2065817247780855
4.212736196943095
4.2065817247780855
4.2065817247780855
4.2065817247780855
4.2065817247780855
4.218890669108104
4.2065817247780855
4.218890669108104
4.225045141273086
4.212736196943095
4.218890669108104
4.212736196943095
4.225045141273086
4.2065817247780855
4.145037003128072
4.249663029933098
4.249663029933098
4.237354085603107
4.231199613438097
4.225045141273086
4.225045141273086
4.212736196943095
4.181963836118102
4.1942727804480935
4.2065817247780855
4.2065817247780855
4.2065817247780855
4.1942727804480935
4.200427252613103
4.212736196943095
4.2065817247780855
4.212736196943095
4.2065817247780855
4.218890669108104
4.231199613438097
4.218890669108104
4.212736196943095
4.212736196943095
4.218890669108104
4.225045141273086
4.225045141273086
4.218890669108104
4.225045141273086
4.218890669108104
4.218890669108104
4.218890669108104
4.218890669108104
4.225045141273086
4.218890669108104
4.218890669108104
4.212736196943095
4.212736196943095
4.218890669108104
4.218890669108104
4.218890669108104
4.225045141273086
4.218890669108104
4.218890669108104
4.218890669108104
4.218890669108104
4.218890669108104
4.212736196943095
4.225045141273086
4.225045141273086
4.218890669108104
4.218890669108104
4.218890669108104
4.218890669108104
4.218890669108104
4.218890669108104
4.231199613438097
4.237354085603107
4.237354085603107
4.231199613438097
4.249663029933098
4.255817502098108
4.255817502098108
4.255817502098108
4.27428091859311
4.261971974263091
4.261971974263091
4.2681264464281
4.27428091859311
4.2865898629231
4.2865898629231
4.2865898629231
4.2681264464281
4.2681264464281
4.280435390758093
4.298898807253093
4.3173622237481215
4.305053279418103
4.292744335088111
4.298898807253093
4.298898807253093
4.298898807253093
4.298898807253093
4.2865898629231
4.280435390758093
4.2681264464281
4.261971974263091
4.261971974263091
4.249663029933098
4.261971974263091
4.255817502098108
4.255817502098108
4.255817502098108
4.231199613438097
4.2065817247780855
4.280435390758093
4.280435390758093
4.280435390758093
4.2681264464281
4.261971974263091
4.249663029933098
4.218890669108104
4.212736196943095
4.237354085603107
4.298898807253093
4.366598001068117
4.440451667048122
4.477378500038126
4.483532972203136
4.415833778388112
4.366598001068117
4.305053279418103
4.212736196943095
4.138882530963089
4.114264642303079
4.12657358663307
4.138882530963089
4.163500419623101
4.212736196943095
4.243508557768089
4.243508557768089
4.243508557768089
4.1942727804480935
4.2681264464281
4.2865898629231
4.231199613438097
4.231199613438097
4.249663029933098
4.249663029933098
4.261971974263091
4.2681264464281
4.2681264464281
4.2681264464281
4.280435390758093
4.2865898629231
4.280435390758093
4.280435390758093
4.2865898629231
4.292744335088111
4.280435390758093
4.280435390758093
4.292744335088111
4.2865898629231
4.2865898629231
4.2865898629231
4.292744335088111
4.2865898629231
4.292744335088111
4.298898807253093
4.305053279418103
4.305053279418103
4.305053279418103
4.305053279418103
4.3112077515831135
4.3173622237481215
4.3173622237481215
4.3173622237481215
4.323516695913104
4.329671168078114
4.348134584573115
4.341980112408105
4.348134584573115
4.341980112408105
4.348134584573115
4.348134584573115
4.360443528903107
4.366598001068117
4.366598001068117
4.3727524732331275
4.37890694539811
4.3727524732331275
4.3727524732331275
4.366598001068117
4.348134584573115
4.341980112408105
4.335825640243124
4.335825640243124
4.323516695913104
4.298898807253093
4.27428091859311
4.261971974263091
4.27428091859311
4.2681264464281
4.261971974263091
4.249663029933098
4.243508557768089
4.249663029933098
4.231199613438097
4.231199613438097
4.237354085603107
4.231199613438097
4.231199613438097
4.237354085603107
4.237354085603107
4.249663029933098
4.255817502098108
4.249663029933098
4.231199613438097
4.225045141273086
4.225045141273086
4.243508557768089
4.237354085603107
4.225045141273086
4.231199613438097
4.231199613438097
4.237354085603107
4.249663029933098
4.249663029933098
4.243508557768089
4.255817502098108
4.249663029933098
4.237354085603107
4.237354085603107
4.231199613438097
4.231199613438097
4.237354085603107
4.237354085603107
4.249663029933098
4.237354085603107
4.243508557768089
4.237354085603107
4.243508557768089
4.231199613438097
4.231199613438097
4.225045141273086
4.237354085603107
4.218890669108104
4.212736196943095
4.225045141273086
4.231199613438097
4.225045141273086
4.218890669108104
4.225045141273086
4.237354085603107
4.237354085603107
4.225045141273086
4.225045141273086
4.212736196943095
4.218890669108104
4.218890669108104
4.225045141273086
4.212736196943095
4.212736196943095
4.2065817247780855
4.163500419623101
4.225045141273086
4.237354085603107
4.243508557768089
4.231199613438097
4.212736196943095
4.1758093639530935
4.188118308283084
4.1942727804480935
4.2065817247780855
4.212736196943095
4.212736196943095
4.2065817247780855
4.1942727804480935
4.200427252613103
4.1942727804480935
4.188118308283084
4.200427252613103
4.200427252613103
4.2065817247780855
4.2065817247780855
4.1942727804480935
4.2065817247780855
4.200427252613103
4.2065817247780855
4.2065817247780855
4.200427252613103
4.1942727804480935
4.2065817247780855
4.212736196943095
4.218890669108104
4.218890669108104
4.218890669108104
4.212736196943095
4.218890669108104
4.225045141273086
4.218890669108104
4.212736196943095
4.200427252613103
4.2065817247780855
4.218890669108104
4.237354085603107
4.249663029933098
4.243508557768089
4.237354085603107
4.231199613438097
4.231199613438097
4.225045141273086
4.218890669108104
4.225045141273086
4.225045141273086
4.218890669108104
4.2065817247780855
4.2065817247780855
4.212736196943095
4.2065817247780855
4.2065817247780855
4.2065817247780855
4.218890669108104
4.218890669108104
4.212736196943095
4.212736196943095
4.212736196943095
4.2065817247780855
4.2065817247780855
4.2065817247780855
4.1942727804480935
4.1942727804480935
4.200427252613103
4.231199613438097
4.2865898629231
4.354289056738125
4.415833778388112
4.446606139213133
4.440451667048122
4.37890694539811
4.3173622237481215
4.249663029933098
4.1758093639530935
4.108110170138069
4.095801225808079
4.114264642303079
4.157345947458091
4.2065817247780855
4.225045141273086
4.249663029933098
4.261971974263091
4.255817502098108
4.249663029933098
4.255817502098108
4.249663029933098
4.237354085603107
4.237354085603107
4.249663029933098
4.249663029933098
4.261971974263091
4.2681264464281
4.27428091859311
4.2865898629231
4.298898807253093
4.298898807253093
4.298898807253093
4.305053279418103
4.292744335088111
4.280435390758093
4.2865898629231
4.292744335088111
4.292744335088111
4.305053279418103
4.298898807253093
4.298898807253093
4.2865898629231
4.280435390758093
4.292744335088111
4.292744335088111
4.292744335088111
4.292744335088111
4.292744335088111
4.305053279418103
4.323516695913104
4.323516695913104
4.3112077515831135
4.261971974263091
4.298898807253093
4.3112077515831135
4.3173622237481215
4.323516695913104
4.329671168078114
4.323516695913104
4.335825640243124
4.335825640243124
4.341980112408105
4.341980112408105
4.354289056738125
4.348134584573115
4.335825640243124
4.329671168078114
4.329671168078114
4.3173622237481215
4.3112077515831135
4.3112077515831135
4.298898807253093
4.292744335088111
4.261971974263091
4.237354085603107
4.225045141273086
4.225045141273086
4.218890669108104
4.2065817247780855
4.200427252613103
4.181963836118102
4.169654891788083
4.169654891788083
4.163500419623101
4.157345947458091
4.163500419623101
4.169654891788083
4.157345947458091
4.1758093639530935
4.188118308283084
4.188118308283084
4.1758093639530935
4.1327280587980795
4.2065817247780855
4.218890669108104
4.225045141273086
4.237354085603107
4.237354085603107
4.237354085603107
4.2065817247780855
4.181963836118102
4.1942727804480935
4.2065817247780855
4.212736196943095
4.212736196943095
4.212736196943095
4.218890669108104
4.218890669108104
4.218890669108104
4.2065817247780855
4.1942727804480935
4.200427252613103
4.200427252613103
4.2065817247780855
4.2065817247780855
4.2065817247780855
4.2065817247780855
4.2065817247780855
4.212736196943095
4.218890669108104
4.218890669108104
4.212736196943095
4.212736196943095
4.2065817247780855
4.2065817247780855
4.212736196943095
4.225045141273086
4.212736196943095
4.212736196943095
4.2065817247780855
4.2065817247780855
4.2065817247780855
4.2065817247780855
4.2065817247780855
4.2065817247780855
4.212736196943095
4.1942727804480935
4.181963836118102
4.1758093639530935
4.181963836118102
4.188118308283084
4.188118308283084
4.188118308283084
4.1758093639530935
4.163500419623101
4.145037003128072
4.145037003128072
4.163500419623101
4.163500419623101
4.157345947458091
4.157345947458091
4.151191475293081
4.145037003128072
4.145037003128072
4.1327280587980795
4.138882530963089
4.145037003128072
4.138882530963089
4.138882530963089
4.1327280587980795
4.145037003128072
4.151191475293081
4.138882530963089
4.151191475293081
4.151191475293081
4.151191475293081
4.138882530963089
4.138882530963089
4.138882530963089
4.145037003128072
4.145037003128072
4.145037003128072
4.157345947458091
4.138882530963089
4.108110170138069
4.181963836118102
4.200427252613103
4.181963836118102
4.163500419623101
4.188118308283084
4.188118308283084
4.1942727804480935
4.1942727804480935
4.2065817247780855
4.218890669108104
4.243508557768089
4.243508557768089
4.237354085603107
4.225045141273086
4.218890669108104
4.212736196943095
4.200427252613103
4.200427252613103
4.200427252613103
4.200427252613103
4.1942727804480935
4.188118308283084
4.188118308283084
4.181963836118102
4.1758093639530935
4.169654891788083
4.157345947458091
4.163500419623101
4.163500419623101
4.157345947458091
4.169654891788083
4.163500419623101
4.163500419623101
4.151191475293081
4.145037003128072
4.138882530963089
4.1327280587980795
4.138882530963089
4.1758093639530935
4.243508557768089
4.3112077515831135
4.3727524732331275
4.40352483405812
4.391215889728128
4.305053279418103
4.237354085603107
4.169654891788083
4.083492281478085
4.021947559828071
4.009638615498079
4.052719920653064
4.089646753643067
4.145037003128072
4.163500419623101
4.169654891788083
4.157345947458091
4.169654891788083
4.163500419623101
4.151191475293081
4.151191475293081
4.145037003128072
4.157345947458091
4.1758093639530935
4.1942727804480935
4.181963836118102
4.181963836118102
4.188118308283084
4.181963836118102
4.1758093639530935
4.181963836118102
4.1758093639530935
4.181963836118102
4.181963836118102
4.181963836118102
4.188118308283084
4.188118308283084
4.181963836118102
4.188118308283084
4.1942727804480935
4.2065817247780855
4.212736196943095
4.200427252613103
4.212736196943095
4.218890669108104
4.225045141273086
4.225045141273086
4.225045141273086
4.231199613438097
4.231199613438097
4.237354085603107
4.231199613438097
4.225045141273086
4.218890669108104
4.225045141273086
4.225045141273086
4.231199613438097
4.225045141273086
4.231199613438097
4.249663029933098
4.255817502098108
4.255817502098108
4.237354085603107
4.231199613438097
4.237354085603107
4.243508557768089
4.249663029933098
4.237354085603107
4.225045141273086
4.218890669108104
4.2065817247780855
4.2065817247780855
4.181963836118102
4.169654891788083
4.169654891788083
4.169654891788083
4.169654891788083
4.151191475293081
4.120419114468088
4.114264642303079
4.089646753643067
4.058874392818074
4.021947559828071
4.0711833371480655
4.065028864983084
4.058874392818074
4.052719920653064
4.040410976323072
4.003484143333068
3.9788662546730578
3.9911751990030497
4.015793087663061
4.021947559828071
4.034256504158063
4.0465654484880815
4.0465654484880815
4.052719920653064
4.052719920653064
4.0711833371480655
4.083492281478085
4.089646753643067
4.108110170138069
4.120419114468088
4.108110170138069
4.108110170138069
4.114264642303079
4.120419114468088
4.114264642303079
4.1327280587980795
4.151191475293081
4.145037003128072
4.145037003128072
4.151191475293081
4.145037003128072
4.138882530963089
4.145037003128072
4.151191475293081
4.145037003128072
4.151191475293081
4.151191475293081
4.169654891788083
4.212736196943095
4.237354085603107
4.231199613438097
4.2065817247780855
4.243508557768089
4.218890669108104
4.225045141273086
4.212736196943095
4.237354085603107
4.218890669108104
4.225045141273086
4.225045141273086
4.237354085603107
4.237354085603107
4.231199613438097
4.231199613438097
4.237354085603107
4.225045141273086
4.231199613438097
4.243508557768089
4.243508557768089
4.255817502098108
4.237354085603107
4.212736196943095
4.212736196943095
4.212736196943095
4.212736196943095
4.225045141273086
4.237354085603107
4.225045141273086
4.2065817247780855
4.2065817247780855
4.218890669108104
4.243508557768089
4.243508557768089
4.243508557768089
4.225045141273086
4.212736196943095
4.218890669108104
4.218890669108104
4.200427252613103
4.2065817247780855
4.231199613438097
4.237354085603107
4.237354085603107
4.243508557768089
4.225045141273086
4.225045141273086
4.249663029933098
4.261971974263091
4.27428091859311
4.2865898629231
4.27428091859311
4.27428091859311
4.292744335088111
4.298898807253093
4.298898807253093
4.298898807253093
4.3112077515831135
4.329671168078114
4.341980112408105
4.329671168078114
4.341980112408105
4.341980112408105
4.348134584573115
4.341980112408105
4.329671168078114
4.329671168078114
4.305053279418103
4.243508557768089
4.305053279418103
4.3173622237481215
4.3112077515831135
4.305053279418103
4.3173622237481215
4.323516695913104
4.323516695913104
4.292744335088111
4.292744335088111
4.3112077515831135
4.323516695913104
4.335825640243124
4.335825640243124
4.292744335088111
4.341980112408105
4.3173622237481215
4.329671168078114
4.385061417563119
4.446606139213133
4.520459805193139
4.575850054678144
4.5943134711731455
4.563541110348153
4.501996388698137
4.434297194883113
4.360443528903107
4.280435390758093
4.231199613438097
4.243508557768089
4.237354085603107
4.27428091859311
4.348134584573115
4.37890694539811
4.3727524732331275
4.366598001068117
4.348134584573115
4.354289056738125
4.354289056738125
4.341980112408105
4.341980112408105
4.348134584573115
4.366598001068117
4.366598001068117
4.3727524732331275
4.354289056738125
4.341980112408105
4.341980112408105
4.348134584573115
4.341980112408105
4.335825640243124
4.3112077515831135
4.329671168078114
4.354289056738125
4.348134584573115
4.354289056738125
4.354289056738125
4.341980112408105
4.348134584573115
4.348134584573115
4.335825640243124
4.341980112408105
4.335825640243124
4.329671168078114
4.329671168078114
4.3112077515831135
4.329671168078114
4.341980112408105
4.354289056738125
4.366598001068117
4.366598001068117
4.360443528903107
4.366598001068117
4.360443528903107
4.3727524732331275
4.37890694539811
4.37890694539811
4.3727524732331275
4.397370361893111
4.397370361893111
4.415833778388112
4.40967930622313
4.415833778388112
4.40352483405812
4.40352483405812
4.40967930622313
4.40352483405812
4.397370361893111
4.385061417563119
4.360443528903107
4.341980112408105
4.348134584573115
4.335825640243124
4.323516695913104
4.305053279418103
4.292744335088111
4.2865898629231
4.27428091859311
4.2681264464281
4.249663029933098
4.243508557768089
4.237354085603107
4.218890669108104
4.225045141273086
4.225045141273086
4.218890669108104
4.231199613438097
4.225045141273086
4.218890669108104
4.218890669108104
4.218890669108104
4.218890669108104
4.218890669108104
4.225045141273086
4.212736196943095
4.218890669108104
4.218890669108104
4.2065817247780855
4.2065817247780855
4.200427252613103
4.2065817247780855
4.218890669108104
4.218890669108104
4.212736196943095
4.212736196943095
4.200427252613103
4.212736196943095
4.218890669108104
4.212736196943095
4.212736196943095
4.212736196943095
4.212736196943095
4.200427252613103
4.218890669108104
4.237354085603107
4.212736196943095
4.163500419623101
4.249663029933098
4.255817502098108
4.249663029933098
4.231199613438097
4.2065817247780855
4.218890669108104
4.237354085603107
4.243508557768089
4.237354085603107
4.237354085603107
4.243508557768089
4.237354085603107
4.237354085603107
4.231199613438097
4.231199613438097
4.237354085603107
4.237354085603107
4.237354085603107
4.237354085603107
4.261971974263091
4.261971974263091
4.255817502098108
4.249663029933098
4.261971974263091
4.249663029933098
4.243508557768089
4.231199613438097
4.237354085603107
4.237354085603107
4.243508557768089
4.261971974263091
4.261971974263091
4.249663029933098
4.255817502098108
4.255817502098108
4.249663029933098
4.249663029933098
4.243508557768089
4.231199613438097
4.225045141273086
4.237354085603107
4.261971974263091
4.261971974263091
4.2681264464281
4.2681264464281
4.27428091859311
4.27428091859311
4.27428091859311
4.27428091859311
4.261971974263091
4.249663029933098
4.255817502098108
4.2681264464281
4.280435390758093
4.27428091859311
4.280435390758093
4.280435390758093
4.27428091859311
4.261971974263091
4.2681264464281
4.292744335088111
4.305053279418103
4.292744335088111
4.305053279418103
4.2865898629231
4.280435390758093
4.2681264464281
4.27428091859311
4.280435390758093
4.27428091859311
4.2681264464281
4.255817502098108
4.249663029933098
4.243508557768089
4.243508557768089
4.249663029933098
4.243508557768089
4.231199613438097
4.231199613438097
4.237354085603107
4.237354085603107
4.237354085603107
4.237354085603107
4.261971974263091
4.280435390758093
4.2681264464281
4.249663029933098
4.249663029933098
4.27428091859311
4.3173622237481215
4.366598001068117
4.428142722718132
4.471224027873144
4.471224027873144
4.421988250553122
4.360443528903107
4.292744335088111
4.1942727804480935
4.1327280587980795
4.120419114468088
4.1327280587980795
4.157345947458091
4.200427252613103
4.243508557768089
4.249663029933098
4.249663029933098
4.231199613438097
4.225045141273086
4.237354085603107
4.243508557768089
4.243508557768089
4.231199613438097
4.2065817247780855
4.2065817247780855
4.237354085603107
4.249663029933098
4.255817502098108
4.249663029933098
4.261971974263091
4.261971974263091
4.249663029933098
4.218890669108104
4.2865898629231
4.292744335088111
4.2865898629231
4.292744335088111
4.280435390758093
4.2865898629231
4.255817502098108
4.243508557768089
4.255817502098108
4.2681264464281
4.27428091859311
4.27428091859311
4.280435390758093
4.2865898629231
4.2865898629231
4.292744335088111
4.292744335088111
4.298898807253093
4.3112077515831135
4.3173622237481215
4.329671168078114
4.335825640243124
4.329671168078114
4.341980112408105
4.341980112408105
4.360443528903107
4.37890694539811
4.3727524732331275
4.3727524732331275
4.37890694539811
4.385061417563119
4.385061417563119
4.37890694539811
4.385061417563119
4.397370361893111
4.397370361893111
4.397370361893111
4.391215889728128
4.366598001068117
4.335825640243124
4.329671168078114
4.3112077515831135
4.298898807253093
4.2865898629231
4.27428091859311
4.261971974263091
4.243508557768089
4.249663029933098
4.249663029933098
4.237354085603107
4.243508557768089
4.237354085603107
4.225045141273086
4.1758093639530935
4.1942727804480935
4.261971974263091
4.243508557768089
4.243508557768089
4.243508557768089
4.243508557768089
4.243508557768089
4.212736196943095
4.212736196943095
4.231199613438097
4.237354085603107
4.243508557768089
4.237354085603107
4.237354085603107
4.231199613438097
4.231199613438097
4.218890669108104
4.225045141273086
4.243508557768089
4.249663029933098
4.255817502098108
4.255817502098108
4.255817502098108
4.243508557768089
4.243508557768089
4.237354085603107
4.231199613438097
4.225045141273086
4.231199613438097
4.231199613438097
4.231199613438097
4.218890669108104
4.212736196943095
4.212736196943095
4.225045141273086
4.218890669108104
4.218890669108104
4.218890669108104
4.212736196943095
4.218890669108104
4.231199613438097
4.225045141273086
4.218890669108104
4.218890669108104
4.218890669108104
4.225045141273086
4.225045141273086
4.218890669108104
4.225045141273086
4.218890669108104
4.218890669108104
4.225045141273086
4.225045141273086
4.231199613438097
4.225045141273086
4.225045141273086
4.218890669108104
4.225045141273086
4.237354085603107
4.237354085603107
4.231199613438097
4.218890669108104
4.212736196943095
4.218890669108104
4.212736196943095
4.200427252613103
4.181963836118102
4.157345947458091
4.249663029933098
4.243508557768089
4.237354085603107
4.255817502098108
4.249663029933098
4.2681264464281
4.27428091859311
4.2681264464281
4.2865898629231
4.27428091859311
4.2681264464281
4.255817502098108
4.280435390758093
4.2681264464281
4.261971974263091
4.2681264464281
4.280435390758093
4.2681264464281
4.249663029933098
4.243508557768089
4.237354085603107
4.249663029933098
4.243508557768089
4.249663029933098
4.2681264464281
4.255817502098108
4.2681264464281
4.243508557768089
4.231199613438097
4.218890669108104
4.2065817247780855
4.225045141273086
4.2681264464281
4.261971974263091
4.2681264464281
4.261971974263091
4.249663029933098
4.255817502098108
4.255817502098108
4.255817502098108
4.249663029933098
4.243508557768089
4.237354085603107
4.231199613438097
4.237354085603107
4.231199613438097
4.231199613438097
4.237354085603107
4.225045141273086
4.225045141273086
4.231199613438097
4.218890669108104
4.231199613438097
4.218890669108104
4.212736196943095
4.212736196943095
4.218890669108104
4.218890669108104
4.2065817247780855
4.200427252613103
4.225045141273086
4.27428091859311
4.341980112408105
4.415833778388112
4.440451667048122
4.452760611378115
4.40352483405812
4.323516695913104
4.261971974263091
4.181963836118102
4.114264642303079
4.083492281478085
4.101955697973087
4.12657358663307
4.169654891788083
4.2065817247780855
4.218890669108104
4.212736196943095
4.212736196943095
4.212736196943095
4.212736196943095
4.225045141273086
4.218890669108104
4.225045141273086
4.225045141273086
4.231199613438097
4.237354085603107
4.231199613438097
4.231199613438097
4.231199613438097
4.231199613438097
4.243508557768089
4.237354085603107
4.249663029933098
4.243508557768089
4.243508557768089
4.255817502098108
4.261971974263091
4.255817502098108
4.2681264464281
4.2681264464281
4.27428091859311
4.27428091859311
4.280435390758093
4.280435390758093
4.280435390758093
4.292744335088111
4.2865898629231
4.280435390758093
4.292744335088111
4.298898807253093
4.305053279418103
4.323516695913104
4.323516695913104
4.3112077515831135
4.323516695913104
4.335825640243124
4.348134584573115
4.354289056738125
4.354289056738125
4.354289056738125
4.323516695913104
4.385061417563119
4.391215889728128
4.40352483405812
4.391215889728128
4.3727524732331275
4.354289056738125
4.366598001068117
4.385061417563119
4.366598001068117
4.354289056738125
4.341980112408105
4.329671168078114
4.305053279418103
4.298898807253093
4.280435390758093
4.280435390758093
4.2681264464281
4.243508557768089
4.237354085603107
4.225045141273086
4.2065817247780855
4.188118308283084
4.188118308283084
4.1942727804480935
4.2065817247780855
4.243508557768089
4.261971974263091
4.255817502098108
4.255817502098108
4.255817502098108
4.2681264464281
4.2681264464281
4.2681264464281
4.2681264464281
4.27428091859311
4.2865898629231
4.27428091859311
4.255817502098108
4.249663029933098
4.231199613438097
4.237354085603107
4.243508557768089
4.218890669108104
4.212736196943095
4.181963836118102
4.200427252613103
4.1942727804480935
4.1758093639530935
4.163500419623101
4.163500419623101
4.163500419623101
4.200427252613103
4.218890669108104
4.218890669108104
4.218890669108104
4.225045141273086
4.218890669108104
4.218890669108104
4.218890669108104
4.200427252613103
4.1942727804480935
4.188118308283084
4.181963836118102
4.200427252613103
4.188118308283084
4.188118308283084
4.1942727804480935
4.200427252613103
4.1942727804480935
4.1942727804480935
4.1942727804480935
4.200427252613103
4.1942727804480935
4.1942727804480935
4.200427252613103
4.2065817247780855
4.200427252613103
4.2065817247780855
4.218890669108104
4.218890669108104
4.212736196943095
4.212736196943095
4.2065817247780855
4.218890669108104
4.231199613438097
4.249663029933098
4.231199613438097
4.212736196943095
4.243508557768089
4.261971974263091
4.255817502098108
4.231199613438097
4.2065817247780855
4.2065817247780855
4.249663029933098
4.2865898629231
4.255817502098108
4.212736196943095
4.1942727804480935
4.1942727804480935
4.181963836118102
4.188118308283084
4.1942727804480935
4.200427252613103
4.212736196943095
4.212736196943095
4.188118308283084
4.169654891788083
4.181963836118102
4.1758093639530935
4.181963836118102
4.1942727804480935
4.200427252613103
4.1942727804480935
4.188118308283084
4.1758093639530935
4.181963836118102
4.1758093639530935
4.188118308283084
4.188118308283084
4.1758093639530935
4.108110170138069
4.12657358663307
4.225045141273086
4.225045141273086
4.218890669108104
4.225045141273086
4.225045141273086
4.212736196943095
4.188118308283084
4.169654891788083
4.1942727804480935
4.249663029933098
4.261971974263091
4.2865898629231
4.261971974263091
4.243508557768089
4.2681264464281
4.298898807253093
4.27428091859311
4.249663029933098
4.231199613438097
4.212736196943095
4.2065817247780855
4.200427252613103
4.188118308283084
4.181963836118102
4.181963836118102
4.188118308283084
4.1942727804480935
4.200427252613103
4.249663029933098
4.2681264464281
4.2681264464281
4.2681264464281
4.255817502098108
4.255817502098108
4.249663029933098
4.231199613438097
4.231199613438097
4.243508557768089
4.298898807253093
4.366598001068117
4.428142722718132
4.465069555708134
4.471224027873144
4.40967930622313
4.329671168078114
4.255817502098108
4.169654891788083
4.089646753643067
4.058874392818074
4.089646753643067
4.120419114468088
4.169654891788083
4.188118308283084
4.188118308283084
4.212736196943095
4.218890669108104
4.218890669108104
4.2065817247780855
4.212736196943095
4.231199613438097
4.218890669108104
4.200427252613103
4.200427252613103
4.218890669108104
4.225045141273086
4.218890669108104
4.218890669108104
4.237354085603107
4.231199613438097
4.231199613438097
4.237354085603107
4.243508557768089
4.243508557768089
4.243508557768089
4.261971974263091
4.2865898629231
4.298898807253093
4.2865898629231
4.2681264464281
4.2681264464281
4.27428091859311
4.292744335088111
4.3173622237481215
4.323516695913104
4.298898807253093
4.292744335088111
4.298898807253093
4.298898807253093
4.298898807253093
4.3112077515831135
4.323516695913104
4.329671168078114
4.335825640243124
4.348134584573115
4.354289056738125
4.360443528903107
4.360443528903107
4.360443528903107
4.366598001068117
4.3727524732331275
4.366598001068117
4.354289056738125
4.348134584573115
4.335825640243124
4.354289056738125
4.354289056738125
4.341980112408105
4.341980112408105
4.3727524732331275
4.37890694539811
4.323516695913104
4.292744335088111
4.280435390758093
4.280435390758093
4.249663029933098
4.218890669108104
4.1942727804480935
4.218890669108104
4.237354085603107
4.2065817247780855
4.138882530963089
4.231199613438097
4.225045141273086
4.1758093639530935
4.138882530963089
4.157345947458091
4.151191475293081
4.151191475293081
4.163500419623101
4.188118308283084
4.1758093639530935
4.151191475293081
4.163500419623101
4.157345947458091
4.163500419623101
4.169654891788083
4.1942727804480935
4.188118308283084
4.163500419623101
4.1758093639530935
4.188118308283084
4.225045141273086
4.255817502098108
4.2865898629231
4.292744335088111
4.237354085603107
4.200427252613103
4.188118308283084
4.169654891788083
4.163500419623101
4.169654891788083
4.163500419623101
4.145037003128072
4.12657358663307
4.12657358663307
4.120419114468088
4.114264642303079
4.1327280587980795
4.1327280587980795
4.138882530963089
4.157345947458091
4.157345947458091
4.169654891788083
4.225045141273086
4.261971974263091
4.243508557768089
4.188118308283084
4.1758093639530935
4.1942727804480935
4.218890669108104
4.188118308283084
4.188118308283084
4.1942727804480935
4.225045141273086
4.212736196943095
4.212736196943095
4.218890669108104
4.231199613438097
4.2065817247780855
4.1942727804480935
4.181963836118102
4.163500419623101
4.157345947458091
4.157345947458091
4.181963836118102
4.1942727804480935
4.188118308283084
4.200427252613103
4.1942727804480935
4.188118308283084
4.1942727804480935
4.212736196943095
4.231199613438097
4.237354085603107
4.237354085603107
4.243508557768089
4.249663029933098
4.280435390758093
4.298898807253093
4.2865898629231
4.2865898629231
4.298898807253093
4.305053279418103
4.329671168078114
4.341980112408105
4.341980112408105
4.366598001068117
4.3727524732331275
4.385061417563119
4.366598001068117
4.354289056738125
4.348134584573115
4.348134584573115
4.360443528903107
4.366598001068117
4.341980112408105
4.323516695913104
4.305053279418103
4.323516695913104
4.335825640243124
4.335825640243124
4.335825640243124
4.3112077515831135
4.305053279418103
4.3112077515831135
4.335825640243124
4.354289056738125
4.354289056738125
4.341980112408105
4.3173622237481215
4.329671168078114
4.329671168078114
4.3173622237481215
4.3173622237481215
4.305053279418103
4.3112077515831135
4.298898807253093
4.298898807253093
4.305053279418103
4.298898807253093
4.280435390758093
4.2681264464281
4.225045141273086
4.2865898629231
4.280435390758093
4.2681264464281
4.280435390758093
4.2865898629231
4.255817502098108
4.225045141273086
4.243508557768089
4.249663029933098
4.249663029933098
4.2681264464281
4.323516695913104
4.391215889728128
4.465069555708134
4.508150860863147
4.508150860863147
4.446606139213133
4.37890694539811
4.3112077515831135
4.225045141273086
4.138882530963089
4.108110170138069
4.1327280587980795
4.151191475293081
4.200427252613103
4.249663029933098
4.2681264464281
4.280435390758093
4.292744335088111
4.292744335088111
4.305053279418103
4.298898807253093
4.305053279418103
4.305053279418103
4.292744335088111
4.305053279418103
4.298898807253093
4.298898807253093
4.292744335088111
4.298898807253093
4.292744335088111
4.298898807253093
4.292744335088111
4.292744335088111
4.292744335088111
4.298898807253093
4.3112077515831135
4.305053279418103
4.3112077515831135
4.3112077515831135
4.305053279418103
4.305053279418103
4.305053279418103
4.3112077515831135
4.3112077515831135
4.3173622237481215
4.305053279418103
4.3173622237481215
4.3173622237481215
4.3173622237481215
4.3173622237481215
4.323516695913104
4.323516695913104
4.341980112408105
4.335825640243124
4.341980112408105
4.348134584573115
4.335825640243124
4.305053279418103
4.391215889728128
4.391215889728128
4.385061417563119
4.391215889728128
4.40352483405812
4.40967930622313
4.397370361893111
4.360443528903107
4.37890694539811
4.3727524732331275
4.37890694539811
4.37890694539811
4.3727524732331275
4.360443528903107
4.348134584573115
4.3112077515831135
4.292744335088111
4.280435390758093
4.2681264464281
4.255817502098108
4.249663029933098
4.237354085603107
4.237354085603107
4.225045141273086
4.218890669108104
4.212736196943095
4.218890669108104
4.212736196943095
4.218890669108104
4.212736196943095
4.2065817247780855
4.212736196943095
4.212736196943095
4.2065817247780855
4.212736196943095
4.2065817247780855
4.200427252613103
4.2065817247780855
4.2065817247780855
4.218890669108104
4.225045141273086
4.218890669108104
4.218890669108104
4.2065817247780855
4.200427252613103
4.218890669108104
4.225045141273086
4.231199613438097
4.231199613438097
4.231199613438097
4.225045141273086
4.2065817247780855
4.1758093639530935
4.218890669108104
4.181963836118102
4.200427252613103
4.231199613438097
4.237354085603107
4.231199613438097
4.243508557768089
4.237354085603107
4.237354085603107
4.231199613438097
4.237354085603107
4.243508557768089
4.231199613438097
4.237354085603107
4.237354085603107
4.249663029933098
4.243508557768089
4.261971974263091
4.261971974263091
4.2681264464281
4.2681264464281
4.280435390758093
4.2865898629231
4.292744335088111
4.2865898629231
4.292744335088111
4.2865898629231
4.2865898629231
4.27428091859311
4.2865898629231
4.2865898629231
4.292744335088111
4.292744335088111
4.298898807253093
4.2865898629231
4.292744335088111
4.280435390758093
4.280435390758093
4.2865898629231
4.2865898629231
4.2865898629231
4.280435390758093
4.2865898629231
4.2865898629231
4.280435390758093
4.2865898629231
4.280435390758093
4.292744335088111
4.292744335088111
4.292744335088111
4.292744335088111
4.280435390758093
4.292744335088111
4.2865898629231
4.280435390758093
4.27428091859311
4.292744335088111
4.305053279418103
4.323516695913104
4.323516695913104
4.3173622237481215
4.280435390758093
4.280435390758093
4.280435390758093
4.280435390758093
4.280435390758093
4.280435390758093
4.27428091859311
4.2681264464281
4.249663029933098
4.243508557768089
4.243508557768089
4.255817502098108
4.249663029933098
4.249663029933098
4.243508557768089
4.243508557768089
4.243508557768089
4.243508557768089
4.237354085603107
4.243508557768089
4.237354085603107
4.225045141273086
4.231199613438097
4.231199613438097
4.2681264464281
4.3112077515831135
4.391215889728128
4.458915083543125
4.483532972203136
4.452760611378115
4.391215889728128
4.329671168078114
4.261971974263091
4.169654891788083
4.101955697973087
4.108110170138069
4.145037003128072
4.169654891788083
4.212736196943095
4.237354085603107
4.231199613438097
4.218890669108104
4.231199613438097
4.237354085603107
4.231199613438097
4.237354085603107
4.231199613438097
4.218890669108104
4.225045141273086
4.225045141273086
4.231199613438097
4.231199613438097
4.237354085603107
4.249663029933098
4.255817502098108
4.249663029933098
4.237354085603107
4.243508557768089
4.261971974263091
4.249663029933098
4.2065817247780855
4.27428091859311
4.280435390758093
4.280435390758093
4.249663029933098
4.231199613438097
4.237354085603107
4.255817502098108
4.292744335088111
4.2865898629231
4.2865898629231
4.298898807253093
4.305053279418103
4.3112077515831135
4.3173622237481215
4.329671168078114
4.341980112408105
4.348134584573115
4.348134584573115
4.348134584573115
4.348134584573115
4.360443528903107
4.354289056738125
4.366598001068117
4.37890694539811
4.37890694539811
4.37890694539811
4.37890694539811
4.391215889728128
4.397370361893111
4.397370361893111
4.40352483405812
4.397370361893111
4.391215889728128
4.3727524732331275
4.360443528903107
4.354289056738125
4.348134584573115
4.329671168078114
4.323516695913104
4.3173622237481215
4.298898807253093
4.298898807253093
4.27428091859311
4.280435390758093
4.2865898629231
4.280435390758093
4.2681264464281
4.249663029933098
4.231199613438097
4.218890669108104
4.212736196943095
4.212736196943095
4.2065817247780855
4.200427252613103
4.1942727804480935
4.1758093639530935
4.163500419623101
4.1327280587980795
4.114264642303079
4.095801225808079
4.089646753643067
4.083492281478085
4.095801225808079
4.101955697973087
4.095801225808079
4.083492281478085
4.077337809313075
4.052719920653064
4.052719920653064
4.0711833371480655
4.083492281478085
4.083492281478085
4.089646753643067
4.089646753643067
4.089646753643067
4.101955697973087
4.114264642303079
4.1327280587980795
4.120419114468088
4.120419114468088
4.114264642303079
4.114264642303079
4.120419114468088
4.12657358663307
4.120419114468088
4.1327280587980795
4.138882530963089
4.145037003128072
4.1327280587980795
4.120419114468088
4.145037003128072
4.151191475293081
4.163500419623101
4.181963836118102
4.1758093639530935
4.169654891788083
4.1758093639530935
4.1758093639530935
4.2065817247780855
4.225045141273086
4.243508557768089
4.231199613438097
4.249663029933098
4.261971974263091
4.27428091859311
4.292744335088111
4.2865898629231
4.27428091859311
4.2681264464281
4.249663029933098
4.231199613438097
4.255817502098108
4.280435390758093
4.2681264464281
4.261971974263091
4.305053279418103
4.298898807253093
4.261971974263091
4.249663029933098
4.249663029933098
4.231199613438097
4.188118308283084
4.27428091859311
4.2681264464281
4.249663029933098
4.237354085603107
4.243508557768089
4.249663029933098
4.225045141273086
4.1942727804480935
4.200427252613103
4.212736196943095
4.225045141273086
4.225045141273086
4.231199613438097
4.231199613438097
4.1758093639530935
4.2065817247780855
4.261971974263091
4.2681264464281
4.2865898629231
4.292744335088111
4.280435390758093
4.2681264464281
4.237354085603107
4.237354085603107
4.249663029933098
4.249663029933098
4.255817502098108
4.243508557768089
4.231199613438097
4.237354085603107
4.231199613438097
4.237354085603107
4.237354085603107
4.225045141273086
4.225045141273086
4.231199613438097
4.249663029933098
4.243508557768089
4.243508557768089
4.237354085603107
