4.243508557768089
4.249663029933098
4.255817502098108
4.249663029933098
4.243508557768089
4.237354085603107
4.231199613438097
4.212736196943095
4.200427252613103
4.1942727804480935
4.181963836118102
4.157345947458091
4.138882530963089
4.1327280587980795
4.120419114468088
4.101955697973087
4.101955697973087
4.089646753643067
4.089646753643067
4.077337809313075
4.083492281478085
4.095801225808079
4.083492281478085
4.077337809313075
4.077337809313075
4.077337809313075
4.083492281478085
4.083492281478085
4.065028864983084
4.058874392818074
4.077337809313075
4.077337809313075
4.077337809313075
4.089646753643067
4.077337809313075
4.0711833371480655
4.0711833371480655
4.089646753643067
4.083492281478085
4.089646753643067
4.095801225808079
4.095801225808079
4.089646753643067
4.095801225808079
4.089646753643067
4.101955697973087
4.101955697973087
4.108110170138069
4.108110170138069
4.108110170138069
4.114264642303079
4.114264642303079
4.101955697973087
4.114264642303079
4.108110170138069
4.108110170138069
4.108110170138069
4.114264642303079
4.114264642303079
4.114264642303079
4.114264642303079
4.120419114468088
4.114264642303079
4.114264642303079
4.108110170138069
4.114264642303079
4.108110170138069
4.108110170138069
4.108110170138069
4.114264642303079
4.108110170138069
4.120419114468088
4.114264642303079
4.114264642303079
4.114264642303079
4.114264642303079
4.120419114468088
4.120419114468088
4.12657358663307
4.114264642303079
4.114264642303079
4.120419114468088
4.12657358663307
4.114264642303079
4.108110170138069
4.108110170138069
4.114264642303079
4.114264642303079
4.114264642303079
4.120419114468088
4.120419114468088
4.120419114468088
4.120419114468088
4.114264642303079
4.114264642303079
4.120419114468088
4.120419114468088
4.12657358663307
4.12657358663307
4.120419114468088
4.120419114468088
4.1327280587980795
4.12657358663307
4.120419114468088
4.120419114468088
4.12657358663307
4.12657358663307
4.12657358663307
4.1327280587980795
4.1327280587980795
4.12657358663307
4.1327280587980795
4.12657358663307
4.1327280587980795
4.1327280587980795
4.138882530963089
4.1327280587980795
4.1327280587980795
4.1327280587980795
4.12657358663307
4.12657358663307
4.1327280587980795
4.138882530963089
4.138882530963089
4.138882530963089
4.138882530963089
4.145037003128072
4.138882530963089
4.138882530963089
4.145037003128072
4.151191475293081
4.145037003128072
4.151191475293081
4.145037003128072
4.138882530963089
4.145037003128072
4.163500419623101
4.188118308283084
4.188118308283084
4.181963836118102
4.163500419623101
4.169654891788083
4.163500419623101
4.169654891788083
4.169654891788083
4.157345947458091
4.151191475293081
4.145037003128072
4.138882530963089
4.151191475293081
4.157345947458091
4.157345947458091
4.151191475293081
4.120419114468088
4.108110170138069
4.114264642303079
4.12657358663307
4.120419114468088
4.1327280587980795
4.12657358663307
4.12657358663307
4.120419114468088
4.1327280587980795
4.169654891788083
4.243508557768089
4.323516695913104
4.385061417563119
4.40967930622313
4.385061417563119
4.292744335088111
4.1942727804480935
4.12657358663307
4.034256504158063
3.9727117825080467
3.9727117825080467
4.003484143333068
4.028102031993082
4.077337809313075
4.120419114468088
4.138882530963089
4.145037003128072
4.138882530963089
4.138882530963089
4.145037003128072
4.151191475293081
4.151191475293081
4.151191475293081
4.157345947458091
4.151191475293081
4.163500419623101
4.163500419623101
4.157345947458091
4.157345947458091
4.163500419623101
4.157345947458091
4.163500419623101
4.163500419623101
4.169654891788083
4.169654891788083
4.1758093639530935
4.169654891788083
4.1758093639530935
4.1758093639530935
4.1758093639530935
4.1758093639530935
4.1758093639530935
4.181963836118102
4.188118308283084
4.1942727804480935
4.1942727804480935
4.200427252613103
4.1942727804480935
4.200427252613103
4.2065817247780855
4.2065817247780855
4.2065817247780855
4.212736196943095
4.212736196943095
4.231199613438097
4.231199613438097
4.237354085603107
4.231199613438097
4.237354085603107
4.249663029933098
4.249663029933098
4.27428091859311
4.280435390758093
4.280435390758093
4.27428091859311
4.27428091859311
4.280435390758093
4.27428091859311
4.27428091859311
4.261971974263091
4.243508557768089
4.237354085603107
4.212736196943095
4.1942727804480935
4.1758093639530935
4.163500419623101
4.157345947458091
4.151191475293081
4.1327280587980795
4.12657358663307
4.12657358663307
4.114264642303079
4.108110170138069
4.065028864983084
4.065028864983084
4.0711833371480655
4.077337809313075
4.0711833371480655
4.083492281478085
4.083492281478085
4.077337809313075
4.083492281478085
4.089646753643067
4.083492281478085
4.095801225808079
4.095801225808079
4.089646753643067
4.095801225808079
4.095801225808079
4.089646753643067
4.101955697973087
4.095801225808079
4.095801225808079
4.095801225808079
4.101955697973087
4.108110170138069
4.114264642303079
4.12657358663307
4.138882530963089
4.1327280587980795
4.138882530963089
4.1327280587980795
4.12657358663307
4.12657358663307
4.101955697973087
4.089646753643067
4.095801225808079
4.108110170138069
4.114264642303079
4.114264642303079
4.120419114468088
4.120419114468088
4.114264642303079
4.12657358663307
4.12657358663307
4.12657358663307
4.12657358663307
4.120419114468088
4.120419114468088
4.138882530963089
4.138882530963089
4.138882530963089
4.1327280587980795
4.138882530963089
4.138882530963089
4.1327280587980795
4.138882530963089
4.1327280587980795
4.12657358663307
4.1327280587980795
4.1327280587980795
4.12657358663307
4.1327280587980795
4.12657358663307
4.120419114468088
4.12657358663307
4.1327280587980795
4.1327280587980795
4.138882530963089
4.1327280587980795
4.1327280587980795
4.138882530963089
4.138882530963089
4.138882530963089
4.1327280587980795
4.138882530963089
4.1327280587980795
4.138882530963089
4.145037003128072
4.138882530963089
4.1327280587980795
4.1327280587980795
4.138882530963089
4.145037003128072
4.145037003128072
4.138882530963089
4.145037003128072
4.145037003128072
4.151191475293081
4.138882530963089
4.1327280587980795
4.151191475293081
4.151191475293081
4.151191475293081
4.145037003128072
4.145037003128072
4.151191475293081
4.151191475293081
4.145037003128072
4.145037003128072
4.151191475293081
4.145037003128072
4.145037003128072
4.151191475293081
4.151191475293081
4.151191475293081
4.163500419623101
4.163500419623101
4.163500419623101
4.151191475293081
4.157345947458091
4.1758093639530935
4.181963836118102
4.1942727804480935
4.1942727804480935
4.1942727804480935
4.181963836118102
4.188118308283084
4.181963836118102
4.1758093639530935
4.169654891788083
4.163500419623101
4.163500419623101
4.163500419623101
4.151191475293081
4.157345947458091
4.151191475293081
4.157345947458091
4.151191475293081
4.157345947458091
4.157345947458091
4.151191475293081
4.157345947458091
4.157345947458091
4.151191475293081
4.157345947458091
4.151191475293081
4.157345947458091
4.169654891788083
4.218890669108104
4.2865898629231
4.360443528903107
4.40352483405812
4.40967930622313
4.348134584573115
4.249663029933098
4.1758093639530935
4.095801225808079
4.028102031993082
4.003484143333068
4.052719920653064
4.0711833371480655
4.095801225808079
4.138882530963089
4.157345947458091
4.169654891788083
4.169654891788083
4.163500419623101
4.163500419623101
4.163500419623101
4.1758093639530935
4.1758093639530935
4.1758093639530935
4.1758093639530935
4.181963836118102
4.1758093639530935
4.181963836118102
4.1758093639530935
4.188118308283084
4.181963836118102
4.181963836118102
4.188118308283084
4.2065817247780855
4.2065817247780855
4.212736196943095
4.200427252613103
4.2065817247780855
4.2065817247780855
4.218890669108104
4.212736196943095
4.218890669108104
4.218890669108104
4.225045141273086
4.231199613438097
4.231199613438097
4.231199613438097
4.231199613438097
4.237354085603107
4.243508557768089
4.249663029933098
4.249663029933098
4.255817502098108
4.255817502098108
4.261971974263091
4.2681264464281
4.27428091859311
4.280435390758093
4.292744335088111
4.2865898629231
4.305053279418103
4.3112077515831135
4.3173622237481215
4.3112077515831135
4.3112077515831135
4.3112077515831135
4.3173622237481215
4.3173622237481215
4.323516695913104
4.3112077515831135
4.3112077515831135
4.298898807253093
4.27428091859311
4.243508557768089
4.237354085603107
4.218890669108104
4.2065817247780855
4.181963836118102
4.1758093639530935
4.163500419623101
4.157345947458091
4.145037003128072
4.138882530963089
4.138882530963089
4.138882530963089
4.12657358663307
4.1327280587980795
4.120419114468088
4.120419114468088
4.12657358663307
4.120419114468088
4.120419114468088
4.1327280587980795
4.1327280587980795
4.1327280587980795
4.138882530963089
4.138882530963089
4.138882530963089
4.138882530963089
4.138882530963089
4.145037003128072
4.138882530963089
4.151191475293081
4.151191475293081
4.138882530963089
4.151191475293081
4.151191475293081
4.151191475293081
4.145037003128072
4.145037003128072
4.145037003128072
4.145037003128072
4.145037003128072
4.145037003128072
4.145037003128072
4.151191475293081
4.157345947458091
4.151191475293081
4.145037003128072
4.151191475293081
4.145037003128072
4.151191475293081
4.157345947458091
4.163500419623101
4.163500419623101
4.157345947458091
4.157345947458091
4.157345947458091
4.163500419623101
4.157345947458091
4.163500419623101
4.157345947458091
4.1758093639530935
4.181963836118102
4.181963836118102
4.181963836118102
4.1758093639530935
4.157345947458091
4.12657358663307
4.1327280587980795
4.138882530963089
4.157345947458091
4.157345947458091
4.145037003128072
4.151191475293081
4.151191475293081
4.151191475293081
4.151191475293081
4.157345947458091
4.163500419623101
4.163500419623101
4.163500419623101
4.163500419623101
4.157345947458091
4.163500419623101
4.157345947458091
4.169654891788083
4.169654891788083
4.169654891788083
4.163500419623101
4.169654891788083
4.163500419623101
4.1758093639530935
4.169654891788083
4.169654891788083
4.163500419623101
4.157345947458091
4.157345947458091
4.163500419623101
4.1758093639530935
4.188118308283084
4.1942727804480935
4.181963836118102
4.181963836118102
4.181963836118102
4.1758093639530935
4.157345947458091
4.12657358663307
4.145037003128072
4.145037003128072
4.151191475293081
4.151191475293081
4.163500419623101
4.169654891788083
4.163500419623101
4.169654891788083
4.169654891788083
4.163500419623101
4.157345947458091
4.163500419623101
4.169654891788083
4.169654891788083
4.1758093639530935
4.169654891788083
4.181963836118102
4.169654891788083
4.169654891788083
4.1758093639530935
4.200427252613103
4.225045141273086
4.225045141273086
4.212736196943095
4.200427252613103
4.1942727804480935
4.1942727804480935
4.1942727804480935
4.1942727804480935
4.188118308283084
4.1758093639530935
4.1758093639530935
4.157345947458091
4.151191475293081
4.157345947458091
4.151191475293081
4.151191475293081
4.157345947458091
4.163500419623101
4.163500419623101
4.157345947458091
4.157345947458091
4.157345947458091
4.157345947458091
4.157345947458091
4.151191475293081
4.169654891788083
4.1942727804480935
4.237354085603107
4.3173622237481215
4.385061417563119
4.421988250553122
4.397370361893111
4.3112077515831135
4.212736196943095
4.138882530963089
4.058874392818074
3.9973296711680604
3.9911751990030497
4.021947559828071
4.083492281478085
4.138882530963089
4.163500419623101
4.1758093639530935
4.169654891788083
4.169654891788083
4.1758093639530935
4.1758093639530935
4.1758093639530935
4.181963836118102
4.181963836118102
4.1758093639530935
4.181963836118102
4.1758093639530935
4.169654891788083
4.1758093639530935
4.181963836118102
4.169654891788083
4.1758093639530935
4.181963836118102
4.181963836118102
4.181963836118102
4.1942727804480935
4.1942727804480935
4.1942727804480935
4.2065817247780855
4.200427252613103
4.200427252613103
4.200427252613103
4.2065817247780855
4.212736196943095
4.218890669108104
4.218890669108104
4.225045141273086
4.231199613438097
4.225045141273086
4.231199613438097
4.243508557768089
4.243508557768089
4.243508557768089
4.255817502098108
4.2681264464281
4.2681264464281
4.27428091859311
4.27428091859311
4.280435390758093
4.292744335088111
4.292744335088111
4.292744335088111
4.305053279418103
4.305053279418103
4.305053279418103
4.305053279418103
4.3112077515831135
4.3173622237481215
4.3173622237481215
4.3112077515831135
4.298898807253093
4.298898807253093
4.280435390758093
4.261971974263091
4.243508557768089
4.231199613438097
4.218890669108104
4.1942727804480935
4.188118308283084
4.181963836118102
4.169654891788083
4.151191475293081
4.151191475293081
4.138882530963089
4.138882530963089
4.12657358663307
4.1327280587980795
4.12657358663307
4.12657358663307
4.12657358663307
4.12657358663307
4.120419114468088
4.12657358663307
4.1327280587980795
4.1327280587980795
4.1327280587980795
4.138882530963089
4.138882530963089
4.1327280587980795
4.138882530963089
4.145037003128072
4.138882530963089
4.1327280587980795
4.138882530963089
4.138882530963089
4.151191475293081
4.151191475293081
4.145037003128072
4.151191475293081
4.145037003128072
4.145037003128072
4.145037003128072
4.145037003128072
4.151191475293081
4.151191475293081
4.157345947458091
4.151191475293081
4.145037003128072
4.145037003128072
4.157345947458091
4.157345947458091
4.151191475293081
4.145037003128072
4.145037003128072
4.145037003128072
4.145037003128072
4.151191475293081
4.151191475293081
4.157345947458091
4.151191475293081
4.157345947458091
4.151191475293081
4.145037003128072
4.145037003128072
4.151191475293081
4.163500419623101
4.157345947458091
4.151191475293081
4.163500419623101
4.163500419623101
4.151191475293081
4.157345947458091
4.157345947458091
4.151191475293081
4.163500419623101
4.163500419623101
4.157345947458091
4.157345947458091
4.163500419623101
4.157345947458091
4.157345947458091
4.169654891788083
4.188118308283084
4.181963836118102
4.1758093639530935
4.138882530963089
4.145037003128072
4.145037003128072
4.157345947458091
4.157345947458091
4.157345947458091
4.163500419623101
4.157345947458091
4.151191475293081
4.163500419623101
4.163500419623101
4.151191475293081
4.157345947458091
4.163500419623101
4.169654891788083
4.169654891788083
4.163500419623101
4.169654891788083
4.163500419623101
4.157345947458091
4.163500419623101
4.163500419623101
4.163500419623101
4.163500419623101
4.169654891788083
4.169654891788083
4.1758093639530935
4.1758093639530935
4.1758093639530935
4.169654891788083
4.1758093639530935
4.163500419623101
4.1758093639530935
4.169654891788083
4.169654891788083
4.1758093639530935
4.169654891788083
4.1758093639530935
4.169654891788083
4.1758093639530935
4.169654891788083
4.181963836118102
4.188118308283084
4.188118308283084
4.181963836118102
4.1758093639530935
4.188118308283084
4.181963836118102
4.188118308283084
4.231199613438097
4.231199613438097
4.225045141273086
4.218890669108104
4.212736196943095
4.2065817247780855
4.2065817247780855
4.1942727804480935
4.1942727804480935
4.188118308283084
4.169654891788083
4.181963836118102
4.1758093639530935
4.169654891788083
4.163500419623101
4.163500419623101
4.163500419623101
4.169654891788083
4.1758093639530935
4.169654891788083
4.169654891788083
4.169654891788083
4.169654891788083
4.181963836118102
4.169654891788083
4.169654891788083
4.188118308283084
4.243508557768089
4.3173622237481215
4.40352483405812
4.446606139213133
4.440451667048122
4.360443528903107
4.261971974263091
4.181963836118102
4.089646753643067
4.028102031993082
3.9973296711680604
4.034256504158063
4.0711833371480655
4.138882530963089
4.181963836118102
4.188118308283084
4.181963836118102
4.181963836118102
4.188118308283084
4.188118308283084
4.1942727804480935
4.1942727804480935
4.1942727804480935
4.200427252613103
4.2065817247780855
4.200427252613103
4.218890669108104
4.243508557768089
4.231199613438097
4.231199613438097
4.231199613438097
4.231199613438097
4.231199613438097
4.2065817247780855
4.188118308283084
4.2065817247780855
4.218890669108104
4.218890669108104
4.218890669108104
4.225045141273086
4.243508557768089
4.255817502098108
4.261971974263091
4.27428091859311
4.2865898629231
4.280435390758093
4.280435390758093
4.280435390758093
4.27428091859311
4.243508557768089
4.243508557768089
4.2681264464281
4.27428091859311
4.280435390758093
4.2681264464281
4.27428091859311
4.280435390758093
4.292744335088111
4.305053279418103
4.3173622237481215
4.3173622237481215
4.329671168078114
4.335825640243124
4.329671168078114
4.329671168078114
4.329671168078114
4.335825640243124
4.341980112408105
4.341980112408105
4.323516695913104
4.3173622237481215
4.3112077515831135
4.292744335088111
4.280435390758093
4.255817502098108
4.243508557768089
4.225045141273086
4.212736196943095
4.200427252613103
4.1942727804480935
4.181963836118102
4.169654891788083
4.163500419623101
4.163500419623101
4.169654891788083
4.169654891788083
4.169654891788083
4.157345947458091
4.163500419623101
4.163500419623101
4.157345947458091
4.163500419623101
4.163500419623101
4.157345947458091
4.157345947458091
4.163500419623101
4.151191475293081
4.157345947458091
4.157345947458091
4.163500419623101
4.169654891788083
4.163500419623101
4.169654891788083
4.163500419623101
4.169654891788083
4.169654891788083
4.181963836118102
4.181963836118102
4.1758093639530935
4.1758093639530935
4.181963836118102
4.181963836118102
4.188118308283084
4.181963836118102
4.181963836118102
4.181963836118102
4.188118308283084
4.188118308283084
4.188118308283084
4.188118308283084
4.188118308283084
4.181963836118102
4.181963836118102
4.181963836118102
4.188118308283084
4.188118308283084
4.188118308283084
4.188118308283084
4.188118308283084
4.188118308283084
4.188118308283084
4.181963836118102
4.188118308283084
4.188118308283084
4.181963836118102
4.188118308283084
4.188118308283084
4.188118308283084
4.181963836118102
4.1758093639530935
4.181963836118102
4.188118308283084
4.181963836118102
4.181963836118102
4.181963836118102
4.188118308283084
4.188118308283084
4.181963836118102
4.181963836118102
4.188118308283084
4.1942727804480935
4.200427252613103
4.200427252613103
4.1942727804480935
4.188118308283084
4.188118308283084
4.188118308283084
4.200427252613103
4.200427252613103
4.200427252613103
4.1942727804480935
4.200427252613103
4.1942727804480935
4.181963836118102
4.188118308283084
4.212736196943095
4.1942727804480935
4.1758093639530935
4.181963836118102
4.188118308283084
4.1942727804480935
4.1942727804480935
4.1942727804480935
4.1942727804480935
4.200427252613103
4.2065817247780855
4.2065817247780855
4.218890669108104
4.218890669108104
4.218890669108104
4.212736196943095
4.218890669108104
4.212736196943095
4.218890669108104
4.200427252613103
4.2065817247780855
4.212736196943095
4.231199613438097
4.255817502098108
4.243508557768089
4.231199613438097
4.218890669108104
4.212736196943095
4.225045141273086
4.218890669108104
4.218890669108104
4.212736196943095
4.200427252613103
4.188118308283084
4.1942727804480935
4.188118308283084
4.188118308283084
4.188118308283084
4.188118308283084
4.188118308283084
4.188118308283084
4.200427252613103
4.200427252613103
4.1942727804480935
4.181963836118102
4.188118308283084
4.188118308283084
4.200427252613103
4.2065817247780855
4.225045141273086
4.27428091859311
4.354289056738125
4.421988250553122
4.458915083543125
4.421988250553122
4.341980112408105
4.255817502098108
4.181963836118102
4.089646753643067
4.028102031993082
4.021947559828071
4.052719920653064
4.077337809313075
4.138882530963089
4.1758093639530935
4.169654891788083
4.188118308283084
4.200427252613103
4.1942727804480935
4.188118308283084
4.188118308283084
4.188118308283084
4.188118308283084
4.181963836118102
4.1942727804480935
4.1942727804480935
4.200427252613103
4.2065817247780855
4.2065817247780855
4.2065817247780855
4.200427252613103
4.200427252613103
4.212736196943095
4.2065817247780855
4.2065817247780855
4.200427252613103
4.2065817247780855
4.218890669108104
4.231199613438097
4.225045141273086
4.225045141273086
4.231199613438097
4.231199613438097
4.237354085603107
4.243508557768089
4.243508557768089
4.243508557768089
4.249663029933098
4.249663029933098
4.243508557768089
4.243508557768089
4.261971974263091
4.280435390758093
4.2865898629231
4.2865898629231
4.2865898629231
4.292744335088111
4.305053279418103
4.305053279418103
4.305053279418103
4.3112077515831135
4.3173622237481215
4.3173622237481215
4.323516695913104
4.329671168078114
4.323516695913104
4.329671168078114
4.323516695913104
4.3173622237481215
4.3112077515831135
4.298898807253093
4.292744335088111
4.292744335088111
4.280435390758093
4.27428091859311
4.243508557768089
4.2065817247780855
4.1758093639530935
4.1758093639530935
4.169654891788083
4.169654891788083
4.163500419623101
4.169654891788083
4.163500419623101
4.151191475293081
4.138882530963089
4.138882530963089
4.151191475293081
4.145037003128072
4.151191475293081
4.151191475293081
4.157345947458091
4.151191475293081
4.163500419623101
4.163500419623101
4.157345947458091
4.163500419623101
4.157345947458091
4.151191475293081
4.157345947458091
4.157345947458091
4.163500419623101
4.163500419623101
4.163500419623101
4.157345947458091
4.163500419623101
4.169654891788083
4.1758093639530935
4.181963836118102
4.181963836118102
4.169654891788083
4.169654891788083
4.169654891788083
4.1758093639530935
4.181963836118102
4.188118308283084
4.188118308283084
4.1758093639530935
4.1758093639530935
4.169654891788083
4.181963836118102
4.200427252613103
4.1942727804480935
4.188118308283084
4.2065817247780855
4.218890669108104
4.2065817247780855
4.1942727804480935
4.200427252613103
4.1942727804480935
4.1942727804480935
4.151191475293081
4.151191475293081
4.157345947458091
4.163500419623101
4.163500419623101
4.169654891788083
4.169654891788083
4.181963836118102
4.1758093639530935
4.1758093639530935
4.181963836118102
4.1758093639530935
4.1758093639530935
4.169654891788083
4.169654891788083
4.1758093639530935
4.181963836118102
4.181963836118102
4.181963836118102
4.188118308283084
4.1758093639530935
4.169654891788083
4.181963836118102
4.181963836118102
4.181963836118102
4.181963836118102
4.1758093639530935
4.1758093639530935
4.1758093639530935
4.181963836118102
4.1758093639530935
4.1758093639530935
4.169654891788083
4.163500419623101
4.1758093639530935
4.1758093639530935
4.181963836118102
4.1758093639530935
4.181963836118102
4.163500419623101
4.169654891788083
4.181963836118102
4.188118308283084
4.188118308283084
4.188118308283084
4.181963836118102
4.188118308283084
4.1942727804480935
4.200427252613103
4.2065817247780855
4.1942727804480935
4.181963836118102
4.1942727804480935
4.231199613438097
4.231199613438097
4.218890669108104
4.237354085603107
4.231199613438097
4.225045141273086
4.212736196943095
4.2065817247780855
4.212736196943095
4.212736196943095
4.237354085603107
4.218890669108104
4.2065817247780855
4.1942727804480935
4.188118308283084
4.181963836118102
4.188118308283084
4.163500419623101
4.151191475293081
4.169654891788083
4.169654891788083
4.1758093639530935
4.1758093639530935
4.163500419623101
4.163500419623101
4.163500419623101
4.181963836118102
4.212736196943095
4.2681264464281
4.329671168078114
4.391215889728128
4.421988250553122
4.397370361893111
4.305053279418103
4.225045141273086
4.151191475293081
4.083492281478085
4.028102031993082
4.034256504158063
4.0711833371480655
4.120419114468088
4.1758093639530935
4.1942727804480935
4.188118308283084
4.1942727804480935
4.1942727804480935
4.1942727804480935
4.200427252613103
4.1942727804480935
4.200427252613103
4.200427252613103
4.2065817247780855
4.200427252613103
4.212736196943095
4.212736196943095
4.218890669108104
4.218890669108104
4.212736196943095
4.218890669108104
4.218890669108104
4.225045141273086
4.218890669108104
4.218890669108104
4.218890669108104
4.225045141273086
4.212736196943095
4.237354085603107
4.243508557768089
4.231199613438097
4.231199613438097
4.243508557768089
4.255817502098108
4.261971974263091
4.2681264464281
4.255817502098108
4.261971974263091
4.2681264464281
4.27428091859311
4.2865898629231
4.2865898629231
4.2865898629231
4.2865898629231
4.292744335088111
4.305053279418103
4.305053279418103
4.305053279418103
4.3173622237481215
4.3112077515831135
4.3173622237481215
4.3173622237481215
4.3112077515831135
4.3173622237481215
4.329671168078114
4.341980112408105
4.341980112408105
4.341980112408105
4.335825640243124
4.323516695913104
4.305053279418103
4.298898807253093
4.292744335088111
4.2681264464281
4.249663029933098
4.225045141273086
4.2065817247780855
4.1942727804480935
4.181963836118102
4.163500419623101
4.163500419623101
4.157345947458091
4.163500419623101
4.151191475293081
4.151191475293081
4.145037003128072
4.151191475293081
4.145037003128072
4.138882530963089
4.145037003128072
4.145037003128072
4.1327280587980795
4.138882530963089
4.138882530963089
4.145037003128072
4.145037003128072
4.151191475293081
4.151191475293081
4.151191475293081
4.145037003128072
4.151191475293081
4.151191475293081
4.145037003128072
4.151191475293081
4.181963836118102
4.181963836118102
4.157345947458091
4.12657358663307
4.1327280587980795
4.145037003128072
4.145037003128072
4.151191475293081
4.157345947458091
4.151191475293081
4.157345947458091
4.157345947458091
4.157345947458091
4.169654891788083
4.169654891788083
4.169654891788083
4.157345947458091
4.157345947458091
4.163500419623101
4.1758093639530935
4.169654891788083
4.1758093639530935
4.1758093639530935
4.1758093639530935
4.1758093639530935
4.169654891788083
4.169654891788083
4.163500419623101
4.163500419623101
4.163500419623101
4.169654891788083
4.163500419623101
4.163500419623101
4.169654891788083
4.169654891788083
4.163500419623101
4.169654891788083
4.169654891788083
4.169654891788083
4.163500419623101
4.1758093639530935
4.169654891788083
4.1758093639530935
4.169654891788083
4.1758093639530935
4.169654891788083
4.181963836118102
4.1758093639530935
4.1758093639530935
4.1758093639530935
4.1758093639530935
4.181963836118102
4.181963836118102
4.181963836118102
4.181963836118102
4.181963836118102
4.1758093639530935
4.181963836118102
4.1758093639530935
4.1758093639530935
4.188118308283084
4.181963836118102
4.181963836118102
4.200427252613103
4.188118308283084
4.188118308283084
4.181963836118102
4.181963836118102
4.188118308283084
4.1942727804480935
4.200427252613103
4.188118308283084
4.188118308283084
4.188118308283084
4.188118308283084
4.181963836118102
4.188118308283084
4.1758093639530935
4.181963836118102
4.1758093639530935
4.181963836118102
4.181963836118102
4.188118308283084
4.188118308283084
4.188118308283084
4.169654891788083
4.1758093639530935
4.181963836118102
4.200427252613103
4.237354085603107
4.237354085603107
4.225045141273086
4.212736196943095
4.2065817247780855
4.212736196943095
4.200427252613103
4.1942727804480935
4.188118308283084
4.181963836118102
4.181963836118102
4.181963836118102
4.1758093639530935
4.1758093639530935
4.169654891788083
4.1758093639530935
4.1758093639530935
4.1758093639530935
4.1758093639530935
4.1758093639530935
4.188118308283084
4.188118308283084
4.188118308283084
4.1758093639530935
4.1758093639530935
4.169654891788083
4.188118308283084
4.231199613438097
4.3112077515831135
4.37890694539811
4.428142722718132
4.440451667048122
4.385061417563119
4.292744335088111
4.231199613438097
4.138882530963089
4.0711833371480655
4.021947559828071
4.040410976323072
4.0465654484880815
4.120419114468088
4.169654891788083
4.1758093639530935
4.1758093639530935
4.181963836118102
4.188118308283084
4.181963836118102
4.181963836118102
4.181963836118102
4.181963836118102
4.1942727804480935
4.200427252613103
4.200427252613103
4.200427252613103
4.1942727804480935
4.200427252613103
4.1942727804480935
4.200427252613103
4.200427252613103
4.200427252613103
4.2065817247780855
4.2065817247780855
4.200427252613103
4.1942727804480935
4.2065817247780855
4.225045141273086
4.225045141273086
4.231199613438097
4.231199613438097
4.225045141273086
4.231199613438097
4.243508557768089
4.243508557768089
4.243508557768089
4.243508557768089
4.255817502098108
4.261971974263091
4.2681264464281
4.2681264464281
4.27428091859311
4.27428091859311
4.27428091859311
4.2865898629231
4.298898807253093
4.298898807253093
4.3112077515831135
4.3173622237481215
4.3112077515831135
4.329671168078114
4.341980112408105
4.335825640243124
4.335825640243124
4.341980112408105
4.354289056738125
4.341980112408105
4.335825640243124
4.348134584573115
4.335825640243124
4.3173622237481215
4.292744335088111
4.27428091859311
4.261971974263091
4.243508557768089
4.225045141273086
4.212736196943095
4.1942727804480935
4.188118308283084
4.181963836118102
4.163500419623101
4.163500419623101
4.163500419623101
4.157345947458091
4.151191475293081
4.145037003128072
4.157345947458091
4.163500419623101
4.151191475293081
4.151191475293081
4.163500419623101
4.163500419623101
4.163500419623101
4.157345947458091
4.151191475293081
4.163500419623101
4.169654891788083
4.169654891788083
4.1758093639530935
4.1758093639530935
4.163500419623101
4.1758093639530935
4.1758093639530935
4.1758093639530935
4.1758093639530935
4.169654891788083
4.169654891788083
4.181963836118102
4.181963836118102
4.188118308283084
4.188118308283084
4.181963836118102
4.181963836118102
4.1758093639530935
4.1758093639530935
4.169654891788083
4.1758093639530935
4.1758093639530935
4.181963836118102
4.1758093639530935
4.181963836118102
4.1758093639530935
4.181963836118102
4.1758093639530935
4.163500419623101
4.163500419623101
4.1942727804480935
4.2065817247780855
4.163500419623101
4.151191475293081
4.169654891788083
4.169654891788083
4.1758093639530935
4.1758093639530935
4.1758093639530935
4.1758093639530935
4.169654891788083
4.1758093639530935
4.163500419623101
4.169654891788083
4.169654891788083
4.169654891788083
4.1758093639530935
4.169654891788083
4.163500419623101
4.169654891788083
4.169654891788083
4.181963836118102
4.1758093639530935
4.1758093639530935
4.169654891788083
4.169654891788083
4.163500419623101
4.1758093639530935
4.188118308283084
4.181963836118102
4.181963836118102
4.169654891788083
4.169654891788083
4.169654891788083
4.1758093639530935
4.169654891788083
4.169654891788083
4.169654891788083
4.1758093639530935
4.181963836118102
4.169654891788083
4.1758093639530935
4.169654891788083
4.1758093639530935
4.181963836118102
4.1758093639530935
4.169654891788083
4.169654891788083
4.157345947458091
4.1758093639530935
4.181963836118102
4.169654891788083
4.169654891788083
4.1758093639530935
4.1758093639530935
4.169654891788083
4.169654891788083
4.1758093639530935
4.181963836118102
4.1758093639530935
4.181963836118102
4.169654891788083
4.169654891788083
4.1758093639530935
4.181963836118102
4.181963836118102
4.1758093639530935
4.181963836118102
4.188118308283084
4.181963836118102
4.169654891788083
4.163500419623101
4.1758093639530935
4.1942727804480935
4.225045141273086
4.225045141273086
4.218890669108104
4.200427252613103
4.2065817247780855
4.2065817247780855
4.200427252613103
4.1942727804480935
4.188118308283084
4.181963836118102
4.181963836118102
4.1758093639530935
4.1758093639530935
4.1758093639530935
4.169654891788083
4.1758093639530935
4.169654891788083
4.163500419623101
4.169654891788083
4.1758093639530935
4.181963836118102
4.1758093639530935
4.169654891788083
4.181963836118102
4.1758093639530935
4.1758093639530935
4.181963836118102
4.237354085603107
4.323516695913104
4.397370361893111
4.440451667048122
4.440451667048122
4.366598001068117
4.27428091859311
4.218890669108104
4.114264642303079
4.028102031993082
4.003484143333068
4.040410976323072
4.083492281478085
4.120419114468088
4.163500419623101
4.1758093639530935
4.188118308283084
4.188118308283084
4.181963836118102
4.181963836118102
4.188118308283084
4.1942727804480935
4.218890669108104
4.218890669108104
4.212736196943095
4.212736196943095
4.1758093639530935
4.1758093639530935
4.188118308283084
4.188118308283084
4.1942727804480935
4.200427252613103
4.200427252613103
4.200427252613103
4.212736196943095
4.212736196943095
4.212736196943095
4.212736196943095
4.225045141273086
4.212736196943095
4.218890669108104
4.231199613438097
4.231199613438097
4.237354085603107
4.237354085603107
4.243508557768089
4.249663029933098
4.255817502098108
4.249663029933098
4.255817502098108
4.243508557768089
4.261971974263091
4.2681264464281
4.2865898629231
4.2865898629231
4.2865898629231
4.292744335088111
4.298898807253093
4.292744335088111
4.292744335088111
4.298898807253093
4.3173622237481215
4.3173622237481215
4.3173622237481215
4.323516695913104
4.329671168078114
4.335825640243124
4.329671168078114
4.323516695913104
4.3112077515831135
4.305053279418103
4.298898807253093
4.2865898629231
4.261971974263091
4.243508557768089
4.237354085603107
4.225045141273086
4.200427252613103
4.169654891788083
4.169654891788083
4.200427252613103
4.1942727804480935
4.163500419623101
4.157345947458091
4.151191475293081
4.163500419623101
4.151191475293081
4.157345947458091
4.151191475293081
4.169654891788083
4.1758093639530935
4.157345947458091
4.163500419623101
4.163500419623101
4.169654891788083
4.157345947458091
4.138882530963089
4.108110170138069
4.12657358663307
4.12657358663307
4.145037003128072
4.157345947458091
4.157345947458091
4.157345947458091
4.157345947458091
4.151191475293081
4.145037003128072
4.145037003128072
4.157345947458091
4.163500419623101
4.163500419623101
4.157345947458091
4.163500419623101
4.169654891788083
4.169654891788083
4.163500419623101
4.169654891788083
4.169654891788083
4.1758093639530935
4.181963836118102
4.188118308283084
4.181963836118102
4.181963836118102
4.181963836118102
4.181963836118102
4.169654891788083
4.169654891788083
4.169654891788083
4.1758093639530935
4.188118308283084
4.181963836118102
4.169654891788083
4.1758093639530935
4.169654891788083
4.1758093639530935
4.1758093639530935
4.181963836118102
4.169654891788083
4.169654891788083
4.169654891788083
4.1758093639530935
4.1758093639530935
4.169654891788083
4.1758093639530935
4.1942727804480935
4.188118308283084
4.188118308283084
4.1942727804480935
4.188118308283084
4.1942727804480935
4.181963836118102
4.145037003128072
4.1327280587980795
4.145037003128072
4.163500419623101
4.1758093639530935
4.169654891788083
4.1758093639530935
4.1758093639530935
4.1758093639530935
4.1758093639530935
4.169654891788083
4.181963836118102
4.181963836118102
4.188118308283084
4.1758093639530935
4.188118308283084
4.188118308283084
4.181963836118102
4.181963836118102
4.181963836118102
4.188118308283084
4.181963836118102
4.181963836118102
4.188118308283084
4.188118308283084
4.188118308283084
4.1942727804480935
4.1942727804480935
4.200427252613103
4.1942727804480935
4.200427252613103
4.200427252613103
4.2065817247780855
4.2065817247780855
4.200427252613103
4.2065817247780855
4.2065817247780855
4.212736196943095
4.2065817247780855
4.2065817247780855
4.212736196943095
4.225045141273086
4.255817502098108
4.249663029933098
4.249663029933098
4.231199613438097
4.218890669108104
4.225045141273086
4.225045141273086
4.231199613438097
4.218890669108104
4.212736196943095
4.1942727804480935
4.200427252613103
4.200427252613103
4.188118308283084
4.200427252613103
4.212736196943095
4.200427252613103
4.1942727804480935
4.200427252613103
4.2065817247780855
4.1942727804480935
4.200427252613103
4.200427252613103
4.200427252613103
4.1942727804480935
4.1942727804480935
4.212736196943095
4.261971974263091
4.335825640243124
4.40352483405812
4.446606139213133
4.434297194883113
4.3727524732331275
4.2865898629231
4.212736196943095
4.12657358663307
4.0465654484880815
4.021947559828071
4.052719920653064
4.089646753643067
4.145037003128072
4.181963836118102
4.200427252613103
4.200427252613103
4.1942727804480935
4.188118308283084
4.188118308283084
4.181963836118102
4.188118308283084
4.2065817247780855
4.212736196943095
4.200427252613103
4.1942727804480935
4.188118308283084
4.200427252613103
4.225045141273086
4.225045141273086
4.218890669108104
4.212736196943095
4.2065817247780855
4.212736196943095
4.212736196943095
4.218890669108104
4.212736196943095
4.218890669108104
4.218890669108104
4.225045141273086
4.218890669108104
4.218890669108104
4.225045141273086
4.212736196943095
4.218890669108104
4.249663029933098
4.27428091859311
4.2681264464281
4.243508557768089
4.225045141273086
4.237354085603107
4.243508557768089
4.255817502098108
4.2681264464281
4.27428091859311
4.27428091859311
4.2865898629231
4.2865898629231
4.298898807253093
4.305053279418103
4.305053279418103
4.3112077515831135
4.3112077515831135
4.3112077515831135
4.3173622237481215
4.323516695913104
4.323516695913104
4.323516695913104
4.323516695913104
4.3112077515831135
4.292744335088111
4.280435390758093
4.280435390758093
4.2681264464281
4.243508557768089
4.231199613438097
4.2065817247780855
4.1942727804480935
4.1758093639530935
4.163500419623101
4.163500419623101
4.163500419623101
4.157345947458091
4.151191475293081
4.145037003128072
4.138882530963089
4.138882530963089
4.138882530963089
4.151191475293081
4.145037003128072
4.138882530963089
4.138882530963089
4.1327280587980795
4.138882530963089
4.145037003128072
4.151191475293081
4.145037003128072
4.157345947458091
4.151191475293081
4.151191475293081
4.157345947458091
4.157345947458091
4.157345947458091
4.157345947458091
4.169654891788083
4.1758093639530935
4.169654891788083
4.169654891788083
4.169654891788083
4.169654891788083
4.1758093639530935
4.181963836118102
4.1758093639530935
4.181963836118102
4.169654891788083
4.1758093639530935
4.1758093639530935
4.169654891788083
4.157345947458091
4.151191475293081
4.163500419623101
4.163500419623101
4.1758093639530935
4.169654891788083
4.169654891788083
4.1758093639530935
4.1758093639530935
4.1758093639530935
4.169654891788083
4.163500419623101
4.169654891788083
4.181963836118102
4.1758093639530935
4.1758093639530935
4.169654891788083
4.163500419623101
4.169654891788083
4.1758093639530935
4.163500419623101
4.163500419623101
4.163500419623101
4.157345947458091
4.169654891788083
4.1758093639530935
4.1758093639530935
4.163500419623101
4.163500419623101
4.151191475293081
4.157345947458091
4.169654891788083
4.1758093639530935
4.181963836118102
4.1758093639530935
4.163500419623101
4.169654891788083
4.163500419623101
4.169654891788083
4.169654891788083
4.169654891788083
4.181963836118102
4.181963836118102
4.1758093639530935
4.181963836118102
4.1758093639530935
4.1758093639530935
4.188118308283084
4.181963836118102
4.188118308283084
4.200427252613103
4.2065817247780855
4.1942727804480935
4.200427252613103
4.181963836118102
4.163500419623101
4.138882530963089
4.157345947458091
4.163500419623101
4.169654891788083
4.163500419623101
4.181963836118102
4.1942727804480935
4.181963836118102
4.200427252613103
4.225045141273086
4.212736196943095
4.2065817247780855
4.2065817247780855
4.212736196943095
4.2065817247780855
4.169654891788083
4.163500419623101
4.1758093639530935
4.188118308283084
4.188118308283084
4.181963836118102
4.181963836118102
4.200427252613103
4.200427252613103
4.1942727804480935
4.200427252613103
4.2065817247780855
4.2065817247780855
4.1942727804480935
4.1942727804480935
4.200427252613103
4.212736196943095
4.2065817247780855
4.2065817247780855
4.212736196943095
4.212736196943095
4.2065817247780855
4.2065817247780855
4.2065817247780855
4.225045141273086
4.255817502098108
4.2681264464281
4.261971974263091
4.243508557768089
4.243508557768089
4.249663029933098
4.243508557768089
4.231199613438097
4.231199613438097
4.231199613438097
4.231199613438097
4.218890669108104
4.2065817247780855
4.212736196943095
4.2065817247780855
4.212736196943095
4.212736196943095
4.200427252613103
4.2065817247780855
4.212736196943095
4.218890669108104
4.218890669108104
4.212736196943095
4.225045141273086
4.212736196943095
4.212736196943095
4.225045141273086
4.237354085603107
4.27428091859311
4.348134584573115
4.428142722718132
4.483532972203136
4.489687444368147
4.415833778388112
4.3173622237481215
4.249663029933098
4.1758093639530935
4.108110170138069
4.065028864983084
4.089646753643067
4.138882530963089
4.1942727804480935
4.225045141273086
4.243508557768089
4.255817502098108
4.243508557768089
4.237354085603107
4.237354085603107
4.243508557768089
4.237354085603107
4.243508557768089
4.243508557768089
4.249663029933098
4.255817502098108
4.255817502098108
4.249663029933098
4.255817502098108
4.255817502098108
4.249663029933098
4.255817502098108
4.261971974263091
4.255817502098108
4.2681264464281
4.2681264464281
4.27428091859311
4.27428091859311
4.280435390758093
4.280435390758093
4.2681264464281
4.2681264464281
4.261971974263091
4.280435390758093
4.298898807253093
4.305053279418103
4.298898807253093
4.305053279418103
4.323516695913104
4.298898807253093
4.298898807253093
4.3112077515831135
4.323516695913104
4.335825640243124
4.341980112408105
4.348134584573115
4.348134584573115
4.354289056738125
4.354289056738125
4.366598001068117
4.366598001068117
4.3727524732331275
4.385061417563119
4.385061417563119
4.385061417563119
4.37890694539811
4.37890694539811
4.37890694539811
4.385061417563119
4.3727524732331275
4.3727524732331275
4.360443528903107
4.348134584573115
4.323516695913104
4.298898807253093
4.280435390758093
4.27428091859311
4.261971974263091
4.237354085603107
4.225045141273086
4.225045141273086
4.2065817247780855
4.1942727804480935
4.200427252613103
4.200427252613103
4.1942727804480935
4.1942727804480935
4.181963836118102
4.1942727804480935
4.1942727804480935
4.181963836118102
4.188118308283084
4.188118308283084
4.181963836118102
4.188118308283084
4.188118308283084
4.188118308283084
4.200427252613103
4.1942727804480935
4.188118308283084
4.1942727804480935
4.188118308283084
4.1942727804480935
4.1942727804480935
4.2065817247780855
4.2065817247780855
4.2065817247780855
4.2065817247780855
4.1942727804480935
4.1942727804480935
4.1942727804480935
4.2065817247780855
4.2065817247780855
4.2065817247780855
4.212736196943095
4.218890669108104
4.212736196943095
4.212736196943095
4.225045141273086
4.218890669108104
4.218890669108104
4.218890669108104
4.218890669108104
4.218890669108104
4.225045141273086
4.225045141273086
4.225045141273086
4.218890669108104
4.225045141273086
4.225045141273086
4.225045141273086
4.212736196943095
4.212736196943095
4.218890669108104
4.218890669108104
4.225045141273086
4.231199613438097
4.231199613438097
4.231199613438097
4.231199613438097
4.225045141273086
4.231199613438097
4.231199613438097
4.225045141273086
4.225045141273086
4.218890669108104
4.218890669108104
4.231199613438097
4.237354085603107
4.237354085603107
4.243508557768089
4.231199613438097
4.243508557768089
4.243508557768089
4.237354085603107
4.237354085603107
4.237354085603107
4.231199613438097
4.249663029933098
4.243508557768089
4.249663029933098
4.249663029933098
4.243508557768089
4.225045141273086
4.231199613438097
4.231199613438097
4.231199613438097
4.237354085603107
4.243508557768089
4.261971974263091
4.280435390758093
4.280435390758093
4.2681264464281
4.249663029933098
4.218890669108104
4.225045141273086
4.237354085603107
4.243508557768089
4.237354085603107
4.243508557768089
4.255817502098108
4.243508557768089
4.249663029933098
4.243508557768089
4.249663029933098
4.249663029933098
4.249663029933098
4.243508557768089
4.249663029933098
4.249663029933098
4.249663029933098
4.243508557768089
4.243508557768089
4.249663029933098
4.243508557768089
4.249663029933098
4.237354085603107
4.243508557768089
4.243508557768089
4.255817502098108
4.243508557768089
4.249663029933098
4.243508557768089
4.249663029933098
4.255817502098108
4.243508557768089
4.243508557768089
4.249663029933098
4.255817502098108
4.249663029933098
4.255817502098108
4.255817502098108
4.243508557768089
4.243508557768089
4.231199613438097
4.243508557768089
4.255817502098108
4.2865898629231
4.298898807253093
4.292744335088111
4.2865898629231
4.2681264464281
4.2681264464281
4.2681264464281
4.261971974263091
4.261971974263091
4.249663029933098
4.249663029933098
4.231199613438097
4.231199613438097
4.231199613438097
4.231199613438097
4.225045141273086
4.237354085603107
4.243508557768089
4.237354085603107
4.237354085603107
4.225045141273086
4.231199613438097
4.231199613438097
4.237354085603107
4.231199613438097
4.237354085603107
4.237354085603107
4.280435390758093
4.335825640243124
4.40967930622313
4.471224027873144
4.501996388698137
4.458915083543125
4.3727524732331275
4.292744335088111
4.218890669108104
4.151191475293081
4.089646753643067
4.089646753643067
4.120419114468088
4.145037003128072
4.200427252613103
4.231199613438097
4.200427252613103
4.2065817247780855
4.212736196943095
4.218890669108104
4.225045141273086
4.225045141273086
4.231199613438097
4.237354085603107
4.237354085603107
4.243508557768089
4.243508557768089
4.237354085603107
4.237354085603107
4.249663029933098
4.243508557768089
4.237354085603107
4.243508557768089
4.243508557768089
4.237354085603107
4.249663029933098
4.255817502098108
4.255817502098108
4.261971974263091
4.261971974263091
4.2681264464281
4.27428091859311
4.27428091859311
4.261971974263091
4.255817502098108
4.2681264464281
4.2865898629231
4.27428091859311
4.3112077515831135
4.323516695913104
4.323516695913104
4.3173622237481215
4.3112077515831135
4.323516695913104
4.323516695913104
4.3173622237481215
4.3112077515831135
4.323516695913104
4.329671168078114
4.335825640243124
4.335825640243124
4.335825640243124
4.354289056738125
4.366598001068117
4.366598001068117
4.366598001068117
4.3727524732331275
4.366598001068117
4.354289056738125
4.348134584573115
4.348134584573115
4.335825640243124
4.329671168078114
4.3173622237481215
4.305053279418103
4.292744335088111
4.27428091859311
4.255817502098108
4.249663029933098
4.237354085603107
4.218890669108104
4.218890669108104
4.212736196943095
4.212736196943095
4.2065817247780855
4.200427252613103
4.188118308283084
4.188118308283084
4.1942727804480935
4.188118308283084
4.1942727804480935
4.1942727804480935
4.1942727804480935
4.188118308283084
4.188118308283084
4.188118308283084
4.169654891788083
4.181963836118102
4.188118308283084
4.1942727804480935
4.200427252613103
4.188118308283084
4.1942727804480935
4.200427252613103
4.200427252613103
4.2065817247780855
4.200427252613103
4.2065817247780855
4.2065817247780855
4.2065817247780855
4.188118308283084
4.212736196943095
4.212736196943095
4.2065817247780855
4.212736196943095
4.2065817247780855
4.2065817247780855
4.2065817247780855
4.212736196943095
4.2065817247780855
4.218890669108104
4.218890669108104
4.212736196943095
4.225045141273086
4.231199613438097
4.225045141273086
4.225045141273086
4.225045141273086
4.225045141273086
4.212736196943095
4.212736196943095
4.225045141273086
4.218890669108104
4.225045141273086
4.225045141273086
4.218890669108104
4.218890669108104
4.218890669108104
4.218890669108104
4.212736196943095
4.218890669108104
4.212736196943095
4.218890669108104
4.218890669108104
4.212736196943095
4.231199613438097
4.218890669108104
4.212736196943095
4.212736196943095
4.218890669108104
4.231199613438097
4.225045141273086
4.218890669108104
4.225045141273086
4.225045141273086
4.218890669108104
4.231199613438097
4.218890669108104
4.212736196943095
4.2065817247780855
4.212736196943095
4.212736196943095
4.212736196943095
4.225045141273086
4.225045141273086
4.218890669108104
4.218890669108104
4.218890669108104
4.212736196943095
4.218890669108104
4.243508557768089
4.243508557768089
4.2065817247780855
4.188118308283084
4.2065817247780855
4.212736196943095
4.2065817247780855
4.2065817247780855
4.212736196943095
4.212736196943095
4.212736196943095
4.212736196943095
4.218890669108104
4.225045141273086
4.225045141273086
4.225045141273086
4.225045141273086
4.225045141273086
4.212736196943095
4.218890669108104
4.218890669108104
4.200427252613103
4.212736196943095
4.225045141273086
4.218890669108104
4.225045141273086
4.218890669108104
4.231199613438097
4.231199613438097
4.225045141273086
4.212736196943095
4.218890669108104
4.231199613438097
4.249663029933098
4.2681264464281
4.261971974263091
4.249663029933098
4.243508557768089
4.243508557768089
4.237354085603107
4.237354085603107
4.243508557768089
4.231199613438097
4.218890669108104
4.2065817247780855
4.212736196943095
4.212736196943095
4.218890669108104
4.218890669108104
4.231199613438097
4.231199613438097
4.225045141273086
4.225045141273086
4.218890669108104
4.225045141273086
4.231199613438097
4.231199613438097
4.218890669108104
4.218890669108104
4.243508557768089
4.298898807253093
4.366598001068117
4.40967930622313
4.458915083543125
4.446606139213133
4.366598001068117
4.2865898629231
4.218890669108104
4.1327280587980795
4.058874392818074
4.034256504158063
4.058874392818074
4.101955697973087
4.169654891788083
4.212736196943095
4.225045141273086
4.231199613438097
4.225045141273086
4.225045141273086
4.218890669108104
4.225045141273086
4.218890669108104
4.218890669108104
4.225045141273086
4.225045141273086
4.225045141273086
4.231199613438097
4.237354085603107
4.237354085603107
4.225045141273086
4.231199613438097
4.225045141273086
4.225045141273086
4.212736196943095
4.243508557768089
4.255817502098108
4.255817502098108
4.249663029933098
4.255817502098108
4.249663029933098
4.255817502098108
4.255817502098108
4.261971974263091
4.280435390758093
4.27428091859311
4.27428091859311
4.2681264464281
4.27428091859311
4.280435390758093
4.280435390758093
4.292744335088111
4.292744335088111
4.292744335088111
4.305053279418103
4.305053279418103
4.305053279418103
4.305053279418103
4.3112077515831135
4.3173622237481215
4.323516695913104
4.329671168078114
4.329671168078114
4.360443528903107
4.360443528903107
4.360443528903107
4.360443528903107
4.360443528903107
4.335825640243124
4.3112077515831135
4.323516695913104
4.3173622237481215
4.305053279418103
4.305053279418103
4.2865898629231
4.2681264464281
4.249663029933098
4.237354085603107
4.218890669108104
4.2065817247780855
4.1942727804480935
4.1942727804480935
4.181963836118102
4.1758093639530935
4.1758093639530935
4.1942727804480935
4.188118308283084
4.181963836118102
4.1758093639530935
4.1758093639530935
4.1758093639530935
4.169654891788083
4.1758093639530935
4.1942727804480935
4.200427252613103
4.1942727804480935
4.181963836118102
4.1758093639530935
4.169654891788083
4.145037003128072
4.120419114468088
4.1327280587980795
4.151191475293081
4.157345947458091
4.157345947458091
4.163500419623101
4.163500419623101
4.157345947458091
4.163500419623101
4.163500419623101
4.169654891788083
4.1758093639530935
4.1758093639530935
4.169654891788083
4.1758093639530935
4.1758093639530935
4.181963836118102
4.181963836118102
4.1758093639530935
4.181963836118102
4.169654891788083
4.181963836118102
4.188118308283084
4.188118308283084
4.181963836118102
4.200427252613103
4.212736196943095
4.200427252613103
4.200427252613103
4.1942727804480935
4.2065817247780855
4.2065817247780855
4.1942727804480935
4.188118308283084
4.188118308283084
4.188118308283084
4.1942727804480935
4.188118308283084
4.1942727804480935
4.169654891788083
4.163500419623101
4.169654891788083
4.169654891788083
4.1758093639530935
4.169654891788083
4.169654891788083
4.163500419623101
4.169654891788083
4.181963836118102
4.181963836118102
4.1758093639530935
4.181963836118102
4.188118308283084
4.181963836118102
4.181963836118102
4.1758093639530935
4.1942727804480935
4.1942727804480935
4.181963836118102
4.181963836118102
4.188118308283084
4.181963836118102
4.188118308283084
4.188118308283084
4.188118308283084
4.188118308283084
4.200427252613103
4.2065817247780855
4.200427252613103
4.200427252613103
4.1942727804480935
4.200427252613103
4.1942727804480935
4.1942727804480935
4.200427252613103
4.200427252613103
4.200427252613103
4.2065817247780855
4.1942727804480935
4.1942727804480935
4.2065817247780855
4.2065817247780855
4.1942727804480935
4.1942727804480935
4.212736196943095
4.200427252613103
4.1758093639530935
4.1758093639530935
4.181963836118102
4.181963836118102
4.1942727804480935
4.188118308283084
4.188118308283084
4.181963836118102
4.188118308283084
4.1942727804480935
4.181963836118102
4.1942727804480935
4.188118308283084
4.1942727804480935
4.1942727804480935
4.1942727804480935
4.181963836118102
4.181963836118102
4.1942727804480935
4.200427252613103
4.231199613438097
4.237354085603107
4.231199613438097
4.218890669108104
4.2065817247780855
4.2065817247780855
4.200427252613103
4.200427252613103
4.200427252613103
4.169654891788083
4.181963836118102
4.200427252613103
4.181963836118102
4.181963836118102
4.181963836118102
4.1942727804480935
4.181963836118102
4.181963836118102
4.188118308283084
4.188118308283084
4.181963836118102
4.188118308283084
4.1758093639530935
4.1758093639530935
4.169654891788083
4.169654891788083
4.212736196943095
4.298898807253093
4.3727524732331275
4.415833778388112
4.440451667048122
4.385061417563119
4.292744335088111
4.2065817247780855
4.1327280587980795
4.058874392818074
4.003484143333068
4.028102031993082
4.0711833371480655
4.120419114468088
4.163500419623101
4.1758093639530935
4.181963836118102
4.181963836118102
4.1758093639530935
4.188118308283084
4.188118308283084
4.188118308283084
4.1758093639530935
4.1758093639530935
4.188118308283084
4.188118308283084
4.188118308283084
4.1942727804480935
4.188118308283084
4.188118308283084
4.200427252613103
4.1942727804480935
4.1942727804480935
4.200427252613103
4.200427252613103
4.200427252613103
4.1942727804480935
4.200427252613103
4.2065817247780855
4.2065817247780855
4.2065817247780855
4.2065817247780855
4.2065817247780855
4.225045141273086
4.225045141273086
4.231199613438097
4.231199613438097
4.237354085603107
4.237354085603107
4.237354085603107
4.237354085603107
4.237354085603107
4.237354085603107
4.249663029933098
4.261971974263091
4.261971974263091
4.2681264464281
4.27428091859311
4.27428091859311
4.27428091859311
4.280435390758093
4.2865898629231
4.298898807253093
4.298898807253093
4.298898807253093
4.305053279418103
4.298898807253093
4.305053279418103
4.305053279418103
4.298898807253093
4.292744335088111
4.298898807253093
4.2865898629231
4.2681264464281
4.249663029933098
4.255817502098108
4.237354085603107
4.212736196943095
4.1758093639530935
4.1327280587980795
4.12657358663307
4.12657358663307
4.12657358663307
4.114264642303079
4.108110170138069
4.108110170138069
4.120419114468088
4.120419114468088
4.120419114468088
4.120419114468088
4.114264642303079
4.114264642303079
4.120419114468088
4.120419114468088
4.114264642303079
4.114264642303079
4.114264642303079
4.12657358663307
4.12657358663307
4.120419114468088
4.120419114468088
4.114264642303079
4.12657358663307
4.12657358663307
4.12657358663307
4.1327280587980795
4.1327280587980795
4.120419114468088
4.1327280587980795
4.138882530963089
4.138882530963089
4.138882530963089
4.138882530963089
4.138882530963089
4.138882530963089
4.138882530963089
4.138882530963089
4.138882530963089
4.138882530963089
4.1327280587980795
4.1327280587980795
4.138882530963089
4.1327280587980795
4.145037003128072
4.151191475293081
4.145037003128072
4.151191475293081
4.145037003128072
4.145037003128072
4.138882530963089
4.151191475293081
4.145037003128072
4.151191475293081
4.145037003128072
4.138882530963089
4.138882530963089
4.1327280587980795
4.1327280587980795
4.138882530963089
4.138882530963089
4.12657358663307
4.145037003128072
4.138882530963089
4.1327280587980795
4.1327280587980795
4.12657358663307
4.138882530963089
4.1327280587980795
4.1327280587980795
4.1327280587980795
4.138882530963089
4.1327280587980795
4.1327280587980795
4.12657358663307
4.120419114468088
4.120419114468088
4.12657358663307
4.138882530963089
4.138882530963089
4.1327280587980795
4.138882530963089
4.138882530963089
4.138882530963089
4.138882530963089
4.138882530963089
4.145037003128072
4.145037003128072
4.151191475293081
4.145037003128072
4.157345947458091
4.151191475293081
4.157345947458091
4.138882530963089
4.157345947458091
4.188118308283084
4.1758093639530935
4.169654891788083
4.163500419623101
4.163500419623101
4.163500419623101
4.12657358663307
4.120419114468088
4.145037003128072
4.151191475293081
4.157345947458091
4.145037003128072
4.145037003128072
4.151191475293081
4.163500419623101
4.151191475293081
4.151191475293081
4.151191475293081
4.157345947458091
4.1758093639530935
4.169654891788083
4.169654891788083
4.163500419623101
4.1942727804480935
4.188118308283084
4.1758093639530935
4.188118308283084
4.212736196943095
4.218890669108104
4.2065817247780855
4.163500419623101
4.169654891788083
4.169654891788083
4.1758093639530935
4.169654891788083
4.169654891788083
4.157345947458091
4.145037003128072
4.145037003128072
4.157345947458091
4.151191475293081
4.145037003128072
4.138882530963089
4.145037003128072
4.157345947458091
4.151191475293081
4.151191475293081
4.157345947458091
4.157345947458091
4.157345947458091
4.151191475293081
4.145037003128072
4.157345947458091
4.163500419623101
4.218890669108104
4.292744335088111
4.37890694539811
4.421988250553122
4.415833778388112
4.341980112408105
4.243508557768089
4.163500419623101
4.0711833371480655
4.003484143333068
3.9788662546730578
4.015793087663061
4.065028864983084
4.12657358663307
4.163500419623101
4.163500419623101
4.157345947458091
4.163500419623101
4.1758093639530935
4.1758093639530935
4.181963836118102
4.1758093639530935
4.181963836118102
4.1758093639530935
4.1758093639530935
4.181963836118102
4.181963836118102
4.188118308283084
4.1942727804480935
4.1942727804480935
4.1942727804480935
4.181963836118102
4.1942727804480935
4.200427252613103
4.218890669108104
4.212736196943095
4.2065817247780855
4.212736196943095
4.200427252613103
4.212736196943095
4.200427252613103
4.2065817247780855
4.225045141273086
4.231199613438097
4.231199613438097
4.237354085603107
4.231199613438097
4.218890669108104
4.218890669108104
4.231199613438097
4.237354085603107
4.243508557768089
4.243508557768089
4.255817502098108
4.261971974263091
4.261971974263091
4.2681264464281
4.27428091859311
4.292744335088111
4.292744335088111
4.2865898629231
4.292744335088111
4.305053279418103
4.305053279418103
4.305053279418103
4.3112077515831135
4.3173622237481215
4.3173622237481215
4.3112077515831135
4.305053279418103
4.292744335088111
4.280435390758093
4.2681264464281
4.255817502098108
4.249663029933098
4.212736196943095
4.181963836118102
4.188118308283084
4.181963836118102
4.169654891788083
4.157345947458091
4.151191475293081
4.145037003128072
4.1327280587980795
4.12657358663307
4.114264642303079
4.120419114468088
4.12657358663307
4.12657358663307
4.120419114468088
4.12657358663307
4.138882530963089
4.12657358663307
4.101955697973087
4.108110170138069
4.114264642303079
4.120419114468088
4.120419114468088
4.120419114468088
4.120419114468088
4.1327280587980795
4.138882530963089
4.145037003128072
4.138882530963089
4.138882530963089
4.138882530963089
4.145037003128072
4.151191475293081
4.151191475293081
4.151191475293081
4.145037003128072
4.157345947458091
4.157345947458091
4.151191475293081
4.138882530963089
4.151191475293081
4.163500419623101
4.163500419623101
4.163500419623101
4.157345947458091
4.157345947458091
4.157345947458091
4.169654891788083
4.169654891788083
4.163500419623101
4.163500419623101
4.163500419623101
4.163500419623101
4.163500419623101
4.169654891788083
4.169654891788083
4.163500419623101
4.163500419623101
4.163500419623101
4.169654891788083
4.169654891788083
4.163500419623101
4.169654891788083
4.169654891788083
4.157345947458091
4.163500419623101
4.157345947458091
4.163500419623101
4.163500419623101
4.169654891788083
4.1758093639530935
4.1758093639530935
4.1758093639530935
4.163500419623101
4.169654891788083
4.1758093639530935
4.169654891788083
4.163500419623101
4.163500419623101
4.169654891788083
4.163500419623101
4.157345947458091
4.163500419623101
4.169654891788083
4.163500419623101
4.169654891788083
4.163500419623101
4.169654891788083
4.1758093639530935
4.1758093639530935
4.1758093639530935
4.169654891788083
4.163500419623101
4.157345947458091
4.157345947458091
4.163500419623101
4.169654891788083
4.1758093639530935
4.163500419623101
4.169654891788083
4.169654891788083
4.163500419623101
4.163500419623101
4.169654891788083
4.169654891788083
4.169654891788083
4.169654891788083
4.163500419623101
4.163500419623101
4.169654891788083
4.169654891788083
4.169654891788083
4.1758093639530935
4.188118308283084
4.181963836118102
4.1758093639530935
4.169654891788083
4.181963836118102
4.1942727804480935
4.225045141273086
4.218890669108104
4.212736196943095
4.218890669108104
4.225045141273086
4.225045141273086
4.2065817247780855
4.1942727804480935
4.181963836118102
4.181963836118102
4.188118308283084
4.188118308283084
4.188118308283084
4.188118308283084
4.1758093639530935
4.1758093639530935
4.181963836118102
4.157345947458091
4.157345947458091
4.1942727804480935
4.200427252613103
4.1942727804480935
4.1942727804480935
4.1758093639530935
4.151191475293081
4.157345947458091
4.2065817247780855
4.27428091859311
4.366598001068117
4.434297194883113
4.446606139213133
4.391215889728128
4.292744335088111
4.231199613438097
4.145037003128072
4.065028864983084
4.009638615498079
4.028102031993082
4.058874392818074
4.089646753643067
4.138882530963089
4.169654891788083
4.181963836118102
4.181963836118102
4.200427252613103
4.2065817247780855
4.200427252613103
4.1942727804480935
4.188118308283084
4.200427252613103
4.212736196943095
4.200427252613103
4.200427252613103
4.200427252613103
4.1942727804480935
4.2065817247780855
4.200427252613103
4.2065817247780855
4.200427252613103
4.2065817247780855
4.2065817247780855
4.212736196943095
4.218890669108104
4.218890669108104
4.243508557768089
4.255817502098108
4.243508557768089
4.249663029933098
4.237354085603107
4.243508557768089
4.249663029933098
4.225045141273086
4.225045141273086
4.237354085603107
4.243508557768089
4.243508557768089
4.255817502098108
4.261971974263091
4.2681264464281
4.27428091859311
4.2865898629231
4.2865898629231
4.2865898629231
4.298898807253093
4.298898807253093
4.3112077515831135
4.305053279418103
4.305053279418103
4.323516695913104
4.329671168078114
4.341980112408105
4.348134584573115
4.335825640243124
4.335825640243124
4.348134584573115
4.341980112408105
4.329671168078114
4.3173622237481215
4.298898807253093
4.2865898629231
4.2681264464281
4.261971974263091
4.243508557768089
4.231199613438097
4.218890669108104
4.200427252613103
4.1942727804480935
4.1758093639530935
4.1758093639530935
4.163500419623101
4.157345947458091
4.145037003128072
4.145037003128072
4.157345947458091
4.163500419623101
4.157345947458091
4.151191475293081
4.157345947458091
4.151191475293081
4.157345947458091
4.157345947458091
4.163500419623101
4.157345947458091
4.163500419623101
4.157345947458091
4.157345947458091
4.163500419623101
4.181963836118102
4.188118308283084
4.188118308283084
4.1758093639530935
4.169654891788083
4.181963836118102
4.1942727804480935
4.188118308283084
4.181963836118102
4.188118308283084
4.181963836118102
4.181963836118102
4.181963836118102
4.181963836118102
4.1758093639530935
4.157345947458091
4.169654891788083
4.169654891788083
4.169654891788083
4.1758093639530935
4.181963836118102
4.1758093639530935
4.1758093639530935
4.181963836118102
4.188118308283084
4.188118308283084
4.188118308283084
4.188118308283084
4.181963836118102
4.188118308283084
4.188118308283084
4.188118308283084
4.181963836118102
4.181963836118102
4.181963836118102
4.181963836118102
4.181963836118102
4.181963836118102
4.181963836118102
4.1942727804480935
4.181963836118102
4.181963836118102
4.181963836118102
4.188118308283084
4.181963836118102
4.1942727804480935
4.188118308283084
4.200427252613103
4.1942727804480935
4.181963836118102
4.200427252613103
4.200427252613103
4.2065817247780855
4.2065817247780855
4.200427252613103
4.1942727804480935
4.1942727804480935
4.188118308283084
4.188118308283084
4.1942727804480935
4.1942727804480935
4.1942727804480935
4.188118308283084
4.1942727804480935
4.1942727804480935
4.188118308283084
4.188118308283084
4.2065817247780855
4.212736196943095
4.2065817247780855
4.2065817247780855
4.2065817247780855
4.2065817247780855
4.2065817247780855
4.200427252613103
4.200427252613103
4.2065817247780855
4.225045141273086
4.212736196943095
4.2065817247780855
4.200427252613103
4.188118308283084
4.2065817247780855
4.231199613438097
4.237354085603107
4.237354085603107
4.231199613438097
4.218890669108104
4.225045141273086
4.218890669108104
4.2065817247780855
4.200427252613103
4.188118308283084
4.188118308283084
4.2065817247780855
4.200427252613103
4.1942727804480935
4.1942727804480935
4.1942727804480935
4.200427252613103
4.1942727804480935
4.188118308283084
4.188118308283084
4.188118308283084
4.188118308283084
4.181963836118102
4.188118308283084
4.188118308283084
4.200427252613103
4.2065817247780855
4.249663029933098
4.3173622237481215
4.385061417563119
4.440451667048122
4.452760611378115
4.385061417563119
4.280435390758093
4.1942727804480935
4.12657358663307
4.065028864983084
4.021947559828071
4.0465654484880815
4.095801225808079
4.157345947458091
4.188118308283084
4.1942727804480935
4.1942727804480935
4.200427252613103
4.1942727804480935
4.1942727804480935
4.1942727804480935
4.2065817247780855
4.200427252613103
4.1942727804480935
4.188118308283084
4.1942727804480935
4.225045141273086
4.225045141273086
4.225045141273086
4.1942727804480935
4.181963836118102
4.188118308283084
4.1942727804480935
4.200427252613103
4.212736196943095
4.218890669108104
4.218890669108104
4.225045141273086
4.225045141273086
4.237354085603107
4.237354085603107
4.249663029933098
4.255817502098108
4.255817502098108
4.249663029933098
4.255817502098108
4.261971974263091
4.2681264464281
4.27428091859311
4.27428091859311
4.27428091859311
4.280435390758093
4.292744335088111
4.3112077515831135
4.305053279418103
4.3112077515831135
4.3173622237481215
4.3173622237481215
4.323516695913104
4.323516695913104
4.323516695913104
4.329671168078114
4.335825640243124
4.341980112408105
4.341980112408105
4.348134584573115
4.335825640243124
4.335825640243124
4.335825640243124
4.3112077515831135
4.298898807253093
4.3112077515831135
4.298898807253093
4.280435390758093
4.2681264464281
4.255817502098108
4.237354085603107
4.218890669108104
4.2065817247780855
4.188118308283084
4.188118308283084
4.1758093639530935
4.1758093639530935
4.169654891788083
4.157345947458091
4.157345947458091
4.151191475293081
4.157345947458091
4.151191475293081
4.1758093639530935
4.157345947458091
4.169654891788083
4.169654891788083
4.169654891788083
4.157345947458091
4.151191475293081
4.157345947458091
4.1758093639530935
4.169654891788083
4.169654891788083
4.1758093639530935
4.169654891788083
4.169654891788083
4.1758093639530935
4.169654891788083
4.169654891788083
4.169654891788083
4.169654891788083
4.169654891788083
4.1758093639530935
4.181963836118102
4.181963836118102
4.1758093639530935
4.169654891788083
4.181963836118102
4.1758093639530935
4.181963836118102
4.181963836118102
4.169654891788083
4.181963836118102
4.181963836118102
4.181963836118102
4.181963836118102
4.1758093639530935
4.188118308283084
4.1758093639530935
4.1758093639530935
4.188118308283084
4.181963836118102
4.188118308283084
4.1942727804480935
4.188118308283084
4.181963836118102
4.1758093639530935
4.1758093639530935
4.188118308283084
4.188118308283084
4.1758093639530935
4.181963836118102
4.188118308283084
4.200427252613103
4.212736196943095
4.212736196943095
4.200427252613103
4.200427252613103
4.188118308283084
4.1758093639530935
4.157345947458091
4.2065817247780855
4.2065817247780855
4.200427252613103
4.2065817247780855
4.200427252613103
4.200427252613103
4.181963836118102
4.151191475293081
4.163500419623101
4.1758093639530935
4.181963836118102
4.1758093639530935
4.169654891788083
4.188118308283084
4.1942727804480935
4.200427252613103
4.2065817247780855
4.1942727804480935
4.200427252613103
4.200427252613103
4.200427252613103
4.200427252613103
4.1942727804480935
4.200427252613103
4.200427252613103
4.200427252613103
4.2065817247780855
4.1942727804480935
4.1942727804480935
4.200427252613103
4.200427252613103
4.2065817247780855
4.2065817247780855
4.212736196943095
4.2065817247780855
4.1942727804480935
4.188118308283084
4.212736196943095
4.225045141273086
4.243508557768089
4.225045141273086
4.218890669108104
4.243508557768089
4.243508557768089
4.237354085603107
4.225045141273086
4.225045141273086
4.212736196943095
4.2065817247780855
4.200427252613103
4.1942727804480935
4.1942727804480935
4.181963836118102
4.181963836118102
4.200427252613103
4.212736196943095
4.1942727804480935
4.1942727804480935
4.181963836118102
4.188118308283084
4.1942727804480935
4.188118308283084
4.188118308283084
4.188118308283084
4.1942727804480935
4.2065817247780855
4.27428091859311
4.348134584573115
4.421988250553122
4.465069555708134
4.452760611378115
4.37890694539811
4.27428091859311
4.188118308283084
4.095801225808079
4.034256504158063
4.028102031993082
4.065028864983084
4.114264642303079
4.181963836118102
4.2065817247780855
4.2065817247780855
4.2065817247780855
4.200427252613103
4.1942727804480935
4.200427252613103
4.212736196943095
4.225045141273086
4.225045141273086
4.218890669108104
4.212736196943095
4.218890669108104
4.218890669108104
4.212736196943095
4.218890669108104
4.218890669108104
4.218890669108104
4.225045141273086
4.225045141273086
4.218890669108104
4.225045141273086
4.231199613438097
4.231199613438097
4.231199613438097
4.237354085603107
4.237354085603107
4.243508557768089
4.243508557768089
4.243508557768089
4.249663029933098
4.255817502098108
4.261971974263091
4.261971974263091
4.261971974263091
4.2681264464281
4.27428091859311
4.2681264464281
4.27428091859311
4.292744335088111
4.298898807253093
4.298898807253093
4.3173622237481215
4.341980112408105
4.329671168078114
4.305053279418103
4.3112077515831135
4.3173622237481215
4.323516695913104
4.335825640243124
4.341980112408105
4.341980112408105
4.341980112408105
4.348134584573115
4.348134584573115
4.348134584573115
4.335825640243124
4.323516695913104
4.305053279418103
4.280435390758093
4.261971974263091
4.237354085603107
4.243508557768089
4.231199613438097
4.218890669108104
4.200427252613103
4.188118308283084
4.1758093639530935
4.1758093639530935
4.163500419623101
4.163500419623101
4.163500419623101
4.157345947458091
4.157345947458091
4.151191475293081
4.151191475293081
4.151191475293081
4.151191475293081
4.157345947458091
4.163500419623101
4.163500419623101
4.151191475293081
4.145037003128072
4.145037003128072
4.157345947458091
4.157345947458091
4.163500419623101
4.163500419623101
4.163500419623101
4.163500419623101
4.169654891788083
4.169654891788083
4.163500419623101
4.1758093639530935
4.1758093639530935
4.169654891788083
4.169654891788083
4.1758093639530935
4.1758093639530935
4.169654891788083
4.169654891788083
4.1758093639530935
4.1758093639530935
4.1758093639530935
4.169654891788083
4.163500419623101
4.181963836118102
4.1758093639530935
4.163500419623101
4.169654891788083
4.169654891788083
4.181963836118102
4.188118308283084
4.188118308283084
4.188118308283084
4.1758093639530935
4.169654891788083
4.169654891788083
4.169654891788083
4.1758093639530935
4.169654891788083
4.169654891788083
4.169654891788083
4.1758093639530935
4.1758093639530935
4.181963836118102
4.200427252613103
4.188118308283084
4.188118308283084
4.181963836118102
4.181963836118102
4.1942727804480935
4.1942727804480935
4.181963836118102
4.188118308283084
4.188118308283084
4.188118308283084
4.169654891788083
4.1758093639530935
4.1758093639530935
4.169654891788083
4.1758093639530935
4.163500419623101
4.163500419623101
4.1758093639530935
4.1758093639530935
4.1758093639530935
4.169654891788083
4.169654891788083
4.169654891788083
4.169654891788083
4.157345947458091
4.163500419623101
4.169654891788083
4.1758093639530935
4.181963836118102
4.169654891788083
4.163500419623101
4.163500419623101
4.163500419623101
4.169654891788083
4.163500419623101
4.151191475293081
4.163500419623101
4.1758093639530935
4.1942727804480935
4.181963836118102
4.188118308283084
4.1758093639530935
4.169654891788083
4.120419114468088
4.1327280587980795
4.151191475293081
4.163500419623101
4.163500419623101
4.163500419623101
4.157345947458091
4.151191475293081
4.163500419623101
4.1758093639530935
4.200427252613103
4.218890669108104
4.2065817247780855
4.2065817247780855
4.1942727804480935
4.181963836118102
4.188118308283084
4.1758093639530935
4.1758093639530935
4.169654891788083
4.151191475293081
4.145037003128072
4.151191475293081
4.138882530963089
4.138882530963089
4.138882530963089
4.1327280587980795
4.138882530963089
4.1327280587980795
4.1327280587980795
4.1327280587980795
4.1327280587980795
4.138882530963089
4.12657358663307
4.1327280587980795
4.138882530963089
4.138882530963089
4.157345947458091
4.218890669108104
4.298898807253093
4.3727524732331275
4.415833778388112
4.391215889728128
4.292744335088111
4.212736196943095
4.1327280587980795
4.040410976323072
3.9850207268380675
3.9788662546730578
4.021947559828071
4.065028864983084
4.108110170138069
4.138882530963089
4.138882530963089
4.1327280587980795
4.138882530963089
4.1758093639530935
4.1758093639530935
4.181963836118102
4.169654891788083
4.169654891788083
4.1758093639530935
4.138882530963089
4.12657358663307
4.138882530963089
4.145037003128072
4.151191475293081
4.151191475293081
4.151191475293081
4.151191475293081
4.157345947458091
4.157345947458091
4.163500419623101
4.157345947458091
4.163500419623101
4.163500419623101
4.1758093639530935
4.1758093639530935
4.181963836118102
4.1758093639530935
4.188118308283084
4.181963836118102
4.188118308283084
4.200427252613103
4.200427252613103
4.218890669108104
4.218890669108104
4.231199613438097
4.218890669108104
4.231199613438097
4.237354085603107
4.243508557768089
4.255817502098108
4.255817502098108
4.249663029933098
4.261971974263091
4.2681264464281
4.2681264464281
4.2865898629231
4.2865898629231
4.292744335088111
4.2865898629231
4.2865898629231
4.280435390758093
4.280435390758093
4.292744335088111
4.298898807253093
4.298898807253093
4.2865898629231
4.27428091859311
4.255817502098108
4.231199613438097
4.225045141273086
4.200427252613103
4.1942727804480935
4.1758093639530935
4.1758093639530935
4.138882530963089
4.12657358663307
4.114264642303079
4.114264642303079
4.120419114468088
4.120419114468088
4.114264642303079
4.114264642303079
4.114264642303079
4.120419114468088
4.120419114468088
4.114264642303079
4.120419114468088
4.120419114468088
4.114264642303079
4.114264642303079
4.120419114468088
4.114264642303079
4.108110170138069
4.120419114468088
4.120419114468088
4.12657358663307
4.120419114468088
4.120419114468088
4.120419114468088
4.120419114468088
4.120419114468088
4.12657358663307
4.12657358663307
4.1327280587980795
4.145037003128072
4.138882530963089
4.138882530963089
4.138882530963089
4.1327280587980795
4.145037003128072
4.145037003128072
4.145037003128072
4.151191475293081
4.145037003128072
4.151191475293081
4.157345947458091
4.151191475293081
4.163500419623101
4.151191475293081
4.157345947458091
4.151191475293081
4.157345947458091
4.151191475293081
4.157345947458091
4.151191475293081
4.151191475293081
4.157345947458091
4.157345947458091
4.151191475293081
4.145037003128072
4.145037003128072
4.151191475293081
4.151191475293081
4.145037003128072
4.151191475293081
4.145037003128072
4.12657358663307
4.145037003128072
4.151191475293081
4.163500419623101
4.157345947458091
4.157345947458091
4.157345947458091
4.157345947458091
4.151191475293081
4.157345947458091
4.163500419623101
4.157345947458091
4.157345947458091
4.151191475293081
4.157345947458091
4.157345947458091
4.151191475293081
4.145037003128072
4.151191475293081
4.145037003128072
4.145037003128072
4.145037003128072
4.145037003128072
4.151191475293081
4.145037003128072
4.151191475293081
4.151191475293081
4.151191475293081
4.151191475293081
4.151191475293081
4.151191475293081
4.151191475293081
4.151191475293081
4.151191475293081
4.138882530963089
4.151191475293081
4.157345947458091
4.157345947458091
4.163500419623101
4.151191475293081
4.157345947458091
4.157345947458091
4.163500419623101
4.163500419623101
4.151191475293081
4.145037003128072
4.157345947458091
4.169654891788083
4.200427252613103
4.1942727804480935
4.1942727804480935
4.188118308283084
4.181963836118102
4.181963836118102
4.1758093639530935
4.169654891788083
4.169654891788083
4.163500419623101
4.151191475293081
4.157345947458091
4.169654891788083
4.163500419623101
4.157345947458091
4.1327280587980795
4.12657358663307
4.1327280587980795
4.1327280587980795
4.145037003128072
4.151191475293081
4.145037003128072
4.151191475293081
4.151191475293081
4.157345947458091
4.163500419623101
4.169654891788083
4.2065817247780855
4.280435390758093
4.366598001068117
4.415833778388112
4.428142722718132
4.3727524732331275
4.280435390758093
4.2065817247780855
4.12657358663307
4.040410976323072
4.009638615498079
4.034256504158063
4.0711833371480655
4.108110170138069
4.157345947458091
4.181963836118102
4.188118308283084
4.188118308283084
4.1942727804480935
4.188118308283084
4.181963836118102
4.188118308283084
4.1942727804480935
4.200427252613103
4.200427252613103
4.200427252613103
4.1942727804480935
4.2065817247780855
4.1942727804480935
4.200427252613103
4.212736196943095
4.2065817247780855
4.218890669108104
4.212736196943095
4.225045141273086
4.225045141273086
4.231199613438097
4.231199613438097
4.231199613438097
4.231199613438097
4.243508557768089
4.237354085603107
4.243508557768089
4.255817502098108
4.27428091859311
4.2681264464281
4.2681264464281
4.255817502098108
4.27428091859311
4.280435390758093
4.27428091859311
4.2865898629231
4.2865898629231
4.298898807253093
4.298898807253093
4.298898807253093
4.305053279418103
4.305053279418103
4.3112077515831135
4.3173622237481215
4.329671168078114
4.323516695913104
4.329671168078114
4.335825640243124
4.335825640243124
4.335825640243124
4.335825640243124
4.335825640243124
4.335825640243124
4.329671168078114
4.323516695913104
4.3112077515831135
4.292744335088111
4.280435390758093
4.27428091859311
4.255817502098108
4.237354085603107
4.218890669108104
4.2065817247780855
4.200427252613103
4.188118308283084
4.188118308283084
4.181963836118102
4.163500419623101
4.169654891788083
4.163500419623101
4.151191475293081
4.151191475293081
4.151191475293081
4.145037003128072
4.157345947458091
4.169654891788083
4.163500419623101
4.157345947458091
4.157345947458091
4.157345947458091
4.157345947458091
4.1758093639530935
4.169654891788083
4.169654891788083
4.163500419623101
4.163500419623101
4.163500419623101
4.169654891788083
4.169654891788083
4.169654891788083
4.1758093639530935
4.200427252613103
4.200427252613103
4.181963836118102
4.1758093639530935
4.157345947458091
4.157345947458091
4.145037003128072
4.157345947458091
4.188118308283084
4.181963836118102
4.181963836118102
4.181963836118102
4.181963836118102
4.188118308283084
4.145037003128072
4.151191475293081
4.157345947458091
4.163500419623101
4.169654891788083
4.1758093639530935
4.1758093639530935
4.169654891788083
4.163500419623101
4.1758093639530935
4.1758093639530935
4.1758093639530935
4.169654891788083
4.1758093639530935
4.169654891788083
4.163500419623101
4.163500419623101
4.169654891788083
4.169654891788083
4.1758093639530935
4.1758093639530935
4.1758093639530935
4.169654891788083
4.163500419623101
4.163500419623101
4.163500419623101
4.163500419623101
4.169654891788083
4.169654891788083
4.1758093639530935
4.163500419623101
4.157345947458091
4.169654891788083
4.169654891788083
4.169654891788083
4.169654891788083
4.163500419623101
4.163500419623101
4.163500419623101
4.157345947458091
4.163500419623101
4.169654891788083
4.169654891788083
4.181963836118102
4.181963836118102
4.169654891788083
4.169654891788083
4.1758093639530935
4.1758093639530935
4.1758093639530935
4.1758093639530935
4.1758093639530935
4.169654891788083
4.1758093639530935
4.181963836118102
4.163500419623101
4.1758093639530935
4.1758093639530935
4.181963836118102
4.181963836118102
4.169654891788083
4.1758093639530935
4.181963836118102
4.169654891788083
4.169654891788083
4.1758093639530935
4.1758093639530935
4.1758093639530935
4.181963836118102
4.1758093639530935
4.1758093639530935
4.1758093639530935
4.181963836118102
4.1758093639530935
4.181963836118102
4.188118308283084
4.181963836118102
4.181963836118102
4.163500419623101
4.169654891788083
4.181963836118102
4.200427252613103
4.218890669108104
4.2065817247780855
4.200427252613103
4.1942727804480935
4.2065817247780855
4.200427252613103
4.200427252613103
4.1942727804480935
4.181963836118102
4.169654891788083
4.163500419623101
4.163500419623101
4.163500419623101
4.163500419623101
4.163500419623101
4.163500419623101
4.163500419623101
4.169654891788083
4.169654891788083
4.1758093639530935
4.163500419623101
4.163500419623101
4.163500419623101
4.163500419623101
4.157345947458091
4.157345947458091
4.169654891788083
4.1758093639530935
4.212736196943095
4.298898807253093
4.366598001068117
4.40352483405812
4.391215889728128
4.305053279418103
4.212736196943095
4.138882530963089
4.077337809313075
4.009638615498079
3.9973296711680604
4.021947559828071
4.077337809313075
4.138882530963089
4.163500419623101
4.163500419623101
4.1758093639530935
4.1758093639530935
4.1758093639530935
4.169654891788083
4.163500419623101
4.157345947458091
4.163500419623101
4.1758093639530935
4.1758093639530935
4.181963836118102
4.1758093639530935
4.1758093639530935
4.181963836118102
4.1758093639530935
4.163500419623101
4.163500419623101
4.163500419623101
4.1758093639530935
4.1758093639530935
4.169654891788083
4.169654891788083
4.169654891788083
4.169654891788083
4.169654891788083
4.169654891788083
4.181963836118102
4.188118308283084
4.212736196943095
4.212736196943095
4.2065817247780855
4.218890669108104
4.218890669108104
4.218890669108104
4.237354085603107
4.237354085603107
4.243508557768089
4.243508557768089
4.237354085603107
4.237354085603107
4.243508557768089
4.243508557768089
4.237354085603107
4.243508557768089
4.249663029933098
4.261971974263091
4.2865898629231
4.280435390758093
4.2865898629231
4.27428091859311
4.2865898629231
4.298898807253093
4.298898807253093
4.298898807253093
4.298898807253093
4.2865898629231
4.2681264464281
4.249663029933098
4.231199613438097
4.218890669108104
4.200427252613103
4.188118308283084
4.1758093639530935
4.151191475293081
4.1327280587980795
4.114264642303079
4.120419114468088
4.12657358663307
4.12657358663307
4.120419114468088
4.108110170138069
4.108110170138069
4.089646753643067
4.095801225808079
4.101955697973087
4.108110170138069
4.108110170138069
4.108110170138069
4.101955697973087
4.089646753643067
4.089646753643067
4.108110170138069
4.101955697973087
4.101955697973087
4.095801225808079
4.095801225808079
4.101955697973087
4.095801225808079
4.101955697973087
4.108110170138069
4.108110170138069
4.108110170138069
4.114264642303079
4.108110170138069
4.114264642303079
4.114264642303079
4.114264642303079
4.120419114468088
4.12657358663307
4.114264642303079
4.120419114468088
4.120419114468088
4.120419114468088
4.12657358663307
4.138882530963089
4.151191475293081
4.145037003128072
4.1327280587980795
4.1327280587980795
4.114264642303079
4.077337809313075
4.089646753643067
4.101955697973087
4.101955697973087
4.108110170138069
4.114264642303079
4.120419114468088
4.114264642303079
4.120419114468088
4.12657358663307
4.1327280587980795
4.1327280587980795
4.12657358663307
4.12657358663307
4.1327280587980795
4.138882530963089
4.1327280587980795
4.1327280587980795
4.138882530963089
4.138882530963089
4.12657358663307
4.12657358663307
4.1327280587980795
4.1327280587980795
4.1327280587980795
4.138882530963089
4.12657358663307
4.1327280587980795
4.151191475293081
4.145037003128072
4.169654891788083
4.157345947458091
4.114264642303079
4.1327280587980795
4.138882530963089
4.138882530963089
4.138882530963089
4.138882530963089
4.1327280587980795
4.12657358663307
4.138882530963089
4.12657358663307
4.12657358663307
4.12657358663307
4.145037003128072
4.151191475293081
4.145037003128072
4.138882530963089
4.1327280587980795
4.138882530963089
4.151191475293081
4.151191475293081
4.151191475293081
4.138882530963089
4.138882530963089
4.145037003128072
4.151191475293081
4.145037003128072
4.163500419623101
4.157345947458091
4.151191475293081
4.151191475293081
4.151191475293081
4.157345947458091
4.151191475293081
4.151191475293081
4.157345947458091
4.151191475293081
4.157345947458091
4.151191475293081
4.163500419623101
4.1758093639530935
4.1758093639530935
4.169654891788083
4.163500419623101
4.1758093639530935
4.1758093639530935
4.163500419623101
4.120419114468088
4.1327280587980795
4.145037003128072
4.151191475293081
4.163500419623101
4.163500419623101
4.151191475293081
4.157345947458091
4.157345947458091
4.181963836118102
4.2065817247780855
4.212736196943095
4.218890669108104
4.200427252613103
4.1942727804480935
4.200427252613103
4.200427252613103
4.188118308283084
4.1758093639530935
4.1758093639530935
4.181963836118102
4.169654891788083
4.1758093639530935
4.163500419623101
4.169654891788083
4.169654891788083
4.163500419623101
4.157345947458091
4.163500419623101
4.163500419623101
4.169654891788083
4.169654891788083
4.169654891788083
4.163500419623101
4.163500419623101
4.157345947458091
4.163500419623101
4.1758093639530935
4.212736196943095
4.255817502098108
4.335825640243124
4.40967930622313
4.428142722718132
4.3727524732331275
4.280435390758093
4.200427252613103
4.120419114468088
4.052719920653064
4.009638615498079
4.021947559828071
4.052719920653064
4.108110170138069
4.157345947458091
4.163500419623101
4.169654891788083
4.163500419623101
4.169654891788083
4.169654891788083
4.1758093639530935
4.188118308283084
4.188118308283084
4.1942727804480935
4.188118308283084
4.181963836118102
4.181963836118102
4.181963836118102
4.1942727804480935
4.2065817247780855
4.200427252613103
4.200427252613103
4.1942727804480935
4.1942727804480935
4.188118308283084
4.181963836118102
4.1942727804480935
4.1942727804480935
4.200427252613103
4.200427252613103
4.200427252613103
4.2065817247780855
4.200427252613103
4.200427252613103
4.218890669108104
4.231199613438097
4.237354085603107
4.243508557768089
4.231199613438097
4.243508557768089
4.237354085603107
4.243508557768089
4.255817502098108
4.255817502098108
4.261971974263091
4.27428091859311
4.27428091859311
4.280435390758093
4.280435390758093
4.2865898629231
4.2865898629231
4.292744335088111
4.298898807253093
4.3112077515831135
4.329671168078114
4.3173622237481215
4.3173622237481215
4.323516695913104
4.3173622237481215
4.3112077515831135
4.3112077515831135
4.298898807253093
4.280435390758093
4.2681264464281
4.255817502098108
4.255817502098108
4.237354085603107
4.218890669108104
4.200427252613103
4.188118308283084
4.169654891788083
4.157345947458091
4.151191475293081
4.138882530963089
4.1327280587980795
4.1327280587980795
4.1327280587980795
4.138882530963089
4.12657358663307
4.108110170138069
4.108110170138069
4.120419114468088
4.12657358663307
4.120419114468088
4.12657358663307
4.1327280587980795
4.1327280587980795
4.12657358663307
4.1327280587980795
4.12657358663307
4.12657358663307
4.12657358663307
4.1327280587980795
4.12657358663307
4.1327280587980795
4.1327280587980795
4.1327280587980795
4.12657358663307
4.1327280587980795
4.12657358663307
4.1327280587980795
4.138882530963089
4.138882530963089
4.151191475293081
4.145037003128072
4.145037003128072
4.151191475293081
4.145037003128072
4.138882530963089
4.138882530963089
4.145037003128072
4.145037003128072
4.163500419623101
4.181963836118102
4.181963836118102
4.163500419623101
4.12657358663307
4.138882530963089
4.145037003128072
4.157345947458091
4.163500419623101
4.163500419623101
4.169654891788083
4.169654891788083
4.163500419623101
4.163500419623101
4.163500419623101
4.163500419623101
4.163500419623101
4.163500419623101
4.163500419623101
4.157345947458091
4.163500419623101
4.151191475293081
4.157345947458091
4.151191475293081
4.163500419623101
4.163500419623101
4.163500419623101
4.157345947458091
4.163500419623101
4.151191475293081
4.157345947458091
4.163500419623101
4.169654891788083
4.163500419623101
4.169654891788083
4.1758093639530935
4.169654891788083
4.157345947458091
4.157345947458091
4.157345947458091
4.163500419623101
4.163500419623101
4.163500419623101
4.163500419623101
4.169654891788083
4.163500419623101
4.169654891788083
4.163500419623101
4.169654891788083
4.157345947458091
4.157345947458091
4.169654891788083
4.169654891788083
4.169654891788083
4.169654891788083
4.169654891788083
4.163500419623101
4.1758093639530935
4.163500419623101
4.169654891788083
4.163500419623101
4.163500419623101
4.181963836118102
4.181963836118102
4.1942727804480935
4.181963836118102
4.181963836118102
4.1758093639530935
4.169654891788083
4.1758093639530935
4.181963836118102
4.188118308283084
4.1942727804480935
4.1942727804480935
4.181963836118102
4.169654891788083
4.157345947458091
4.169654891788083
4.181963836118102
4.188118308283084
4.188118308283084
4.188118308283084
4.1758093639530935
4.1758093639530935
4.1758093639530935
4.188118308283084
4.212736196943095
4.225045141273086
4.225045141273086
4.225045141273086
4.212736196943095
4.200427252613103
4.200427252613103
4.200427252613103
4.188118308283084
4.188118308283084
4.169654891788083
4.169654891788083
4.169654891788083
4.163500419623101
4.169654891788083
4.169654891788083
4.169654891788083
4.163500419623101
4.163500419623101
4.169654891788083
4.163500419623101
4.169654891788083
4.169654891788083
4.169654891788083
4.163500419623101
4.163500419623101
4.181963836118102
4.2065817247780855
4.27428091859311
4.354289056738125
4.40967930622313
4.434297194883113
4.37890694539811
4.298898807253093
4.231199613438097
4.145037003128072
4.058874392818074
4.021947559828071
4.028102031993082
4.058874392818074
4.077337809313075
4.12657358663307
4.151191475293081
4.1327280587980795
4.145037003128072
4.151191475293081
4.151191475293081
4.157345947458091
4.163500419623101
4.163500419623101
4.169654891788083
4.1758093639530935
4.1758093639530935
4.1758093639530935
4.169654891788083
4.169654891788083
4.181963836118102
4.181963836118102
4.1942727804480935
4.1942727804480935
4.2065817247780855
4.2065817247780855
4.188118308283084
4.200427252613103
4.212736196943095
4.212736196943095
4.1942727804480935
4.1758093639530935
4.181963836118102
4.1942727804480935
4.200427252613103
4.2065817247780855
4.200427252613103
4.212736196943095
4.218890669108104
4.231199613438097
4.231199613438097
4.231199613438097
4.237354085603107
4.237354085603107
4.243508557768089
4.243508557768089
4.249663029933098
4.249663029933098
4.2681264464281
4.280435390758093
4.2865898629231
4.280435390758093
4.2865898629231
4.298898807253093
4.292744335088111
4.292744335088111
4.305053279418103
4.298898807253093
4.305053279418103
4.298898807253093
4.305053279418103
4.292744335088111
4.280435390758093
4.261971974263091
4.249663029933098
4.225045141273086
4.212736196943095
4.1942727804480935
4.188118308283084
4.188118308283084
4.163500419623101
4.151191475293081
4.145037003128072
4.1327280587980795
4.12657358663307
4.120419114468088
4.114264642303079
4.108110170138069
4.114264642303079
4.114264642303079
4.12657358663307
4.12657358663307
4.12657358663307
4.120419114468088
4.114264642303079
4.108110170138069
4.108110170138069
4.120419114468088
4.120419114468088
4.114264642303079
4.120419114468088
4.114264642303079
4.108110170138069
4.120419114468088
4.120419114468088
4.120419114468088
4.120419114468088
4.114264642303079
4.120419114468088
4.114264642303079
4.120419114468088
4.12657358663307
4.1327280587980795
4.138882530963089
4.1327280587980795
4.1327280587980795
4.12657358663307
4.1327280587980795
4.12657358663307
4.12657358663307
4.138882530963089
4.138882530963089
4.145037003128072
4.151191475293081
4.145037003128072
4.145037003128072
4.1327280587980795
4.12657358663307
4.1327280587980795
4.145037003128072
4.138882530963089
4.138882530963089
4.145037003128072
4.157345947458091
4.120419114468088
4.101955697973087
4.120419114468088
4.120419114468088
4.120419114468088
4.12657358663307
4.1327280587980795
4.145037003128072
4.1327280587980795
4.1327280587980795
4.12657358663307
4.120419114468088
4.12657358663307
4.12657358663307
4.12657358663307
4.12657358663307
4.1327280587980795
4.1327280587980795
4.1327280587980795
4.1327280587980795
4.1327280587980795
4.145037003128072
4.145037003128072
4.145037003128072
4.1327280587980795
4.1327280587980795
4.138882530963089
4.12657358663307
4.145037003128072
4.138882530963089
4.138882530963089
4.138882530963089
4.138882530963089
4.138882530963089
4.1327280587980795
4.12657358663307
4.12657358663307
4.138882530963089
4.145037003128072
4.1327280587980795
4.138882530963089
4.1327280587980795
4.151191475293081
4.145037003128072
4.138882530963089
4.145037003128072
4.145037003128072
4.145037003128072
4.1327280587980795
4.145037003128072
4.151191475293081
4.145037003128072
4.145037003128072
4.157345947458091
4.157345947458091
4.151191475293081
4.138882530963089
4.145037003128072
4.151191475293081
4.163500419623101
4.163500419623101
4.145037003128072
4.145037003128072
4.1327280587980795
4.163500419623101
4.1942727804480935
4.2065817247780855
4.1942727804480935
4.188118308283084
4.181963836118102
4.188118308283084
4.1758093639530935
4.1758093639530935
4.1758093639530935
4.163500419623101
4.157345947458091
4.151191475293081
4.151191475293081
4.145037003128072
4.138882530963089
4.145037003128072
4.138882530963089
4.145037003128072
4.138882530963089
4.145037003128072
4.151191475293081
4.145037003128072
4.145037003128072
4.145037003128072
4.145037003128072
4.145037003128072
4.163500419623101
4.1942727804480935
4.2681264464281
4.341980112408105
4.40352483405812
4.421988250553122
4.360443528903107
4.261971974263091
4.1758093639530935
4.095801225808079
4.021947559828071
3.9850207268380675
4.015793087663061
4.065028864983084
4.114264642303079
4.151191475293081
4.157345947458091
4.163500419623101
4.163500419623101
4.169654891788083
4.163500419623101
4.163500419623101
4.157345947458091
4.169654891788083
4.181963836118102
4.181963836118102
4.181963836118102
4.181963836118102
4.181963836118102
4.181963836118102
4.200427252613103
4.200427252613103
4.200427252613103
4.200427252613103
4.1758093639530935
4.151191475293081
4.157345947458091
4.1758093639530935
4.188118308283084
4.169654891788083
4.169654891788083
4.188118308283084
4.181963836118102
4.1942727804480935
4.200427252613103
4.200427252613103
4.1942727804480935
4.212736196943095
4.231199613438097
4.225045141273086
4.218890669108104
4.225045141273086
4.225045141273086
4.225045141273086
4.243508557768089
4.249663029933098
4.2681264464281
4.2681264464281
4.261971974263091
4.27428091859311
4.280435390758093
4.280435390758093
4.292744335088111
4.298898807253093
4.305053279418103
4.3112077515831135
4.3112077515831135
4.3173622237481215
4.3112077515831135
4.305053279418103
4.298898807253093
4.292744335088111
4.2865898629231
4.280435390758093
4.2681264464281
4.243508557768089
4.231199613438097
4.200427252613103
4.188118308283084
4.181963836118102
4.163500419623101
4.157345947458091
4.151191475293081
4.145037003128072
4.12657358663307
4.108110170138069
4.120419114468088
4.138882530963089
4.1327280587980795
4.12657358663307
4.12657358663307
4.114264642303079
4.114264642303079
4.120419114468088
4.12657358663307
4.120419114468088
4.145037003128072
4.138882530963089
4.101955697973087
4.120419114468088
4.12657358663307
4.12657358663307
4.120419114468088
4.114264642303079
4.120419114468088
4.1327280587980795
4.138882530963089
4.138882530963089
4.145037003128072
4.145037003128072
4.1327280587980795
4.138882530963089
4.138882530963089
4.138882530963089
4.145037003128072
4.151191475293081
4.151191475293081
4.151191475293081
4.151191475293081
4.151191475293081
4.157345947458091
4.1758093639530935
4.1758093639530935
4.163500419623101
4.157345947458091
4.163500419623101
4.163500419623101
4.163500419623101
4.12657358663307
4.1327280587980795
4.145037003128072
4.151191475293081
4.145037003128072
4.151191475293081
4.163500419623101
4.157345947458091
4.157345947458091
4.157345947458091
4.151191475293081
4.151191475293081
4.145037003128072
4.151191475293081
4.151191475293081
4.145037003128072
4.151191475293081
4.151191475293081
4.151191475293081
4.151191475293081
4.157345947458091
4.163500419623101
4.163500419623101
4.181963836118102
4.1942727804480935
4.181963836118102
4.1758093639530935
4.169654891788083
4.163500419623101
4.163500419623101
4.163500419623101
4.1327280587980795
4.120419114468088
4.12657358663307
4.12657358663307
4.12657358663307
4.138882530963089
4.1327280587980795
4.145037003128072
4.138882530963089
4.138882530963089
4.145037003128072
4.145037003128072
4.163500419623101
4.169654891788083
4.157345947458091
4.163500419623101
4.163500419623101
4.157345947458091
4.157345947458091
4.163500419623101
4.151191475293081
4.151191475293081
4.145037003128072
4.181963836118102
4.181963836118102
4.163500419623101
4.157345947458091
4.163500419623101
4.157345947458091
4.151191475293081
4.169654891788083
4.169654891788083
4.1758093639530935
4.169654891788083
4.169654891788083
4.169654891788083
4.169654891788083
4.1758093639530935
4.1758093639530935
4.169654891788083
4.169654891788083
4.169654891788083
4.1758093639530935
4.188118308283084
4.188118308283084
4.188118308283084
4.188118308283084
4.188118308283084
4.188118308283084
4.181963836118102
4.1758093639530935
4.181963836118102
4.200427252613103
4.225045141273086
4.225045141273086
4.218890669108104
4.225045141273086
4.212736196943095
4.2065817247780855
4.212736196943095
4.2065817247780855
4.212736196943095
4.2065817247780855
4.188118308283084
4.181963836118102
4.188118308283084
4.181963836118102
4.181963836118102
4.188118308283084
4.181963836118102
4.1758093639530935
4.169654891788083
4.169654891788083
4.169654891788083
4.181963836118102
4.169654891788083
4.169654891788083
4.1758093639530935
4.181963836118102
4.1942727804480935
4.243508557768089
4.3112077515831135
4.397370361893111
4.446606139213133
4.446606139213133
4.366598001068117
4.2681264464281
4.1942727804480935
4.120419114468088
4.052719920653064
4.009638615498079
4.040410976323072
4.089646753643067
4.157345947458091
4.1942727804480935
4.1942727804480935
4.200427252613103
4.212736196943095
4.2065817247780855
4.212736196943095
4.212736196943095
4.2065817247780855
4.1942727804480935
4.2065817247780855
4.212736196943095
4.212736196943095
4.218890669108104
4.218890669108104
4.225045141273086
4.218890669108104
4.212736196943095
4.225045141273086
4.237354085603107
4.237354085603107
4.249663029933098
4.261971974263091
4.249663029933098
4.243508557768089
4.2065817247780855
4.225045141273086
4.231199613438097
4.237354085603107
4.237354085603107
4.249663029933098
4.255817502098108
4.255817502098108
4.255817502098108
4.255817502098108
4.2681264464281
4.2681264464281
4.2681264464281
4.27428091859311
4.280435390758093
4.2865898629231
4.2865898629231
4.298898807253093
4.3112077515831135
4.3112077515831135
4.3173622237481215
4.3173622237481215
4.323516695913104
4.329671168078114
4.341980112408105
4.341980112408105
4.341980112408105
4.341980112408105
4.354289056738125
4.354289056738125
4.348134584573115
4.348134584573115
4.341980112408105
4.323516695913104
4.3173622237481215
4.305053279418103
4.2865898629231
4.2681264464281
4.249663029933098
4.237354085603107
4.218890669108104
4.200427252613103
4.1942727804480935
4.181963836118102
4.163500419623101
4.163500419623101
4.163500419623101
4.157345947458091
4.1327280587980795
4.138882530963089
4.145037003128072
4.145037003128072
4.145037003128072
4.145037003128072
4.145037003128072
4.151191475293081
4.151191475293081
4.157345947458091
4.157345947458091
4.151191475293081
4.157345947458091
4.157345947458091
4.169654891788083
4.1758093639530935
4.181963836118102
4.1758093639530935
4.169654891788083
4.169654891788083
4.169654891788083
4.1758093639530935
4.163500419623101
4.163500419623101
4.163500419623101
4.163500419623101
4.169654891788083
4.163500419623101
4.157345947458091
4.157345947458091
4.163500419623101
4.163500419623101
4.163500419623101
4.157345947458091
4.157345947458091
4.169654891788083
4.1758093639530935
4.163500419623101
4.157345947458091
4.157345947458091
4.163500419623101
4.169654891788083
4.163500419623101
4.157345947458091
4.163500419623101
4.157345947458091
4.163500419623101
4.163500419623101
4.163500419623101
4.163500419623101
4.169654891788083
4.169654891788083
4.169654891788083
4.163500419623101
4.169654891788083
4.163500419623101
4.157345947458091
4.151191475293081
4.157345947458091
4.157345947458091
4.163500419623101
4.163500419623101
4.163500419623101
4.163500419623101
4.157345947458091
4.163500419623101
4.169654891788083
4.169654891788083
4.169654891788083
4.169654891788083
4.1758093639530935
4.188118308283084
4.188118308283084
4.1942727804480935
4.1942727804480935
4.181963836118102
4.1758093639530935
4.138882530963089
4.145037003128072
4.163500419623101
4.163500419623101
4.163500419623101
4.1758093639530935
4.1758093639530935
4.1758093639530935
4.169654891788083
4.169654891788083
4.163500419623101
4.163500419623101
4.169654891788083
4.169654891788083
4.163500419623101
4.163500419623101
4.163500419623101
4.1758093639530935
4.200427252613103
4.1942727804480935
4.1942727804480935
4.200427252613103
4.1942727804480935
4.181963836118102
4.188118308283084
4.1942727804480935
4.188118308283084
4.1942727804480935
4.181963836118102
4.181963836118102
4.1942727804480935
4.181963836118102
4.1942727804480935
4.212736196943095
4.200427252613103
4.188118308283084
4.188118308283084
4.2065817247780855
4.212736196943095
4.188118308283084
4.200427252613103
4.200427252613103
4.200427252613103
4.200427252613103
4.1942727804480935
4.1942727804480935
4.1942727804480935
4.181963836118102
4.188118308283084
4.181963836118102
4.188118308283084
4.181963836118102
4.188118308283084
4.188118308283084
4.181963836118102
4.1758093639530935
4.1758093639530935
4.1758093639530935
4.188118308283084
4.188118308283084
4.188118308283084
4.188118308283084
4.188118308283084
4.181963836118102
4.200427252613103
4.237354085603107
4.305053279418103
4.37890694539811
4.428142722718132
4.428142722718132
4.366598001068117
4.2681264464281
4.200427252613103
4.1327280587980795
4.0465654484880815
4.003484143333068
4.034256504158063
4.0711833371480655
4.108110170138069
4.151191475293081
4.188118308283084
4.188118308283084
4.188118308283084
4.1942727804480935
4.1942727804480935
4.188118308283084
4.1942727804480935
4.1942727804480935
4.200427252613103
4.200427252613103
4.2065817247780855
4.212736196943095
4.212736196943095
4.200427252613103
4.1942727804480935
4.212736196943095
4.2065817247780855
4.2065817247780855
4.212736196943095
4.218890669108104
4.212736196943095
4.212736196943095
4.225045141273086
4.218890669108104
4.218890669108104
4.225045141273086
4.225045141273086
4.231199613438097
4.237354085603107
4.243508557768089
4.237354085603107
4.249663029933098
4.261971974263091
4.261971974263091
4.2681264464281
4.2865898629231
4.298898807253093
4.2681264464281
4.2681264464281
4.27428091859311
4.280435390758093
4.292744335088111
4.298898807253093
4.3112077515831135
4.3112077515831135
4.3173622237481215
4.329671168078114
4.323516695913104
4.323516695913104
4.329671168078114
4.335825640243124
4.341980112408105
4.335825640243124
4.335825640243124
4.329671168078114
4.323516695913104
4.3112077515831135
4.298898807253093
4.292744335088111
4.2681264464281
4.261971974263091
4.243508557768089
4.231199613438097
4.212736196943095
4.2065817247780855
4.1942727804480935
4.1942727804480935
4.188118308283084
4.181963836118102
4.181963836118102
4.1758093639530935
4.169654891788083
4.169654891788083
4.169654891788083
4.169654891788083
4.169654891788083
4.163500419623101
4.1758093639530935
4.169654891788083
4.169654891788083
4.169654891788083
4.1758093639530935
4.1758093639530935
4.169654891788083
4.1758093639530935
4.1758093639530935
4.169654891788083
4.181963836118102
4.1942727804480935
4.1942727804480935
4.1942727804480935
4.188118308283084
4.1942727804480935
4.188118308283084
4.1942727804480935
4.200427252613103
4.1942727804480935
4.1942727804480935
4.200427252613103
4.212736196943095
4.212736196943095
4.212736196943095
4.2065817247780855
4.200427252613103
4.1942727804480935
4.200427252613103
4.2065817247780855
4.2065817247780855
4.200427252613103
4.2065817247780855
4.1942727804480935
4.200427252613103
4.1942727804480935
4.200427252613103
4.200427252613103
4.2065817247780855
4.2065817247780855
4.1942727804480935
4.1942727804480935
4.188118308283084
4.1942727804480935
4.212736196943095
4.212736196943095
4.200427252613103
4.2065817247780855
4.2065817247780855
4.1942727804480935
4.200427252613103
4.2065817247780855
4.2065817247780855
4.2065817247780855
4.1942727804480935
4.1942727804480935
4.200427252613103
4.200427252613103
4.1942727804480935
4.1942727804480935
4.200427252613103
4.200427252613103
4.200427252613103
4.2065817247780855
4.200427252613103
4.212736196943095
4.212736196943095
4.1942727804480935
4.2065817247780855
4.200427252613103
4.2065817247780855
4.2065817247780855
4.212736196943095
4.212736196943095
4.212736196943095
4.2065817247780855
4.212736196943095
4.200427252613103
4.212736196943095
4.218890669108104
4.231199613438097
4.231199613438097
4.237354085603107
4.231199613438097
4.218890669108104
4.1758093639530935
4.1758093639530935
4.188118308283084
4.181963836118102
4.188118308283084
4.2065817247780855
4.2065817247780855
4.200427252613103
4.212736196943095
4.2065817247780855
4.212736196943095
4.212736196943095
4.200427252613103
4.2065817247780855
4.212736196943095
4.225045141273086
4.243508557768089
4.249663029933098
4.237354085603107
4.225045141273086
4.225045141273086
4.225045141273086
4.243508557768089
4.231199613438097
4.225045141273086
4.218890669108104
4.218890669108104
4.218890669108104
4.2065817247780855
4.200427252613103
4.200427252613103
4.212736196943095
4.212736196943095
4.212736196943095
4.2065817247780855
4.188118308283084
4.1758093639530935
4.188118308283084
4.188118308283084
4.188118308283084
4.188118308283084
4.212736196943095
4.261971974263091
4.329671168078114
4.40352483405812
4.446606139213133
4.440451667048122
4.3727524732331275
4.27428091859311
4.212736196943095
4.120419114468088
4.058874392818074
4.040410976323072
4.077337809313075
4.114264642303079
4.169654891788083
4.200427252613103
4.212736196943095
4.2065817247780855
4.218890669108104
4.218890669108104
4.212736196943095
4.218890669108104
4.218890669108104
4.218890669108104
4.212736196943095
4.218890669108104
4.212736196943095
4.212736196943095
4.200427252613103
4.212736196943095
4.225045141273086
4.231199613438097
4.237354085603107
4.225045141273086
4.231199613438097
4.231199613438097
4.237354085603107
4.231199613438097
4.218890669108104
4.225045141273086
4.237354085603107
4.255817502098108
4.249663029933098
4.243508557768089
4.249663029933098
4.249663029933098
4.249663029933098
4.255817502098108
4.261971974263091
4.2681264464281
4.280435390758093
4.27428091859311
4.27428091859311
4.280435390758093
4.2865898629231
4.280435390758093
4.2865898629231
4.298898807253093
4.3173622237481215
4.323516695913104
4.329671168078114
4.335825640243124
4.366598001068117
4.3727524732331275
4.360443528903107
4.366598001068117
4.360443528903107
4.366598001068117
4.329671168078114
4.305053279418103
4.323516695913104
4.323516695913104
4.3173622237481215
4.3112077515831135
4.27428091859311
4.2681264464281
4.255817502098108
4.2681264464281
4.249663029933098
4.231199613438097
4.212736196943095
4.200427252613103
4.188118308283084
4.181963836118102
4.145037003128072
4.1327280587980795
4.145037003128072
4.157345947458091
4.151191475293081
4.157345947458091
4.157345947458091
4.157345947458091
4.151191475293081
4.163500419623101
4.157345947458091
4.145037003128072
4.157345947458091
4.169654891788083
4.169654891788083
4.169654891788083
4.169654891788083
4.169654891788083
4.169654891788083
4.1758093639530935
4.1758093639530935
4.181963836118102
4.169654891788083
4.169654891788083
4.169654891788083
4.1758093639530935
4.1758093639530935
4.169654891788083
4.169654891788083
4.163500419623101
4.169654891788083
4.163500419623101
4.169654891788083
4.1758093639530935
4.1758093639530935
4.163500419623101
4.163500419623101
4.1758093639530935
4.181963836118102
4.1758093639530935
4.181963836118102
4.1942727804480935
4.188118308283084
4.181963836118102
4.1758093639530935
4.169654891788083
4.188118308283084
4.181963836118102
4.1758093639530935
4.188118308283084
4.181963836118102
4.181963836118102
4.181963836118102
4.181963836118102
4.1942727804480935
4.1758093639530935
4.169654891788083
4.1758093639530935
4.1758093639530935
4.169654891788083
4.1758093639530935
4.1758093639530935
4.169654891788083
4.1758093639530935
4.1758093639530935
4.1758093639530935
4.1758093639530935
4.1758093639530935
4.1758093639530935
4.188118308283084
4.181963836118102
4.188118308283084
4.1758093639530935
4.188118308283084
4.200427252613103
4.2065817247780855
4.1942727804480935
4.1942727804480935
4.1942727804480935
4.1942727804480935
4.1942727804480935
4.1942727804480935
4.181963836118102
4.188118308283084
4.200427252613103
4.2065817247780855
4.2065817247780855
4.181963836118102
4.169654891788083
4.1758093639530935
4.181963836118102
4.181963836118102
4.1758093639530935
4.181963836118102
4.188118308283084
4.181963836118102
4.188118308283084
4.181963836118102
4.181963836118102
4.169654891788083
4.181963836118102
4.212736196943095
4.200427252613103
4.1942727804480935
4.188118308283084
4.188118308283084
4.212736196943095
4.249663029933098
4.243508557768089
4.231199613438097
4.218890669108104
4.225045141273086
4.225045141273086
4.218890669108104
4.212736196943095
4.237354085603107
4.218890669108104
4.1758093639530935
4.151191475293081
4.169654891788083
4.1758093639530935
4.169654891788083
4.1758093639530935
4.1758093639530935
4.1758093639530935
4.181963836118102
4.188118308283084
4.188118308283084
4.200427252613103
4.2065817247780855
4.1942727804480935
4.188118308283084
4.188118308283084
4.1942727804480935
4.261971974263091
4.360443528903107
4.434297194883113
4.465069555708134
4.440451667048122
4.341980112408105
4.255817502098108
4.157345947458091
4.052719920653064
3.9788662546730578
3.9911751990030497
4.040410976323072
4.114264642303079
4.169654891788083
4.188118308283084
4.188118308283084
4.188118308283084
4.188118308283084
4.188118308283084
4.188118308283084
4.2065817247780855
4.2065817247780855
4.1942727804480935
4.200427252613103
4.200427252613103
4.200427252613103
4.200427252613103
4.200427252613103
4.200427252613103
4.218890669108104
4.225045141273086
4.225045141273086
4.231199613438097
4.231199613438097
4.231199613438097
4.231199613438097
4.225045141273086
4.231199613438097
4.225045141273086
4.225045141273086
4.237354085603107
4.243508557768089
4.237354085603107
4.231199613438097
4.249663029933098
4.249663029933098
4.243508557768089
4.243508557768089
4.249663029933098
4.261971974263091
4.2681264464281
4.280435390758093
4.280435390758093
4.27428091859311
4.280435390758093
4.2865898629231
4.2865898629231
4.292744335088111
4.298898807253093
4.3112077515831135
4.3173622237481215
4.3173622237481215
4.305053279418103
4.2865898629231
4.3112077515831135
4.329671168078114
4.329671168078114
4.3173622237481215
4.3173622237481215
4.3112077515831135
4.305053279418103
4.292744335088111
4.27428091859311
4.261971974263091
4.249663029933098
4.231199613438097
4.225045141273086
4.2065817247780855
4.188118308283084
4.1758093639530935
4.157345947458091
4.1327280587980795
4.12657358663307
4.12657358663307
4.12657358663307
4.12657358663307
4.120419114468088
4.1327280587980795
4.12657358663307
4.114264642303079
4.108110170138069
4.12657358663307
4.138882530963089
4.1327280587980795
4.12657358663307
4.12657358663307
4.12657358663307
4.114264642303079
4.12657358663307
4.145037003128072
4.163500419623101
4.151191475293081
4.163500419623101
4.163500419623101
4.157345947458091
4.163500419623101
4.157345947458091
4.163500419623101
4.1327280587980795
4.114264642303079
4.12657358663307
4.12657358663307
4.145037003128072
4.163500419623101
4.163500419623101
4.157345947458091
4.157345947458091
4.163500419623101
4.163500419623101
4.157345947458091
4.151191475293081
4.169654891788083
4.1758093639530935
4.157345947458091
4.163500419623101
4.163500419623101
4.163500419623101
4.157345947458091
4.145037003128072
4.145037003128072
4.145037003128072
4.145037003128072
4.151191475293081
4.157345947458091
4.138882530963089
4.1327280587980795
4.145037003128072
4.163500419623101
4.157345947458091
4.157345947458091
4.151191475293081
4.145037003128072
4.145037003128072
4.151191475293081
4.151191475293081
4.145037003128072
4.145037003128072
4.151191475293081
4.606622415503137
5.209760687673231
4.6435492484931675
4.588158999008135
4.551232166018132
4.5327687495231315
4.6004679433381535
4.52661427735815
4.452760611378115
4.483532972203136
4.501996388698137
4.508150860863147
4.495841916533129
4.489687444368147
4.477378500038126
4.440451667048122
4.428142722718132
4.446606139213133
4.446606139213133
4.446606139213133
4.452760611378115
4.446606139213133
4.446606139213133
4.428142722718132
4.415833778388112
4.415833778388112
4.415833778388112
4.415833778388112
4.415833778388112
4.421988250553122
4.415833778388112
4.40967930622313
4.415833778388112
4.421988250553122
4.40967930622313
4.391215889728128
4.40967930622313
4.440451667048122
4.446606139213133
4.434297194883113
4.421988250553122
4.40967930622313
4.415833778388112
4.40352483405812
4.397370361893111
4.397370361893111
4.385061417563119
4.366598001068117
4.360443528903107
4.360443528903107
4.354289056738125
4.348134584573115
4.354289056738125
4.348134584573115
4.348134584573115
4.348134584573115
4.341980112408105
4.341980112408105
4.335825640243124
4.329671168078114
4.335825640243124
4.323516695913104
4.323516695913104
4.329671168078114
4.37890694539811
4.446606139213133
4.538923221688139
4.6004679433381535
4.5820045268431535
4.495841916533129
4.397370361893111
4.323516695913104
4.243508557768089
4.169654891788083
4.145037003128072
4.1758093639530935
4.200427252613103
4.249663029933098
4.280435390758093
4.298898807253093
4.298898807253093
4.292744335088111
4.298898807253093
4.292744335088111
4.298898807253093
4.2865898629231
4.280435390758093
4.292744335088111
4.292744335088111
4.2865898629231
4.298898807253093
4.298898807253093
4.2865898629231
4.292744335088111
4.292744335088111
4.298898807253093
4.292744335088111
4.292744335088111
4.298898807253093
4.280435390758093
4.261971974263091
4.305053279418103
4.3173622237481215
4.305053279418103
4.305053279418103
4.292744335088111
4.292744335088111
4.3173622237481215
4.3173622237481215
4.3112077515831135
4.3112077515831135
4.305053279418103
4.305053279418103
4.305053279418103
4.329671168078114
4.348134584573115
4.341980112408105
4.335825640243124
4.341980112408105
4.348134584573115
4.335825640243124
4.348134584573115
4.3727524732331275
4.3727524732331275
4.3727524732331275
4.366598001068117
4.354289056738125
4.354289056738125
4.385061417563119
4.397370361893111
4.37890694539811
4.3727524732331275
4.3727524732331275
4.360443528903107
4.354289056738125
4.341980112408105
4.3112077515831135
4.3112077515831135
4.298898807253093
4.27428091859311
4.27428091859311
4.237354085603107
4.218890669108104
4.218890669108104
4.212736196943095
4.2065817247780855
4.200427252613103
4.188118308283084
4.188118308283084
4.1758093639530935
4.1758093639530935
4.169654891788083
4.163500419623101
4.151191475293081
4.163500419623101
4.1758093639530935
4.1758093639530935
4.181963836118102
4.169654891788083
4.169654891788083
4.163500419623101
4.169654891788083
4.1758093639530935
4.1758093639530935
4.169654891788083
4.1758093639530935
4.169654891788083
4.169654891788083
4.1758093639530935
4.169654891788083
4.169654891788083
4.1758093639530935
4.1758093639530935
4.1758093639530935
4.1758093639530935
4.1758093639530935
4.169654891788083
4.1758093639530935
4.181963836118102
4.1758093639530935
4.181963836118102
4.188118308283084
4.181963836118102
4.1758093639530935
4.181963836118102
4.181963836118102
4.169654891788083
4.1758093639530935
4.169654891788083
4.169654891788083
4.181963836118102
4.181963836118102
4.1758093639530935
4.1758093639530935
4.1758093639530935
4.1758093639530935
4.169654891788083
4.1758093639530935
4.1758093639530935
4.1942727804480935
4.188118308283084
4.1758093639530935
4.163500419623101
4.138882530963089
4.151191475293081
4.151191475293081
4.163500419623101
4.157345947458091
4.157345947458091
4.157345947458091
4.157345947458091
4.169654891788083
4.169654891788083
4.1758093639530935
4.169654891788083
4.1758093639530935
4.1758093639530935
4.169654891788083
4.163500419623101
4.169654891788083
4.1758093639530935
4.1758093639530935
4.1758093639530935
4.181963836118102
4.169654891788083
4.169654891788083
4.163500419623101
4.169654891788083
4.169654891788083
4.1758093639530935
4.181963836118102
4.181963836118102
4.1758093639530935
4.181963836118102
4.1758093639530935
4.1758093639530935
4.169654891788083
4.188118308283084
4.1942727804480935
4.1942727804480935
4.1758093639530935
4.169654891788083
4.188118308283084
4.212736196943095
4.225045141273086
4.218890669108104
4.218890669108104
4.1942727804480935
4.1942727804480935
4.1942727804480935
4.2065817247780855
4.2065817247780855
4.200427252613103
4.181963836118102
4.1758093639530935
4.169654891788083
4.151191475293081
4.151191475293081
4.169654891788083
4.163500419623101
4.169654891788083
4.163500419623101
4.1758093639530935
4.169654891788083
4.1758093639530935
4.169654891788083
4.169654891788083
4.1758093639530935
4.169654891788083
4.1758093639530935
4.200427252613103
4.261971974263091
4.335825640243124
4.40352483405812
4.446606139213133
4.428142722718132
4.335825640243124
4.231199613438097
4.157345947458091
4.083492281478085
4.015793087663061
4.015793087663061
4.052719920653064
4.114264642303079
4.181963836118102
4.1942727804480935
4.1942727804480935
4.188118308283084
4.1942727804480935
4.1942727804480935
4.1942727804480935
4.188118308283084
4.188118308283084
4.1942727804480935
4.200427252613103
4.1942727804480935
4.200427252613103
4.200427252613103
4.200427252613103
4.212736196943095
4.2065817247780855
4.200427252613103
4.2065817247780855
4.212736196943095
4.212736196943095
4.212736196943095
4.218890669108104
4.225045141273086
4.218890669108104
4.225045141273086
4.231199613438097
4.237354085603107
4.231199613438097
4.237354085603107
4.231199613438097
4.237354085603107
4.249663029933098
4.255817502098108
4.261971974263091
4.261971974263091
4.261971974263091
4.2865898629231
4.292744335088111
4.292744335088111
4.298898807253093
4.292744335088111
4.298898807253093
4.292744335088111
4.261971974263091
4.27428091859311
4.2865898629231
4.305053279418103
4.323516695913104
4.329671168078114
4.329671168078114
4.3173622237481215
4.3112077515831135
4.329671168078114
4.341980112408105
4.348134584573115
4.329671168078114
4.3173622237481215
4.3112077515831135
4.2865898629231
4.2681264464281
4.249663029933098
4.231199613438097
4.225045141273086
4.212736196943095
4.1942727804480935
4.188118308283084
4.169654891788083
4.169654891788083
4.163500419623101
4.163500419623101
4.157345947458091
4.145037003128072
4.151191475293081
4.145037003128072
4.157345947458091
4.157345947458091
4.157345947458091
4.157345947458091
4.157345947458091
4.157345947458091
4.145037003128072
4.145037003128072
4.145037003128072
4.157345947458091
4.157345947458091
4.151191475293081
4.151191475293081
4.151191475293081
4.157345947458091
4.157345947458091
4.151191475293081
4.157345947458091
4.157345947458091
4.163500419623101
4.181963836118102
4.1758093639530935
4.169654891788083
4.169654891788083
4.169654891788083
4.169654891788083
4.1758093639530935
4.181963836118102
4.181963836118102
4.1758093639530935
4.1758093639530935
4.181963836118102
4.169654891788083
4.163500419623101
4.169654891788083
4.1758093639530935
4.1758093639530935
4.1758093639530935
4.1758093639530935
4.1758093639530935
4.169654891788083
4.1758093639530935
4.181963836118102
4.1758093639530935
4.181963836118102
4.181963836118102
4.188118308283084
4.188118308283084
4.188118308283084
4.181963836118102
4.181963836118102
4.181963836118102
4.188118308283084
4.181963836118102
4.1942727804480935
4.1942727804480935
4.181963836118102
4.1758093639530935
4.181963836118102
4.181963836118102
4.181963836118102
4.188118308283084
4.188118308283084
4.1942727804480935
4.188118308283084
4.1942727804480935
4.188118308283084
4.188118308283084
4.1942727804480935
4.1942727804480935
4.188118308283084
4.188118308283084
4.1942727804480935
4.181963836118102
4.181963836118102
4.188118308283084
4.181963836118102
4.188118308283084
4.181963836118102
4.188118308283084
4.1942727804480935
4.181963836118102
4.188118308283084
4.2065817247780855
4.212736196943095
4.212736196943095
4.163500419623101
4.145037003128072
4.157345947458091
