4.1758093639530935
4.1758093639530935
4.1758093639530935
4.181963836118102
4.1758093639530935
4.1758093639530935
4.169654891788083
4.169654891788083
4.181963836118102
4.1758093639530935
4.163500419623101
4.169654891788083
4.169654891788083
4.169654891788083
4.1758093639530935
4.1758093639530935
4.163500419623101
4.169654891788083
4.169654891788083
4.169654891788083
4.163500419623101
4.163500419623101
4.169654891788083
4.169654891788083
4.169654891788083
4.1758093639530935
4.1758093639530935
4.1758093639530935
4.169654891788083
4.169654891788083
4.163500419623101
4.181963836118102
4.1758093639530935
4.1758093639530935
4.181963836118102
4.1758093639530935
4.169654891788083
4.1758093639530935
4.181963836118102
4.181963836118102
4.1758093639530935
4.1758093639530935
4.181963836118102
4.1758093639530935
4.1758093639530935
4.181963836118102
4.188118308283084
4.181963836118102
4.181963836118102
4.181963836118102
4.1758093639530935
4.181963836118102
4.181963836118102
4.212736196943095
4.225045141273086
4.231199613438097
4.225045141273086
4.212736196943095
4.218890669108104
4.212736196943095
4.212736196943095
4.2065817247780855
4.2065817247780855
4.188118308283084
4.188118308283084
4.181963836118102
4.1758093639530935
4.1758093639530935
4.1758093639530935
4.181963836118102
4.1758093639530935
4.1758093639530935
4.181963836118102
4.1758093639530935
4.181963836118102
4.181963836118102
4.181963836118102
4.1758093639530935
4.1758093639530935
4.188118308283084
4.225045141273086
4.298898807253093
4.3727524732331275
4.434297194883113
4.446606139213133
4.40352483405812
4.3112077515831135
4.231199613438097
4.145037003128072
4.089646753643067
4.0465654484880815
4.058874392818074
4.108110170138069
4.157345947458091
4.1942727804480935
4.1758093639530935
4.169654891788083
4.1758093639530935
4.181963836118102
4.188118308283084
4.1942727804480935
4.1942727804480935
4.1942727804480935
4.1942727804480935
4.1942727804480935
4.2065817247780855
4.212736196943095
4.2065817247780855
4.212736196943095
4.2065817247780855
4.212736196943095
4.212736196943095
4.212736196943095
4.218890669108104
4.212736196943095
4.225045141273086
4.225045141273086
4.218890669108104
4.218890669108104
4.231199613438097
4.231199613438097
4.225045141273086
4.225045141273086
4.231199613438097
4.243508557768089
4.237354085603107
4.249663029933098
4.249663029933098
4.249663029933098
4.255817502098108
4.261971974263091
4.261971974263091
4.2681264464281
4.27428091859311
4.280435390758093
4.2865898629231
4.292744335088111
4.292744335088111
4.305053279418103
4.3173622237481215
4.3173622237481215
4.323516695913104
4.3173622237481215
4.323516695913104
4.323516695913104
4.329671168078114
4.335825640243124
4.329671168078114
4.329671168078114
4.335825640243124
4.323516695913104
4.305053279418103
4.27428091859311
4.2681264464281
4.255817502098108
4.225045141273086
4.212736196943095
4.200427252613103
4.1758093639530935
4.169654891788083
4.157345947458091
4.151191475293081
4.145037003128072
4.138882530963089
4.138882530963089
4.1327280587980795
4.138882530963089
4.138882530963089
4.12657358663307
4.1327280587980795
4.12657358663307
4.12657358663307
4.1327280587980795
4.1327280587980795
4.12657358663307
4.1327280587980795
4.1327280587980795
4.120419114468088
4.12657358663307
4.1327280587980795
4.120419114468088
4.120419114468088
4.1327280587980795
4.1327280587980795
4.1327280587980795
4.138882530963089
4.145037003128072
4.145037003128072
4.1327280587980795
4.1327280587980795
4.145037003128072
4.151191475293081
4.151191475293081
4.145037003128072
4.145037003128072
4.145037003128072
4.151191475293081
4.138882530963089
4.145037003128072
4.151191475293081
4.145037003128072
4.151191475293081
4.151191475293081
4.145037003128072
4.145037003128072
4.145037003128072
4.151191475293081
4.163500419623101
4.157345947458091
4.151191475293081
4.157345947458091
4.169654891788083
4.151191475293081
4.145037003128072
4.145037003128072
4.151191475293081
4.151191475293081
4.145037003128072
4.151191475293081
4.157345947458091
4.151191475293081
4.157345947458091
4.151191475293081
4.151191475293081
4.157345947458091
4.151191475293081
4.145037003128072
4.151191475293081
4.151191475293081
4.157345947458091
4.157345947458091
4.157345947458091
4.157345947458091
4.163500419623101
4.169654891788083
4.157345947458091
4.157345947458091
4.188118308283084
4.188118308283084
4.1758093639530935
4.181963836118102
4.181963836118102
4.169654891788083
4.145037003128072
4.12657358663307
4.145037003128072
4.145037003128072
4.151191475293081
4.157345947458091
4.157345947458091
4.157345947458091
4.151191475293081
4.157345947458091
4.157345947458091
4.151191475293081
4.145037003128072
4.157345947458091
4.169654891788083
4.169654891788083
4.157345947458091
4.163500419623101
4.169654891788083
4.163500419623101
4.169654891788083
4.169654891788083
4.169654891788083
4.1758093639530935
4.163500419623101
4.151191475293081
4.151191475293081
4.163500419623101
4.188118308283084
4.212736196943095
4.212736196943095
4.200427252613103
4.181963836118102
4.1942727804480935
4.200427252613103
4.188118308283084
4.188118308283084
4.1758093639530935
4.163500419623101
4.169654891788083
4.169654891788083
4.157345947458091
4.157345947458091
4.157345947458091
4.145037003128072
4.157345947458091
4.169654891788083
4.163500419623101
4.157345947458091
4.163500419623101
4.1758093639530935
4.163500419623101
4.163500419623101
4.163500419623101
4.188118308283084
4.212736196943095
4.2681264464281
4.360443528903107
4.428142722718132
4.452760611378115
4.40967930622313
4.3112077515831135
4.2065817247780855
4.12657358663307
4.040410976323072
3.9788662546730578
3.9850207268380675
4.034256504158063
4.095801225808079
4.157345947458091
4.169654891788083
4.157345947458091
4.157345947458091
4.163500419623101
4.151191475293081
4.157345947458091
4.157345947458091
4.157345947458091
4.1758093639530935
4.163500419623101
4.157345947458091
4.151191475293081
4.169654891788083
4.169654891788083
4.163500419623101
4.188118308283084
4.188118308283084
4.1758093639530935
4.181963836118102
4.181963836118102
4.1942727804480935
4.212736196943095
4.218890669108104
4.2065817247780855
4.1758093639530935
4.1758093639530935
4.188118308283084
4.1942727804480935
4.200427252613103
4.212736196943095
4.218890669108104
4.212736196943095
4.218890669108104
4.231199613438097
4.225045141273086
4.237354085603107
4.237354085603107
4.249663029933098
4.261971974263091
4.261971974263091
4.2681264464281
4.261971974263091
4.261971974263091
4.280435390758093
4.3112077515831135
4.3112077515831135
4.3112077515831135
4.3173622237481215
4.323516695913104
4.3173622237481215
4.323516695913104
4.3173622237481215
4.323516695913104
4.329671168078114
4.341980112408105
4.335825640243124
4.329671168078114
4.305053279418103
4.292744335088111
4.2865898629231
4.2681264464281
4.249663029933098
4.231199613438097
4.218890669108104
4.200427252613103
4.200427252613103
4.188118308283084
4.169654891788083
4.163500419623101
4.169654891788083
4.169654891788083
4.157345947458091
4.157345947458091
4.163500419623101
4.169654891788083
4.157345947458091
4.157345947458091
4.169654891788083
4.1758093639530935
4.1758093639530935
4.145037003128072
4.138882530963089
4.163500419623101
4.1758093639530935
4.1942727804480935
4.181963836118102
4.181963836118102
4.169654891788083
4.163500419623101
4.169654891788083
4.169654891788083
4.169654891788083
4.169654891788083
4.163500419623101
4.1758093639530935
4.181963836118102
4.188118308283084
4.1758093639530935
4.181963836118102
4.181963836118102
4.181963836118102
4.169654891788083
4.181963836118102
4.181963836118102
4.181963836118102
4.1758093639530935
4.181963836118102
4.181963836118102
4.188118308283084
4.188118308283084
4.1942727804480935
4.200427252613103
4.1942727804480935
4.188118308283084
4.1942727804480935
4.1942727804480935
4.181963836118102
4.1758093639530935
4.169654891788083
4.1758093639530935
4.163500419623101
4.151191475293081
4.151191475293081
4.157345947458091
4.157345947458091
4.157345947458091
4.151191475293081
4.157345947458091
4.145037003128072
4.145037003128072
4.157345947458091
4.163500419623101
4.151191475293081
4.145037003128072
4.1327280587980795
4.151191475293081
4.163500419623101
4.181963836118102
4.181963836118102
4.181963836118102
4.1758093639530935
4.169654891788083
4.181963836118102
4.2065817247780855
4.2065817247780855
4.1942727804480935
4.200427252613103
4.1942727804480935
4.1942727804480935
4.163500419623101
4.157345947458091
4.163500419623101
4.181963836118102
4.181963836118102
4.188118308283084
4.1942727804480935
4.200427252613103
4.212736196943095
4.200427252613103
4.1942727804480935
4.2065817247780855
4.218890669108104
4.243508557768089
4.249663029933098
4.237354085603107
4.231199613438097
4.218890669108104
4.225045141273086
4.231199613438097
4.225045141273086
4.212736196943095
4.2065817247780855
4.212736196943095
4.212736196943095
4.212736196943095
4.2065817247780855
4.2065817247780855
4.2065817247780855
4.200427252613103
4.218890669108104
4.237354085603107
4.225045141273086
4.225045141273086
4.218890669108104
4.218890669108104
4.218890669108104
4.212736196943095
4.225045141273086
4.249663029933098
4.329671168078114
4.415833778388112
4.483532972203136
4.508150860863147
4.446606139213133
4.335825640243124
4.2681264464281
4.181963836118102
4.095801225808079
4.034256504158063
4.034256504158063
4.0711833371480655
4.101955697973087
4.157345947458091
4.2065817247780855
4.200427252613103
4.2065817247780855
4.218890669108104
4.225045141273086
4.218890669108104
4.225045141273086
4.231199613438097
4.225045141273086
4.225045141273086
4.218890669108104
4.225045141273086
4.237354085603107
4.249663029933098
4.249663029933098
4.243508557768089
4.249663029933098
4.249663029933098
4.255817502098108
4.249663029933098
4.249663029933098
4.255817502098108
4.261971974263091
4.255817502098108
4.255817502098108
4.261971974263091
4.2681264464281
4.2681264464281
4.27428091859311
4.261971974263091
4.261971974263091
4.27428091859311
4.2865898629231
4.305053279418103
4.298898807253093
4.3112077515831135
4.323516695913104
4.3173622237481215
4.3112077515831135
4.323516695913104
4.292744335088111
4.298898807253093
4.3173622237481215
4.323516695913104
4.329671168078114
4.341980112408105
4.335825640243124
4.348134584573115
4.354289056738125
4.360443528903107
4.354289056738125
4.360443528903107
4.366598001068117
4.3727524732331275
4.366598001068117
4.360443528903107
4.335825640243124
4.335825640243124
4.3112077515831135
4.298898807253093
4.280435390758093
4.27428091859311
4.27428091859311
4.237354085603107
4.2065817247780855
4.2065817247780855
4.1942727804480935
4.188118308283084
4.188118308283084
4.1942727804480935
4.188118308283084
4.181963836118102
4.1758093639530935
4.1758093639530935
4.1758093639530935
4.1758093639530935
4.169654891788083
4.169654891788083
4.1758093639530935
4.1758093639530935
4.1758093639530935
4.169654891788083
4.1758093639530935
4.181963836118102
4.181963836118102
4.188118308283084
4.188118308283084
4.1942727804480935
4.1942727804480935
4.200427252613103
4.200427252613103
4.188118308283084
4.188118308283084
4.1942727804480935
4.1942727804480935
4.200427252613103
4.200427252613103
4.212736196943095
4.212736196943095
4.2065817247780855
4.2065817247780855
4.200427252613103
4.200427252613103
4.212736196943095
4.2065817247780855
4.212736196943095
4.2065817247780855
4.2065817247780855
4.218890669108104
4.218890669108104
4.218890669108104
4.212736196943095
4.218890669108104
4.237354085603107
4.231199613438097
4.218890669108104
4.218890669108104
4.218890669108104
4.218890669108104
4.212736196943095
4.212736196943095
4.218890669108104
4.225045141273086
4.212736196943095
4.2065817247780855
4.200427252613103
4.200427252613103
4.218890669108104
4.218890669108104
4.218890669108104
4.218890669108104
4.212736196943095
4.212736196943095
4.212736196943095
4.212736196943095
4.212736196943095
4.212736196943095
4.218890669108104
4.218890669108104
4.218890669108104
4.218890669108104
4.218890669108104
4.218890669108104
4.225045141273086
4.2065817247780855
4.2065817247780855
4.231199613438097
4.243508557768089
4.218890669108104
4.218890669108104
4.218890669108104
4.237354085603107
4.261971974263091
4.261971974263091
4.249663029933098
4.243508557768089
4.237354085603107
4.243508557768089
4.237354085603107
4.243508557768089
4.237354085603107
4.225045141273086
4.225045141273086
4.2065817247780855
4.200427252613103
4.2065817247780855
4.225045141273086
4.212736196943095
4.212736196943095
4.212736196943095
4.212736196943095
4.218890669108104
4.218890669108104
4.218890669108104
4.212736196943095
4.218890669108104
4.212736196943095
4.218890669108104
4.249663029933098
4.3173622237481215
4.391215889728128
4.465069555708134
4.501996388698137
4.501996388698137
4.440451667048122
4.354289056738125
4.255817502098108
4.151191475293081
4.040410976323072
4.015793087663061
4.058874392818074
4.114264642303079
4.1758093639530935
4.2065817247780855
4.218890669108104
4.218890669108104
4.218890669108104
4.218890669108104
4.225045141273086
4.225045141273086
4.218890669108104
4.218890669108104
4.225045141273086
4.218890669108104
4.225045141273086
4.225045141273086
4.225045141273086
4.225045141273086
4.225045141273086
4.231199613438097
4.225045141273086
4.231199613438097
4.231199613438097
4.237354085603107
4.231199613438097
4.237354085603107
4.243508557768089
4.255817502098108
4.255817502098108
4.255817502098108
4.255817502098108
4.261971974263091
4.27428091859311
4.2681264464281
4.27428091859311
4.2865898629231
4.292744335088111
4.292744335088111
4.292744335088111
4.2865898629231
4.292744335088111
4.305053279418103
4.305053279418103
4.3112077515831135
4.3112077515831135
4.3173622237481215
4.3173622237481215
4.323516695913104
4.323516695913104
4.341980112408105
4.360443528903107
4.366598001068117
4.366598001068117
4.354289056738125
4.360443528903107
4.360443528903107
4.348134584573115
4.360443528903107
4.354289056738125
4.341980112408105
4.3173622237481215
4.298898807253093
4.280435390758093
4.261971974263091
4.255817502098108
4.237354085603107
4.225045141273086
4.212736196943095
4.200427252613103
4.181963836118102
4.1758093639530935
4.181963836118102
4.1758093639530935
4.157345947458091
4.163500419623101
4.169654891788083
4.1758093639530935
4.169654891788083
4.1758093639530935
4.1758093639530935
4.1758093639530935
4.181963836118102
4.181963836118102
4.181963836118102
4.181963836118102
4.181963836118102
4.181963836118102
4.1758093639530935
4.181963836118102
4.188118308283084
4.1942727804480935
4.181963836118102
4.181963836118102
4.181963836118102
4.1942727804480935
4.188118308283084
4.1942727804480935
4.1942727804480935
4.200427252613103
4.2065817247780855
4.200427252613103
4.200427252613103
4.200427252613103
4.2065817247780855
4.200427252613103
4.2065817247780855
4.2065817247780855
4.2065817247780855
4.200427252613103
4.200427252613103
4.200427252613103
4.1942727804480935
4.2065817247780855
4.2065817247780855
4.2065817247780855
4.2065817247780855
4.188118308283084
4.188118308283084
4.188118308283084
4.188118308283084
4.188118308283084
4.1942727804480935
4.188118308283084
4.1942727804480935
4.188118308283084
4.1942727804480935
4.181963836118102
4.188118308283084
4.188118308283084
4.188118308283084
4.169654891788083
4.188118308283084
4.218890669108104
4.212736196943095
4.2065817247780855
4.200427252613103
4.1942727804480935
4.2065817247780855
4.2065817247780855
4.2065817247780855
4.200427252613103
4.1942727804480935
4.1942727804480935
4.1942727804480935
4.1942727804480935
4.200427252613103
4.200427252613103
4.188118308283084
4.1758093639530935
4.188118308283084
4.2065817247780855
4.237354085603107
4.237354085603107
4.218890669108104
4.212736196943095
4.218890669108104
4.218890669108104
4.231199613438097
4.2065817247780855
4.200427252613103
4.188118308283084
4.181963836118102
4.151191475293081
4.114264642303079
4.120419114468088
4.12657358663307
4.151191475293081
4.151191475293081
4.12657358663307
4.120419114468088
4.12657358663307
4.138882530963089
4.151191475293081
4.145037003128072
4.138882530963089
4.12657358663307
4.12657358663307
4.145037003128072
4.188118308283084
4.261971974263091
4.366598001068117
4.440451667048122
4.471224027873144
4.421988250553122
4.3112077515831135
4.212736196943095
4.108110170138069
4.009638615498079
3.9542483660130467
3.9788662546730578
4.021947559828071
4.089646753643067
4.145037003128072
4.1942727804480935
4.181963836118102
4.1327280587980795
4.145037003128072
4.145037003128072
4.157345947458091
4.163500419623101
4.157345947458091
4.157345947458091
4.1758093639530935
4.200427252613103
4.1942727804480935
4.200427252613103
4.200427252613103
4.200427252613103
4.1942727804480935
4.218890669108104
4.225045141273086
4.231199613438097
4.237354085603107
4.231199613438097
4.225045141273086
4.237354085603107
4.249663029933098
4.237354085603107
4.237354085603107
4.255817502098108
4.243508557768089
4.249663029933098
4.249663029933098
4.231199613438097
4.237354085603107
4.249663029933098
4.249663029933098
4.2681264464281
4.280435390758093
4.27428091859311
4.2865898629231
4.2865898629231
4.2865898629231
4.292744335088111
4.305053279418103
4.298898807253093
4.3112077515831135
4.341980112408105
4.354289056738125
4.354289056738125
4.335825640243124
4.298898807253093
4.3173622237481215
4.323516695913104
4.329671168078114
4.329671168078114
4.329671168078114
4.329671168078114
4.3112077515831135
4.292744335088111
4.2865898629231
4.261971974263091
4.249663029933098
4.231199613438097
4.218890669108104
4.200427252613103
4.181963836118102
4.163500419623101
4.145037003128072
4.1327280587980795
4.151191475293081
4.151191475293081
4.138882530963089
4.12657358663307
4.12657358663307
4.12657358663307
4.120419114468088
4.120419114468088
4.114264642303079
4.114264642303079
4.114264642303079
4.114264642303079
4.120419114468088
4.12657358663307
4.120419114468088
4.120419114468088
4.120419114468088
4.1327280587980795
4.1327280587980795
4.12657358663307
4.1327280587980795
4.12657358663307
4.12657358663307
4.1327280587980795
4.151191475293081
4.151191475293081
4.145037003128072
4.145037003128072
4.138882530963089
4.145037003128072
4.151191475293081
4.163500419623101
4.151191475293081
4.151191475293081
4.157345947458091
4.157345947458091
4.169654891788083
4.169654891788083
4.169654891788083
4.163500419623101
4.157345947458091
4.163500419623101
4.163500419623101
4.157345947458091
4.169654891788083
4.188118308283084
4.181963836118102
4.1758093639530935
4.169654891788083
4.169654891788083
4.163500419623101
4.163500419623101
4.157345947458091
4.157345947458091
4.163500419623101
4.163500419623101
4.163500419623101
4.163500419623101
4.145037003128072
4.138882530963089
4.1327280587980795
4.145037003128072
4.157345947458091
4.151191475293081
4.151191475293081
4.163500419623101
4.163500419623101
4.163500419623101
4.157345947458091
4.157345947458091
4.163500419623101
4.163500419623101
4.163500419623101
4.1758093639530935
4.169654891788083
4.169654891788083
4.1758093639530935
4.1758093639530935
4.1758093639530935
4.169654891788083
4.1758093639530935
4.188118308283084
4.218890669108104
4.225045141273086
4.218890669108104
4.212736196943095
4.2065817247780855
4.212736196943095
4.200427252613103
4.200427252613103
4.188118308283084
4.188118308283084
4.188118308283084
4.1758093639530935
4.169654891788083
4.1758093639530935
4.1758093639530935
4.181963836118102
4.169654891788083
4.188118308283084
4.200427252613103
4.1942727804480935
4.1942727804480935
4.1942727804480935
4.188118308283084
4.169654891788083
4.120419114468088
4.1327280587980795
4.145037003128072
4.188118308283084
4.27428091859311
4.360443528903107
4.428142722718132
4.446606139213133
4.40967930622313
4.3173622237481215
4.237354085603107
4.145037003128072
4.0465654484880815
3.9911751990030497
4.009638615498079
4.0465654484880815
4.077337809313075
4.1327280587980795
4.169654891788083
4.169654891788083
4.169654891788083
4.169654891788083
4.169654891788083
4.1758093639530935
4.1758093639530935
4.1758093639530935
4.1758093639530935
4.1758093639530935
4.181963836118102
4.181963836118102
4.188118308283084
4.188118308283084
4.188118308283084
4.188118308283084
4.1942727804480935
4.1942727804480935
4.188118308283084
4.1942727804480935
4.1942727804480935
4.200427252613103
4.2065817247780855
4.212736196943095
4.200427252613103
4.2065817247780855
4.2065817247780855
4.212736196943095
4.2065817247780855
4.2065817247780855
4.218890669108104
4.225045141273086
4.231199613438097
4.231199613438097
4.243508557768089
4.237354085603107
4.249663029933098
4.255817502098108
4.255817502098108
4.27428091859311
4.280435390758093
4.27428091859311
4.2865898629231
4.298898807253093
4.3112077515831135
4.298898807253093
4.3112077515831135
4.305053279418103
4.3173622237481215
4.323516695913104
4.323516695913104
4.329671168078114
4.3173622237481215
4.323516695913104
4.3112077515831135
4.305053279418103
4.292744335088111
4.261971974263091
4.249663029933098
4.249663029933098
4.231199613438097
4.225045141273086
4.212736196943095
4.1942727804480935
4.169654891788083
4.169654891788083
4.163500419623101
4.169654891788083
4.157345947458091
4.157345947458091
4.163500419623101
4.157345947458091
4.151191475293081
4.151191475293081
4.151191475293081
4.157345947458091
4.151191475293081
4.151191475293081
4.145037003128072
4.151191475293081
4.151191475293081
4.157345947458091
4.157345947458091
4.151191475293081
4.151191475293081
4.163500419623101
4.1758093639530935
4.1758093639530935
4.169654891788083
4.163500419623101
4.169654891788083
4.145037003128072
4.1327280587980795
4.145037003128072
4.157345947458091
4.151191475293081
4.151191475293081
4.181963836118102
4.200427252613103
4.163500419623101
4.157345947458091
4.1758093639530935
4.169654891788083
4.1758093639530935
4.1758093639530935
4.163500419623101
4.1758093639530935
4.1758093639530935
4.181963836118102
4.169654891788083
4.1758093639530935
4.1758093639530935
4.181963836118102
4.181963836118102
4.181963836118102
4.1758093639530935
4.181963836118102
4.1758093639530935
4.181963836118102
4.181963836118102
4.1758093639530935
4.1758093639530935
4.163500419623101
4.169654891788083
4.1758093639530935
4.1758093639530935
4.1758093639530935
4.169654891788083
4.1758093639530935
4.181963836118102
4.1758093639530935
4.1758093639530935
4.181963836118102
4.1942727804480935
4.188118308283084
4.188118308283084
4.181963836118102
4.181963836118102
4.1758093639530935
4.181963836118102
4.200427252613103
4.218890669108104
4.225045141273086
4.2065817247780855
4.2065817247780855
4.2065817247780855
4.2065817247780855
4.188118308283084
4.181963836118102
4.181963836118102
4.188118308283084
4.181963836118102
4.1758093639530935
4.1758093639530935
4.157345947458091
4.169654891788083
4.169654891788083
4.169654891788083
4.169654891788083
4.163500419623101
4.169654891788083
4.1758093639530935
4.169654891788083
4.1758093639530935
4.169654891788083
4.163500419623101
4.163500419623101
4.1758093639530935
4.212736196943095
4.27428091859311
4.354289056738125
4.428142722718132
4.440451667048122
4.40352483405812
4.3112077515831135
4.243508557768089
4.157345947458091
4.058874392818074
3.9973296711680604
4.009638615498079
4.0465654484880815
4.083492281478085
4.1327280587980795
4.169654891788083
4.1758093639530935
4.163500419623101
4.163500419623101
4.169654891788083
4.1758093639530935
4.1758093639530935
4.181963836118102
4.188118308283084
4.188118308283084
4.188118308283084
4.1942727804480935
4.181963836118102
4.200427252613103
4.2065817247780855
4.2065817247780855
4.2065817247780855
4.2065817247780855
4.212736196943095
4.212736196943095
4.200427252613103
4.200427252613103
4.2065817247780855
4.218890669108104
4.225045141273086
4.225045141273086
4.225045141273086
4.231199613438097
4.225045141273086
4.237354085603107
4.231199613438097
4.243508557768089
4.243508557768089
4.243508557768089
4.249663029933098
4.255817502098108
4.2681264464281
4.2865898629231
4.27428091859311
4.2681264464281
4.27428091859311
4.249663029933098
4.255817502098108
4.2681264464281
4.2865898629231
4.292744335088111
4.292744335088111
4.298898807253093
4.305053279418103
4.298898807253093
4.298898807253093
4.3173622237481215
4.3173622237481215
4.3173622237481215
4.305053279418103
4.298898807253093
4.280435390758093
4.2681264464281
4.261971974263091
4.243508557768089
4.225045141273086
4.2065817247780855
4.188118308283084
4.181963836118102
4.169654891788083
4.169654891788083
4.157345947458091
4.145037003128072
4.145037003128072
4.145037003128072
4.151191475293081
4.145037003128072
4.1327280587980795
4.12657358663307
4.138882530963089
4.145037003128072
4.145037003128072
4.145037003128072
4.151191475293081
4.157345947458091
4.145037003128072
4.157345947458091
4.163500419623101
4.157345947458091
4.157345947458091
4.145037003128072
4.145037003128072
4.157345947458091
4.157345947458091
4.163500419623101
4.163500419623101
4.163500419623101
4.138882530963089
4.151191475293081
4.157345947458091
4.151191475293081
4.163500419623101
4.169654891788083
4.157345947458091
4.157345947458091
4.169654891788083
4.163500419623101
4.163500419623101
4.169654891788083
4.181963836118102
4.188118308283084
4.1942727804480935
4.188118308283084
4.181963836118102
4.181963836118102
4.188118308283084
4.188118308283084
4.181963836118102
4.181963836118102
4.188118308283084
4.181963836118102
4.1758093639530935
4.1758093639530935
4.1758093639530935
4.169654891788083
4.163500419623101
4.163500419623101
4.169654891788083
4.1758093639530935
4.181963836118102
4.181963836118102
4.188118308283084
4.1942727804480935
4.181963836118102
4.1942727804480935
4.188118308283084
4.188118308283084
4.188118308283084
4.188118308283084
4.188118308283084
4.181963836118102
4.1942727804480935
4.1942727804480935
4.1942727804480935
4.1942727804480935
4.181963836118102
4.181963836118102
4.181963836118102
4.188118308283084
4.188118308283084
4.188118308283084
4.200427252613103
4.188118308283084
4.188118308283084
4.1942727804480935
4.225045141273086
4.243508557768089
4.237354085603107
4.225045141273086
4.2065817247780855
4.212736196943095
4.225045141273086
4.212736196943095
4.2065817247780855
4.225045141273086
4.2065817247780855
4.200427252613103
4.188118308283084
4.188118308283084
4.188118308283084
4.181963836118102
4.151191475293081
4.145037003128072
4.163500419623101
4.169654891788083
4.169654891788083
4.1758093639530935
4.1758093639530935
4.1758093639530935
4.1758093639530935
4.1758093639530935
4.1758093639530935
4.200427252613103
4.243508557768089
4.323516695913104
4.391215889728128
4.446606139213133
4.446606139213133
4.385061417563119
4.2865898629231
4.2065817247780855
4.12657358663307
4.052719920653064
4.015793087663061
4.058874392818074
4.095801225808079
4.169654891788083
4.200427252613103
4.2065817247780855
4.200427252613103
4.200427252613103
4.200427252613103
4.2065817247780855
4.2065817247780855
4.2065817247780855
4.200427252613103
4.2065817247780855
4.218890669108104
4.212736196943095
4.212736196943095
4.218890669108104
4.212736196943095
4.212736196943095
4.212736196943095
4.218890669108104
4.218890669108104
4.225045141273086
4.225045141273086
4.218890669108104
4.249663029933098
4.2681264464281
4.261971974263091
4.249663029933098
4.243508557768089
4.249663029933098
4.249663029933098
4.212736196943095
4.231199613438097
4.243508557768089
4.249663029933098
4.249663029933098
4.261971974263091
4.261971974263091
4.2681264464281
4.280435390758093
4.2865898629231
4.292744335088111
4.292744335088111
4.305053279418103
4.305053279418103
4.3173622237481215
4.3173622237481215
4.323516695913104
4.323516695913104
4.335825640243124
4.335825640243124
4.341980112408105
4.354289056738125
4.360443528903107
4.348134584573115
4.348134584573115
4.341980112408105
4.348134584573115
4.335825640243124
4.3112077515831135
4.298898807253093
4.27428091859311
4.261971974263091
4.255817502098108
4.237354085603107
4.2065817247780855
4.1942727804480935
4.188118308283084
4.181963836118102
4.169654891788083
4.163500419623101
4.163500419623101
4.169654891788083
4.157345947458091
4.157345947458091
4.157345947458091
4.157345947458091
4.163500419623101
4.163500419623101
4.169654891788083
4.157345947458091
4.163500419623101
4.169654891788083
4.169654891788083
4.163500419623101
4.169654891788083
4.169654891788083
4.188118308283084
4.1758093639530935
4.181963836118102
4.188118308283084
4.200427252613103
4.200427252613103
4.169654891788083
4.157345947458091
4.169654891788083
4.163500419623101
4.157345947458091
4.157345947458091
4.1758093639530935
4.188118308283084
4.1942727804480935
4.188118308283084
4.1758093639530935
4.1758093639530935
4.181963836118102
4.1942727804480935
4.188118308283084
4.188118308283084
4.181963836118102
4.181963836118102
4.181963836118102
4.181963836118102
4.181963836118102
4.181963836118102
4.1942727804480935
4.1942727804480935
4.1942727804480935
4.1942727804480935
4.188118308283084
4.1942727804480935
4.188118308283084
4.1942727804480935
4.188118308283084
4.188118308283084
4.188118308283084
4.1942727804480935
4.1942727804480935
4.200427252613103
4.188118308283084
4.188118308283084
4.200427252613103
4.2065817247780855
4.1942727804480935
4.188118308283084
4.1942727804480935
4.200427252613103
4.200427252613103
4.188118308283084
4.188118308283084
4.188118308283084
4.188118308283084
4.188118308283084
4.1942727804480935
4.188118308283084
4.1942727804480935
4.1942727804480935
4.1942727804480935
4.188118308283084
4.1942727804480935
4.188118308283084
4.181963836118102
4.1758093639530935
4.1758093639530935
4.188118308283084
4.200427252613103
4.188118308283084
4.188118308283084
4.188118308283084
4.181963836118102
4.1942727804480935
4.200427252613103
4.200427252613103
4.2065817247780855
4.200427252613103
4.188118308283084
4.188118308283084
4.188118308283084
4.212736196943095
4.243508557768089
4.243508557768089
4.237354085603107
4.218890669108104
4.212736196943095
4.212736196943095
4.212736196943095
4.200427252613103
4.200427252613103
4.2065817247780855
4.181963836118102
4.1758093639530935
4.181963836118102
4.181963836118102
4.188118308283084
4.1758093639530935
4.169654891788083
4.1758093639530935
4.1758093639530935
4.1758093639530935
4.1758093639530935
4.169654891788083
4.1758093639530935
4.169654891788083
4.1758093639530935
4.163500419623101
4.151191475293081
4.169654891788083
4.212736196943095
4.292744335088111
4.37890694539811
4.440451667048122
4.458915083543125
4.40352483405812
4.298898807253093
4.218890669108104
4.12657358663307
4.0465654484880815
4.003484143333068
4.021947559828071
4.065028864983084
4.12657358663307
4.169654891788083
4.200427252613103
4.200427252613103
4.200427252613103
4.200427252613103
4.200427252613103
4.200427252613103
4.1758093639530935
4.157345947458091
4.163500419623101
4.1758093639530935
4.181963836118102
4.1942727804480935
4.1942727804480935
4.200427252613103
4.200427252613103
4.200427252613103
4.200427252613103
4.212736196943095
4.212736196943095
4.212736196943095
4.218890669108104
4.218890669108104
4.225045141273086
4.231199613438097
4.231199613438097
4.231199613438097
4.237354085603107
4.237354085603107
4.243508557768089
4.249663029933098
4.243508557768089
4.249663029933098
4.255817502098108
4.2681264464281
4.27428091859311
4.27428091859311
4.27428091859311
4.292744335088111
4.292744335088111
4.292744335088111
4.292744335088111
4.305053279418103
4.305053279418103
4.3112077515831135
4.3173622237481215
4.323516695913104
4.335825640243124
4.329671168078114
4.341980112408105
4.348134584573115
4.341980112408105
4.335825640243124
4.341980112408105
4.354289056738125
4.354289056738125
4.341980112408105
4.3173622237481215
4.3112077515831135
4.298898807253093
4.27428091859311
4.249663029933098
4.231199613438097
4.225045141273086
4.212736196943095
4.200427252613103
4.1942727804480935
4.1758093639530935
4.169654891788083
4.157345947458091
4.163500419623101
4.157345947458091
4.157345947458091
4.151191475293081
4.151191475293081
4.151191475293081
4.145037003128072
4.145037003128072
4.151191475293081
4.145037003128072
4.145037003128072
4.151191475293081
4.163500419623101
4.163500419623101
4.163500419623101
4.157345947458091
4.157345947458091
4.163500419623101
4.163500419623101
4.157345947458091
4.157345947458091
4.163500419623101
4.1758093639530935
4.169654891788083
4.169654891788083
4.1758093639530935
4.1758093639530935
4.1758093639530935
4.169654891788083
4.1758093639530935
4.181963836118102
4.181963836118102
4.181963836118102
4.163500419623101
4.163500419623101
4.1758093639530935
4.181963836118102
4.1942727804480935
4.1942727804480935
4.188118308283084
4.1758093639530935
4.1758093639530935
4.188118308283084
4.188118308283084
4.1758093639530935
4.181963836118102
4.169654891788083
4.1758093639530935
4.169654891788083
4.1758093639530935
4.181963836118102
4.188118308283084
4.188118308283084
4.188118308283084
4.200427252613103
4.1758093639530935
4.1942727804480935
4.1942727804480935
4.188118308283084
4.188118308283084
4.188118308283084
4.188118308283084
4.169654891788083
4.138882530963089
4.157345947458091
4.169654891788083
4.169654891788083
4.169654891788083
4.181963836118102
4.181963836118102
4.188118308283084
4.200427252613103
4.188118308283084
4.181963836118102
4.181963836118102
4.181963836118102
4.1758093639530935
4.181963836118102
4.181963836118102
4.1758093639530935
4.1758093639530935
4.1758093639530935
4.181963836118102
4.181963836118102
4.157345947458091
4.157345947458091
4.157345947458091
4.169654891788083
4.169654891788083
4.169654891788083
4.1758093639530935
4.1758093639530935
4.1758093639530935
4.181963836118102
4.1758093639530935
4.169654891788083
4.1758093639530935
4.188118308283084
4.188118308283084
4.188118308283084
4.1942727804480935
4.1942727804480935
4.188118308283084
4.181963836118102
4.188118308283084
4.212736196943095
4.225045141273086
4.237354085603107
4.225045141273086
4.218890669108104
4.218890669108104
4.225045141273086
4.212736196943095
4.2065817247780855
4.2065817247780855
4.1942727804480935
4.188118308283084
4.188118308283084
4.181963836118102
4.188118308283084
4.188118308283084
4.188118308283084
4.188118308283084
4.1942727804480935
4.188118308283084
4.200427252613103
4.2065817247780855
4.2065817247780855
4.200427252613103
4.1942727804480935
4.200427252613103
4.188118308283084
4.188118308283084
4.218890669108104
4.2865898629231
4.366598001068117
4.440451667048122
4.477378500038126
4.440451667048122
4.341980112408105
4.255817502098108
4.181963836118102
4.083492281478085
4.028102031993082
4.028102031993082
4.058874392818074
4.077337809313075
4.1327280587980795
4.1758093639530935
4.181963836118102
4.181963836118102
4.188118308283084
4.188118308283084
4.1942727804480935
4.188118308283084
4.1942727804480935
4.200427252613103
4.200427252613103
4.1942727804480935
4.2065817247780855
4.212736196943095
4.2065817247780855
4.2065817247780855
4.2065817247780855
4.212736196943095
4.212736196943095
4.212736196943095
4.218890669108104
4.218890669108104
4.218890669108104
4.218890669108104
4.225045141273086
4.225045141273086
4.225045141273086
4.225045141273086
4.231199613438097
4.261971974263091
4.2681264464281
4.255817502098108
4.255817502098108
4.237354085603107
4.237354085603107
4.243508557768089
4.255817502098108
4.255817502098108
4.261971974263091
4.27428091859311
4.27428091859311
4.280435390758093
4.2865898629231
4.292744335088111
4.292744335088111
4.292744335088111
4.2865898629231
4.280435390758093
4.292744335088111
4.305053279418103
4.3112077515831135
4.3112077515831135
4.3173622237481215
4.3173622237481215
4.323516695913104
4.323516695913104
4.305053279418103
4.305053279418103
4.292744335088111
4.280435390758093
4.2681264464281
4.243508557768089
4.231199613438097
4.218890669108104
4.200427252613103
4.181963836118102
4.1758093639530935
4.169654891788083
4.157345947458091
4.157345947458091
4.145037003128072
4.138882530963089
4.138882530963089
4.145037003128072
4.145037003128072
4.145037003128072
4.157345947458091
4.151191475293081
4.145037003128072
4.138882530963089
4.138882530963089
4.1327280587980795
4.138882530963089
4.145037003128072
4.151191475293081
4.151191475293081
4.145037003128072
4.1327280587980795
4.12657358663307
4.138882530963089
4.138882530963089
4.138882530963089
4.157345947458091
4.151191475293081
4.157345947458091
4.151191475293081
4.157345947458091
4.157345947458091
4.163500419623101
4.157345947458091
4.163500419623101
4.151191475293081
4.157345947458091
4.157345947458091
4.163500419623101
4.163500419623101
4.163500419623101
4.169654891788083
4.163500419623101
4.1758093639530935
4.163500419623101
4.163500419623101
4.163500419623101
4.169654891788083
4.1758093639530935
4.1942727804480935
4.181963836118102
4.181963836118102
4.1758093639530935
4.1758093639530935
4.1758093639530935
4.181963836118102
4.1758093639530935
4.169654891788083
4.169654891788083
4.181963836118102
4.1758093639530935
4.169654891788083
4.145037003128072
4.138882530963089
4.151191475293081
4.1758093639530935
4.1758093639530935
4.1758093639530935
4.169654891788083
4.169654891788083
4.1758093639530935
4.1758093639530935
4.1758093639530935
4.169654891788083
4.169654891788083
4.1758093639530935
4.200427252613103
4.181963836118102
4.181963836118102
4.1758093639530935
4.1758093639530935
4.181963836118102
4.1758093639530935
4.1758093639530935
4.169654891788083
4.212736196943095
4.2065817247780855
4.212736196943095
4.1942727804480935
4.1758093639530935
4.163500419623101
4.163500419623101
4.157345947458091
4.1758093639530935
4.188118308283084
4.188118308283084
4.188118308283084
4.188118308283084
4.188118308283084
4.181963836118102
4.1758093639530935
4.169654891788083
4.169654891788083
4.163500419623101
4.163500419623101
4.157345947458091
4.157345947458091
4.157345947458091
4.151191475293081
4.151191475293081
4.151191475293081
4.151191475293081
4.151191475293081
4.157345947458091
4.157345947458091
4.145037003128072
4.138882530963089
4.151191475293081
4.163500419623101
4.1758093639530935
4.231199613438097
4.305053279418103
4.385061417563119
4.428142722718132
4.40967930622313
4.335825640243124
4.243508557768089
4.169654891788083
4.077337809313075
3.9973296711680604
3.9850207268380675
4.015793087663061
4.065028864983084
4.12657358663307
4.163500419623101
4.1758093639530935
4.169654891788083
4.169654891788083
4.1758093639530935
4.169654891788083
4.169654891788083
4.169654891788083
4.169654891788083
4.1758093639530935
4.181963836118102
4.181963836118102
4.1758093639530935
4.188118308283084
4.1942727804480935
4.1942727804480935
4.1942727804480935
4.188118308283084
4.1942727804480935
4.188118308283084
4.1942727804480935
4.218890669108104
4.237354085603107
4.225045141273086
4.218890669108104
4.218890669108104
4.225045141273086
4.212736196943095
4.188118308283084
4.1942727804480935
4.1942727804480935
4.212736196943095
4.218890669108104
4.225045141273086
4.231199613438097
4.231199613438097
4.249663029933098
4.255817502098108
4.255817502098108
4.249663029933098
4.255817502098108
4.2681264464281
4.2681264464281
4.2865898629231
4.292744335088111
4.298898807253093
4.298898807253093
4.298898807253093
4.298898807253093
4.305053279418103
4.323516695913104
4.323516695913104
4.323516695913104
4.323516695913104
4.3112077515831135
4.298898807253093
4.292744335088111
4.2865898629231
4.27428091859311
4.261971974263091
4.243508557768089
4.218890669108104
4.2065817247780855
4.1942727804480935
4.1942727804480935
4.188118308283084
4.169654891788083
4.163500419623101
4.151191475293081
4.151191475293081
4.151191475293081
4.138882530963089
4.151191475293081
4.157345947458091
4.151191475293081
4.12657358663307
4.120419114468088
4.120419114468088
4.114264642303079
4.114264642303079
4.12657358663307
4.12657358663307
4.138882530963089
4.12657358663307
4.12657358663307
4.1327280587980795
4.145037003128072
4.145037003128072
4.138882530963089
4.145037003128072
4.145037003128072
4.151191475293081
4.145037003128072
4.151191475293081
4.151191475293081
4.151191475293081
4.157345947458091
4.157345947458091
4.151191475293081
4.157345947458091
4.151191475293081
4.157345947458091
4.157345947458091
4.157345947458091
4.163500419623101
4.163500419623101
4.151191475293081
4.163500419623101
4.157345947458091
4.157345947458091
4.145037003128072
4.151191475293081
4.163500419623101
4.169654891788083
4.157345947458091
4.157345947458091
4.163500419623101
4.163500419623101
4.163500419623101
4.157345947458091
4.157345947458091
4.157345947458091
4.163500419623101
4.157345947458091
4.163500419623101
4.163500419623101
4.163500419623101
4.157345947458091
4.157345947458091
4.151191475293081
4.157345947458091
4.163500419623101
4.169654891788083
4.188118308283084
4.181963836118102
4.163500419623101
4.181963836118102
4.1758093639530935
4.169654891788083
4.1758093639530935
4.169654891788083
4.169654891788083
4.169654891788083
4.169654891788083
4.157345947458091
4.163500419623101
4.157345947458091
4.151191475293081
4.157345947458091
4.169654891788083
4.163500419623101
4.163500419623101
4.163500419623101
4.157345947458091
4.169654891788083
4.163500419623101
4.163500419623101
4.169654891788083
4.169654891788083
4.1758093639530935
4.181963836118102
4.1758093639530935
4.1758093639530935
4.1758093639530935
4.181963836118102
4.181963836118102
4.1758093639530935
4.163500419623101
4.169654891788083
4.1758093639530935
4.2065817247780855
4.212736196943095
4.212736196943095
4.200427252613103
4.188118308283084
4.181963836118102
4.188118308283084
4.181963836118102
4.181963836118102
4.1758093639530935
4.163500419623101
4.163500419623101
4.157345947458091
4.157345947458091
4.163500419623101
4.157345947458091
4.151191475293081
4.151191475293081
4.151191475293081
4.163500419623101
4.163500419623101
4.157345947458091
4.157345947458091
4.163500419623101
4.169654891788083
4.1758093639530935
4.169654891788083
4.1942727804480935
4.261971974263091
4.348134584573115
4.397370361893111
4.40352483405812
4.360443528903107
4.280435390758093
4.1942727804480935
4.12657358663307
4.040410976323072
3.9727117825080467
3.9850207268380675
4.034256504158063
4.095801225808079
4.151191475293081
4.169654891788083
4.169654891788083
4.169654891788083
4.169654891788083
4.163500419623101
4.163500419623101
4.163500419623101
4.163500419623101
4.163500419623101
4.181963836118102
4.1758093639530935
4.1758093639530935
4.181963836118102
4.188118308283084
4.1758093639530935
4.181963836118102
4.181963836118102
4.188118308283084
4.1942727804480935
4.188118308283084
4.1942727804480935
4.2065817247780855
4.2065817247780855
4.2065817247780855
4.212736196943095
4.218890669108104
4.218890669108104
4.225045141273086
4.225045141273086
4.237354085603107
4.237354085603107
4.237354085603107
4.249663029933098
4.249663029933098
4.249663029933098
4.249663029933098
4.255817502098108
4.2681264464281
4.27428091859311
4.2865898629231
4.27428091859311
4.2865898629231
4.298898807253093
4.323516695913104
4.329671168078114
4.323516695913104
4.335825640243124
4.335825640243124
4.329671168078114
4.329671168078114
4.341980112408105
4.335825640243124
4.329671168078114
4.329671168078114
4.323516695913104
4.3173622237481215
4.3112077515831135
4.2865898629231
4.27428091859311
4.255817502098108
4.225045141273086
4.218890669108104
4.212736196943095
4.200427252613103
4.181963836118102
4.169654891788083
4.163500419623101
4.151191475293081
4.151191475293081
4.145037003128072
4.138882530963089
4.12657358663307
4.1327280587980795
4.12657358663307
4.120419114468088
4.120419114468088
4.138882530963089
4.138882530963089
4.138882530963089
4.138882530963089
4.145037003128072
4.138882530963089
4.138882530963089
4.138882530963089
4.145037003128072
4.138882530963089
4.145037003128072
4.138882530963089
4.151191475293081
4.145037003128072
4.145037003128072
4.145037003128072
4.157345947458091
4.145037003128072
4.145037003128072
4.145037003128072
4.157345947458091
4.163500419623101
4.169654891788083
4.1758093639530935
4.169654891788083
4.169654891788083
4.157345947458091
4.163500419623101
4.1758093639530935
4.163500419623101
4.151191475293081
4.157345947458091
4.163500419623101
4.157345947458091
4.163500419623101
4.138882530963089
4.1327280587980795
4.151191475293081
4.157345947458091
4.157345947458091
4.145037003128072
4.157345947458091
4.157345947458091
4.151191475293081
4.145037003128072
4.151191475293081
4.1758093639530935
4.169654891788083
4.169654891788083
4.163500419623101
4.151191475293081
4.157345947458091
4.145037003128072
4.108110170138069
4.114264642303079
4.114264642303079
4.120419114468088
4.12657358663307
4.1327280587980795
4.138882530963089
4.145037003128072
4.138882530963089
4.145037003128072
4.138882530963089
4.138882530963089
4.138882530963089
4.145037003128072
4.138882530963089
4.145037003128072
4.145037003128072
4.145037003128072
4.145037003128072
4.138882530963089
4.145037003128072
4.145037003128072
4.151191475293081
4.163500419623101
4.157345947458091
4.163500419623101
4.157345947458091
4.157345947458091
4.151191475293081
4.151191475293081
4.151191475293081
4.151191475293081
4.151191475293081
4.157345947458091
4.151191475293081
4.157345947458091
4.151191475293081
4.151191475293081
4.169654891788083
4.163500419623101
4.157345947458091
4.157345947458091
4.151191475293081
4.151191475293081
4.163500419623101
4.1942727804480935
4.218890669108104
4.212736196943095
4.200427252613103
4.1942727804480935
4.1942727804480935
4.1942727804480935
4.1942727804480935
4.188118308283084
4.188118308283084
4.169654891788083
4.169654891788083
4.163500419623101
4.169654891788083
4.163500419623101
4.157345947458091
4.169654891788083
4.163500419623101
4.157345947458091
4.169654891788083
4.163500419623101
4.163500419623101
4.163500419623101
4.169654891788083
4.157345947458091
4.145037003128072
4.145037003128072
4.1758093639530935
4.237354085603107
4.323516695913104
4.397370361893111
4.446606139213133
4.428142722718132
4.335825640243124
4.243508557768089
4.157345947458091
4.065028864983084
4.003484143333068
3.9850207268380675
4.021947559828071
4.0711833371480655
4.1327280587980795
4.163500419623101
4.169654891788083
4.169654891788083
4.157345947458091
4.163500419623101
4.163500419623101
4.163500419623101
4.169654891788083
4.169654891788083
4.163500419623101
4.1758093639530935
4.212736196943095
4.212736196943095
4.200427252613103
4.181963836118102
4.163500419623101
4.1758093639530935
4.1758093639530935
4.181963836118102
4.188118308283084
4.188118308283084
4.1942727804480935
4.200427252613103
4.200427252613103
4.1942727804480935
4.200427252613103
4.212736196943095
4.2065817247780855
4.218890669108104
4.218890669108104
4.218890669108104
4.237354085603107
4.237354085603107
4.231199613438097
4.237354085603107
4.243508557768089
4.255817502098108
4.249663029933098
4.249663029933098
4.249663029933098
4.261971974263091
4.27428091859311
4.280435390758093
4.280435390758093
4.280435390758093
4.2865898629231
4.2865898629231
4.292744335088111
4.305053279418103
4.305053279418103
4.298898807253093
4.305053279418103
4.3173622237481215
4.3173622237481215
4.305053279418103
4.305053279418103
4.305053279418103
4.292744335088111
4.2865898629231
4.2865898629231
4.2681264464281
4.249663029933098
4.218890669108104
4.200427252613103
4.1942727804480935
4.181963836118102
4.1758093639530935
4.157345947458091
4.151191475293081
4.151191475293081
4.151191475293081
4.145037003128072
4.12657358663307
4.101955697973087
4.120419114468088
4.12657358663307
4.12657358663307
4.12657358663307
4.138882530963089
4.138882530963089
4.138882530963089
4.1327280587980795
4.138882530963089
4.138882530963089
4.138882530963089
4.138882530963089
4.1327280587980795
4.1327280587980795
4.145037003128072
4.145037003128072
4.151191475293081
4.157345947458091
4.145037003128072
4.151191475293081
4.157345947458091
4.163500419623101
4.163500419623101
4.163500419623101
4.169654891788083
4.163500419623101
4.157345947458091
4.163500419623101
4.163500419623101
4.169654891788083
4.163500419623101
4.169654891788083
4.1758093639530935
4.169654891788083
4.169654891788083
4.169654891788083
4.169654891788083
4.169654891788083
4.1758093639530935
4.181963836118102
4.1758093639530935
4.188118308283084
4.181963836118102
4.169654891788083
4.163500419623101
4.157345947458091
4.188118308283084
4.181963836118102
4.181963836118102
4.181963836118102
4.1758093639530935
4.1758093639530935
4.169654891788083
4.1758093639530935
4.169654891788083
4.169654891788083
4.1758093639530935
4.169654891788083
4.169654891788083
4.1942727804480935
4.181963836118102
4.181963836118102
4.188118308283084
4.1758093639530935
4.1758093639530935
4.157345947458091
4.12657358663307
4.1327280587980795
4.151191475293081
4.163500419623101
4.169654891788083
4.163500419623101
4.157345947458091
4.163500419623101
4.169654891788083
4.169654891788083
4.163500419623101
4.1758093639530935
4.181963836118102
4.1758093639530935
4.1758093639530935
4.181963836118102
4.1758093639530935
4.181963836118102
4.181963836118102
4.1758093639530935
4.1758093639530935
4.1758093639530935
4.181963836118102
4.1942727804480935
4.218890669108104
4.218890669108104
4.2065817247780855
4.200427252613103
4.188118308283084
4.2065817247780855
4.2065817247780855
4.188118308283084
4.188118308283084
4.181963836118102
4.169654891788083
4.157345947458091
4.169654891788083
4.1758093639530935
4.181963836118102
4.169654891788083
4.163500419623101
4.163500419623101
4.157345947458091
4.163500419623101
4.169654891788083
4.163500419623101
4.157345947458091
4.157345947458091
4.157345947458091
4.163500419623101
4.1942727804480935
4.243508557768089
4.323516695913104
4.391215889728128
4.434297194883113
4.428142722718132
4.360443528903107
4.280435390758093
4.200427252613103
4.101955697973087
4.003484143333068
3.9850207268380675
4.009638615498079
4.040410976323072
4.083492281478085
4.1327280587980795
4.163500419623101
4.169654891788083
4.163500419623101
4.145037003128072
4.145037003128072
4.151191475293081
4.163500419623101
4.169654891788083
4.163500419623101
4.169654891788083
4.1758093639530935
4.169654891788083
4.181963836118102
4.188118308283084
4.200427252613103
4.2065817247780855
4.200427252613103
4.200427252613103
4.200427252613103
4.169654891788083
4.157345947458091
4.1758093639530935
4.1758093639530935
4.188118308283084
4.1942727804480935
4.200427252613103
4.200427252613103
4.2065817247780855
4.200427252613103
4.212736196943095
4.218890669108104
4.218890669108104
4.218890669108104
4.218890669108104
4.225045141273086
4.225045141273086
4.243508557768089
4.243508557768089
4.249663029933098
4.255817502098108
4.27428091859311
4.280435390758093
4.292744335088111
4.292744335088111
4.280435390758093
4.2865898629231
4.292744335088111
4.292744335088111
4.323516695913104
4.341980112408105
4.329671168078114
4.298898807253093
4.305053279418103
4.298898807253093
4.298898807253093
4.2865898629231
4.27428091859311
4.261971974263091
4.249663029933098
4.231199613438097
4.231199613438097
4.212736196943095
4.188118308283084
4.1758093639530935
4.157345947458091
4.157345947458091
4.157345947458091
4.151191475293081
4.145037003128072
4.138882530963089
4.138882530963089
4.1327280587980795
4.138882530963089
4.1327280587980795
4.1327280587980795
4.120419114468088
4.12657358663307
4.120419114468088
4.1327280587980795
4.1327280587980795
4.138882530963089
4.12657358663307
4.12657358663307
4.12657358663307
4.1327280587980795
4.138882530963089
4.1327280587980795
4.138882530963089
4.138882530963089
4.138882530963089
4.138882530963089
4.1327280587980795
4.138882530963089
4.145037003128072
4.145037003128072
4.138882530963089
4.145037003128072
4.138882530963089
4.145037003128072
4.145037003128072
4.145037003128072
4.145037003128072
4.145037003128072
4.1327280587980795
4.138882530963089
4.145037003128072
4.145037003128072
4.145037003128072
4.145037003128072
4.138882530963089
4.1327280587980795
4.12657358663307
4.1327280587980795
4.12657358663307
4.1327280587980795
4.138882530963089
4.1327280587980795
4.145037003128072
4.1327280587980795
4.1327280587980795
4.138882530963089
4.1327280587980795
4.138882530963089
4.138882530963089
4.1327280587980795
4.145037003128072
4.145037003128072
4.138882530963089
4.138882530963089
4.12657358663307
4.1327280587980795
4.151191475293081
4.157345947458091
4.151191475293081
4.151191475293081
4.151191475293081
4.151191475293081
4.145037003128072
4.151191475293081
4.151191475293081
4.157345947458091
4.157345947458091
4.157345947458091
4.151191475293081
4.157345947458091
4.151191475293081
4.151191475293081
4.157345947458091
4.157345947458091
4.151191475293081
4.157345947458091
4.157345947458091
4.151191475293081
4.163500419623101
4.169654891788083
4.157345947458091
4.163500419623101
4.169654891788083
4.188118308283084
4.200427252613103
4.200427252613103
4.200427252613103
4.188118308283084
4.188118308283084
4.181963836118102
4.181963836118102
4.1758093639530935
4.169654891788083
4.169654891788083
4.163500419623101
4.1758093639530935
4.181963836118102
4.1758093639530935
4.163500419623101
4.169654891788083
4.157345947458091
4.12657358663307
4.1327280587980795
4.138882530963089
4.151191475293081
4.163500419623101
4.163500419623101
4.157345947458091
4.151191475293081
4.157345947458091
4.1942727804480935
4.261971974263091
4.335825640243124
4.415833778388112
4.440451667048122
4.40352483405812
4.298898807253093
4.218890669108104
4.12657358663307
4.0465654484880815
3.9911751990030497
4.003484143333068
4.0465654484880815
4.108110170138069
4.163500419623101
4.1758093639530935
4.1758093639530935
4.1758093639530935
4.1758093639530935
4.181963836118102
4.181963836118102
4.181963836118102
4.163500419623101
4.157345947458091
4.157345947458091
4.169654891788083
4.181963836118102
4.181963836118102
4.181963836118102
4.1758093639530935
4.1758093639530935
4.181963836118102
4.1758093639530935
4.181963836118102
4.181963836118102
4.1942727804480935
4.200427252613103
4.200427252613103
4.200427252613103
4.2065817247780855
4.2065817247780855
4.2065817247780855
4.2065817247780855
4.212736196943095
4.212736196943095
4.218890669108104
4.225045141273086
4.225045141273086
4.225045141273086
4.237354085603107
4.243508557768089
4.237354085603107
4.237354085603107
4.243508557768089
4.255817502098108
4.261971974263091
4.2681264464281
4.27428091859311
4.27428091859311
4.280435390758093
4.280435390758093
4.292744335088111
4.298898807253093
4.280435390758093
4.280435390758093
4.298898807253093
4.305053279418103
4.305053279418103
4.305053279418103
4.305053279418103
4.3112077515831135
4.292744335088111
4.27428091859311
4.255817502098108
4.249663029933098
4.231199613438097
4.218890669108104
4.2065817247780855
4.1758093639530935
4.1758093639530935
4.169654891788083
4.151191475293081
4.138882530963089
4.138882530963089
4.138882530963089
4.1327280587980795
4.12657358663307
4.12657358663307
4.120419114468088
4.120419114468088
4.12657358663307
4.120419114468088
4.120419114468088
4.12657358663307
4.12657358663307
4.1327280587980795
4.1327280587980795
4.1327280587980795
4.12657358663307
4.1327280587980795
4.138882530963089
4.1327280587980795
4.138882530963089
4.1327280587980795
4.1327280587980795
4.1327280587980795
4.12657358663307
4.12657358663307
4.1327280587980795
4.1327280587980795
4.138882530963089
4.151191475293081
4.151191475293081
4.151191475293081
4.145037003128072
4.151191475293081
4.151191475293081
4.151191475293081
4.145037003128072
4.138882530963089
4.145037003128072
4.151191475293081
4.151191475293081
4.145037003128072
4.151191475293081
4.157345947458091
4.151191475293081
4.157345947458091
4.151191475293081
4.145037003128072
4.151191475293081
4.151191475293081
4.145037003128072
4.151191475293081
4.157345947458091
4.145037003128072
4.151191475293081
4.157345947458091
4.157345947458091
4.151191475293081
4.169654891788083
4.1942727804480935
4.1758093639530935
4.169654891788083
4.169654891788083
4.181963836118102
4.169654891788083
4.138882530963089
4.145037003128072
4.157345947458091
4.151191475293081
4.151191475293081
4.151191475293081
4.163500419623101
4.181963836118102
4.1758093639530935
4.163500419623101
4.163500419623101
4.163500419623101
4.169654891788083
4.163500419623101
4.169654891788083
4.163500419623101
4.169654891788083
4.169654891788083
4.181963836118102
4.1758093639530935
4.188118308283084
4.188118308283084
4.169654891788083
4.163500419623101
4.145037003128072
4.163500419623101
4.181963836118102
4.225045141273086
4.237354085603107
4.231199613438097
4.231199613438097
4.231199613438097
4.218890669108104
4.225045141273086
4.212736196943095
4.2065817247780855
4.188118308283084
4.181963836118102
4.1758093639530935
4.163500419623101
4.145037003128072
4.120419114468088
4.1327280587980795
4.145037003128072
4.138882530963089
4.12657358663307
4.120419114468088
4.101955697973087
4.108110170138069
4.101955697973087
4.108110170138069
4.108110170138069
4.101955697973087
4.095801225808079
4.114264642303079
4.1758093639530935
4.2681264464281
4.360443528903107
4.397370361893111
4.397370361893111
4.3173622237481215
4.212736196943095
4.120419114468088
4.028102031993082
3.9419394216830552
3.9357849495180455
3.9911751990030497
4.0465654484880815
4.108110170138069
4.120419114468088
4.108110170138069
4.108110170138069
4.12657358663307
4.12657358663307
4.12657358663307
4.138882530963089
4.12657358663307
4.12657358663307
4.12657358663307
4.138882530963089
4.145037003128072
4.138882530963089
4.145037003128072
4.181963836118102
4.1758093639530935
4.169654891788083
4.138882530963089
4.145037003128072
4.151191475293081
4.163500419623101
4.1758093639530935
4.188118308283084
4.188118308283084
4.188118308283084
4.1942727804480935
4.200427252613103
4.2065817247780855
4.218890669108104
4.225045141273086
4.231199613438097
4.231199613438097
4.237354085603107
4.249663029933098
4.249663029933098
4.249663029933098
4.249663029933098
4.2681264464281
4.27428091859311
4.27428091859311
4.280435390758093
4.2865898629231
4.2865898629231
4.292744335088111
4.305053279418103
4.305053279418103
4.3173622237481215
4.3112077515831135
4.3173622237481215
4.323516695913104
4.323516695913104
4.329671168078114
4.335825640243124
4.329671168078114
4.329671168078114
4.323516695913104
4.305053279418103
4.298898807253093
4.2865898629231
4.2681264464281
4.243508557768089
4.231199613438097
4.212736196943095
4.2065817247780855
4.1942727804480935
4.181963836118102
4.169654891788083
4.157345947458091
4.157345947458091
4.157345947458091
4.157345947458091
4.145037003128072
4.151191475293081
4.151191475293081
4.151191475293081
4.145037003128072
4.151191475293081
4.157345947458091
4.157345947458091
4.151191475293081
4.157345947458091
4.157345947458091
4.169654891788083
4.163500419623101
4.163500419623101
4.151191475293081
4.163500419623101
4.157345947458091
4.169654891788083
4.163500419623101
4.163500419623101
4.157345947458091
4.163500419623101
4.151191475293081
4.157345947458091
4.157345947458091
4.157345947458091
4.151191475293081
4.145037003128072
4.1327280587980795
4.138882530963089
4.145037003128072
4.151191475293081
4.138882530963089
4.138882530963089
4.1327280587980795
4.1327280587980795
4.1327280587980795
4.1327280587980795
4.1327280587980795
4.12657358663307
4.138882530963089
4.138882530963089
4.1327280587980795
4.12657358663307
4.12657358663307
4.138882530963089
4.138882530963089
4.145037003128072
4.145037003128072
4.145037003128072
4.151191475293081
4.151191475293081
4.151191475293081
4.157345947458091
4.145037003128072
4.145037003128072
4.157345947458091
4.157345947458091
4.163500419623101
4.163500419623101
4.169654891788083
4.163500419623101
4.169654891788083
4.163500419623101
4.1758093639530935
4.181963836118102
4.188118308283084
4.1942727804480935
4.1942727804480935
4.188118308283084
4.181963836118102
4.138882530963089
4.138882530963089
4.151191475293081
4.157345947458091
4.163500419623101
4.1758093639530935
4.1758093639530935
4.181963836118102
4.169654891788083
4.169654891788083
4.181963836118102
4.218890669108104
4.231199613438097
4.237354085603107
4.231199613438097
4.218890669108104
4.218890669108104
4.218890669108104
4.218890669108104
4.218890669108104
4.2065817247780855
4.2065817247780855
4.200427252613103
4.1942727804480935
4.1942727804480935
4.181963836118102
4.188118308283084
4.1942727804480935
4.212736196943095
4.2065817247780855
4.2065817247780855
4.2065817247780855
4.2065817247780855
4.2065817247780855
4.2065817247780855
4.2065817247780855
4.2065817247780855
4.2065817247780855
4.212736196943095
4.249663029933098
4.323516695913104
4.391215889728128
4.465069555708134
4.495841916533129
4.434297194883113
4.341980112408105
4.261971974263091
4.157345947458091
4.065028864983084
4.040410976323072
4.058874392818074
4.077337809313075
4.101955697973087
4.163500419623101
4.225045141273086
4.218890669108104
4.212736196943095
4.218890669108104
4.218890669108104
4.218890669108104
4.212736196943095
4.218890669108104
4.218890669108104
4.212736196943095
4.212736196943095
4.212736196943095
4.218890669108104
4.212736196943095
4.218890669108104
4.218890669108104
4.225045141273086
4.231199613438097
4.225045141273086
4.231199613438097
4.231199613438097
4.225045141273086
4.231199613438097
4.231199613438097
4.243508557768089
4.243508557768089
4.249663029933098
4.249663029933098
4.237354085603107
4.237354085603107
4.255817502098108
4.2681264464281
4.2681264464281
4.255817502098108
4.2681264464281
4.27428091859311
4.27428091859311
4.27428091859311
4.27428091859311
4.298898807253093
4.3173622237481215
4.3112077515831135
4.3173622237481215
4.323516695913104
4.323516695913104
4.329671168078114
4.329671168078114
4.323516695913104
4.292744335088111
4.298898807253093
4.3112077515831135
4.323516695913104
4.323516695913104
4.335825640243124
4.3173622237481215
4.3173622237481215
4.305053279418103
4.292744335088111
4.27428091859311
4.249663029933098
4.249663029933098
4.237354085603107
4.231199613438097
4.188118308283084
4.163500419623101
4.163500419623101
4.151191475293081
4.151191475293081
4.145037003128072
4.138882530963089
4.151191475293081
4.138882530963089
4.151191475293081
4.138882530963089
4.145037003128072
4.145037003128072
4.151191475293081
4.151191475293081
4.157345947458091
4.151191475293081
4.138882530963089
4.138882530963089
4.163500419623101
4.1758093639530935
4.181963836118102
4.1758093639530935
4.1758093639530935
4.181963836118102
4.181963836118102
4.181963836118102
4.181963836118102
4.1758093639530935
4.181963836118102
4.1758093639530935
4.181963836118102
4.188118308283084
4.188118308283084
4.188118308283084
4.181963836118102
4.1942727804480935
4.181963836118102
4.188118308283084
4.181963836118102
4.181963836118102
4.188118308283084
4.1942727804480935
4.188118308283084
4.181963836118102
4.188118308283084
4.181963836118102
4.181963836118102
4.1758093639530935
4.181963836118102
4.188118308283084
4.1758093639530935
4.169654891788083
4.1758093639530935
4.1758093639530935
4.169654891788083
4.169654891788083
