4.354289056738125
4.360443528903107
4.366598001068117
4.37890694539811
4.37890694539811
4.385061417563119
4.385061417563119
4.37890694539811
4.385061417563119
4.397370361893111
4.40352483405812
4.40967930622313
4.40352483405812
4.40967930622313
4.415833778388112
4.415833778388112
4.415833778388112
4.40352483405812
4.40967930622313
4.421988250553122
4.434297194883113
4.428142722718132
4.434297194883113
4.434297194883113
4.434297194883113
4.440451667048122
4.428142722718132
4.428142722718132
4.428142722718132
4.421988250553122
4.40967930622313
4.397370361893111
4.385061417563119
4.366598001068117
4.360443528903107
4.354289056738125
4.335825640243124
4.329671168078114
4.323516695913104
4.3173622237481215
4.3112077515831135
4.3112077515831135
4.298898807253093
4.298898807253093
4.298898807253093
4.298898807253093
4.292744335088111
4.2865898629231
4.292744335088111
4.2865898629231
4.292744335088111
4.292744335088111
4.292744335088111
4.292744335088111
4.292744335088111
4.298898807253093
4.298898807253093
4.305053279418103
4.292744335088111
4.298898807253093
4.305053279418103
4.305053279418103
4.305053279418103
4.305053279418103
4.305053279418103
4.305053279418103
4.298898807253093
4.305053279418103
4.298898807253093
4.298898807253093
4.305053279418103
4.3173622237481215
4.305053279418103
4.305053279418103
4.305053279418103
4.305053279418103
4.305053279418103
4.298898807253093
4.298898807253093
4.305053279418103
4.298898807253093
4.298898807253093
4.298898807253093
4.292744335088111
4.292744335088111
4.292744335088111
4.292744335088111
4.305053279418103
4.298898807253093
4.298898807253093
4.298898807253093
4.305053279418103
4.305053279418103
4.305053279418103
4.298898807253093
4.305053279418103
4.292744335088111
4.298898807253093
4.305053279418103
4.292744335088111
4.292744335088111
4.298898807253093
4.298898807253093
4.292744335088111
4.2865898629231
4.298898807253093
4.292744335088111
4.280435390758093
4.243508557768089
4.323516695913104
4.3173622237481215
4.280435390758093
4.249663029933098
4.2681264464281
4.27428091859311
4.27428091859311
4.292744335088111
4.2865898629231
4.292744335088111
4.292744335088111
4.2865898629231
4.2865898629231
4.292744335088111
4.298898807253093
4.292744335088111
4.305053279418103
4.305053279418103
4.292744335088111
4.298898807253093
4.298898807253093
4.298898807253093
4.292744335088111
4.292744335088111
4.292744335088111
4.298898807253093
4.298898807253093
4.292744335088111
4.292744335088111
4.298898807253093
4.298898807253093
4.305053279418103
4.3112077515831135
4.305053279418103
4.305053279418103
4.3173622237481215
4.335825640243124
4.348134584573115
4.360443528903107
4.354289056738125
4.348134584573115
4.341980112408105
4.329671168078114
4.329671168078114
4.329671168078114
4.329671168078114
4.323516695913104
4.3112077515831135
4.3112077515831135
4.298898807253093
4.292744335088111
4.292744335088111
4.298898807253093
4.298898807253093
4.292744335088111
4.298898807253093
4.305053279418103
4.298898807253093
4.298898807253093
4.298898807253093
4.298898807253093
4.292744335088111
4.298898807253093
4.3173622237481215
4.329671168078114
4.354289056738125
4.477378500038126
4.557386638183142
4.5943134711731455
4.575850054678144
4.483532972203136
4.385061417563119
4.298898807253093
4.181963836118102
4.138882530963089
4.145037003128072
4.181963836118102
4.231199613438097
4.2865898629231
4.298898807253093
4.305053279418103
4.305053279418103
4.305053279418103
4.305053279418103
4.305053279418103
4.298898807253093
4.298898807253093
4.292744335088111
4.298898807253093
4.298898807253093
4.298898807253093
4.305053279418103
4.298898807253093
4.305053279418103
4.3112077515831135
4.3112077515831135
4.3112077515831135
4.3173622237481215
4.3173622237481215
4.3112077515831135
4.329671168078114
4.329671168078114
4.329671168078114
4.323516695913104
4.3173622237481215
4.3173622237481215
4.323516695913104
4.329671168078114
4.323516695913104
4.335825640243124
4.335825640243124
4.341980112408105
4.329671168078114
4.341980112408105
4.341980112408105
4.341980112408105
4.348134584573115
4.354289056738125
4.354289056738125
4.360443528903107
4.348134584573115
4.335825640243124
4.397370361893111
4.397370361893111
4.391215889728128
4.397370361893111
4.397370361893111
4.366598001068117
4.341980112408105
4.3727524732331275
4.37890694539811
4.391215889728128
4.40352483405812
4.40352483405812
4.40967930622313
4.397370361893111
4.40352483405812
4.40352483405812
4.40967930622313
4.40352483405812
4.40967930622313
4.397370361893111
4.391215889728128
4.385061417563119
4.37890694539811
4.366598001068117
4.354289056738125
4.341980112408105
4.329671168078114
4.3112077515831135
4.298898807253093
4.280435390758093
4.2865898629231
4.27428091859311
4.261971974263091
4.261971974263091
4.255817502098108
4.255817502098108
4.255817502098108
4.255817502098108
4.255817502098108
4.255817502098108
4.249663029933098
4.243508557768089
4.243508557768089
4.255817502098108
4.243508557768089
4.249663029933098
4.255817502098108
4.255817502098108
4.249663029933098
4.255817502098108
4.255817502098108
4.261971974263091
4.255817502098108
4.261971974263091
4.2681264464281
4.2681264464281
4.2681264464281
4.2681264464281
4.2681264464281
4.261971974263091
4.261971974263091
4.261971974263091
4.261971974263091
4.27428091859311
4.2681264464281
4.280435390758093
4.280435390758093
4.280435390758093
4.27428091859311
4.2681264464281
4.27428091859311
4.27428091859311
4.280435390758093
4.2865898629231
4.2865898629231
4.2865898629231
4.280435390758093
4.2865898629231
4.280435390758093
4.280435390758093
4.27428091859311
4.2865898629231
4.2865898629231
4.27428091859311
4.27428091859311
4.280435390758093
4.280435390758093
4.2865898629231
4.280435390758093
4.280435390758093
4.2865898629231
4.280435390758093
4.280435390758093
4.280435390758093
4.280435390758093
4.2865898629231
4.2865898629231
4.298898807253093
4.292744335088111
4.298898807253093
4.292744335088111
4.292744335088111
4.292744335088111
4.298898807253093
4.298898807253093
4.298898807253093
4.298898807253093
4.298898807253093
4.305053279418103
4.305053279418103
4.3112077515831135
4.305053279418103
4.3112077515831135
4.3112077515831135
4.305053279418103
4.3112077515831135
4.3173622237481215
4.3112077515831135
4.305053279418103
4.305053279418103
4.298898807253093
4.27428091859311
4.3112077515831135
4.280435390758093
4.292744335088111
4.305053279418103
4.305053279418103
4.305053279418103
4.305053279418103
4.305053279418103
4.305053279418103
4.305053279418103
4.3112077515831135
4.3173622237481215
4.3112077515831135
4.3112077515831135
4.3173622237481215
4.323516695913104
4.329671168078114
4.323516695913104
4.305053279418103
4.3112077515831135
4.323516695913104
4.354289056738125
4.3727524732331275
4.366598001068117
4.348134584573115
4.354289056738125
4.341980112408105
4.348134584573115
4.341980112408105
4.341980112408105
4.335825640243124
4.323516695913104
4.3173622237481215
4.3112077515831135
4.3112077515831135
4.3112077515831135
4.3112077515831135
4.3112077515831135
4.305053279418103
4.323516695913104
4.305053279418103
4.298898807253093
4.305053279418103
4.305053279418103
4.305053279418103
4.3112077515831135
4.305053279418103
4.305053279418103
4.3173622237481215
4.341980112408105
4.391215889728128
4.465069555708134
4.54507769385315
4.588158999008135
4.5820045268431535
4.495841916533129
4.385061417563119
4.305053279418103
4.231199613438097
4.169654891788083
4.151191475293081
4.188118308283084
4.231199613438097
4.280435390758093
4.305053279418103
4.305053279418103
4.305053279418103
4.3112077515831135
4.305053279418103
4.3112077515831135
4.305053279418103
4.305053279418103
4.3112077515831135
4.305053279418103
4.305053279418103
4.3173622237481215
4.3112077515831135
4.3112077515831135
4.3112077515831135
4.305053279418103
4.3173622237481215
4.323516695913104
4.323516695913104
4.323516695913104
4.323516695913104
4.329671168078114
4.329671168078114
4.335825640243124
4.341980112408105
4.335825640243124
4.335825640243124
4.335825640243124
4.335825640243124
4.341980112408105
4.348134584573115
4.341980112408105
4.348134584573115
4.348134584573115
4.348134584573115
4.366598001068117
4.3727524732331275
4.360443528903107
4.366598001068117
4.3727524732331275
4.3727524732331275
4.3727524732331275
4.37890694539811
4.37890694539811
4.391215889728128
4.391215889728128
4.391215889728128
4.397370361893111
4.40352483405812
4.391215889728128
4.391215889728128
4.40352483405812
4.40967930622313
4.421988250553122
4.415833778388112
4.434297194883113
4.421988250553122
4.40352483405812
4.446606139213133
4.452760611378115
4.440451667048122
4.428142722718132
4.385061417563119
4.40352483405812
4.397370361893111
4.397370361893111
4.37890694539811
4.3727524732331275
4.360443528903107
4.305053279418103
4.292744335088111
4.360443528903107
4.348134584573115
4.323516695913104
4.3112077515831135
4.298898807253093
4.298898807253093
4.243508557768089
4.231199613438097
4.261971974263091
4.261971974263091
4.27428091859311
4.2681264464281
4.27428091859311
4.27428091859311
4.2681264464281
4.27428091859311
4.280435390758093
4.27428091859311
4.27428091859311
4.27428091859311
4.280435390758093
4.280435390758093
4.280435390758093
4.27428091859311
4.280435390758093
4.27428091859311
4.280435390758093
4.27428091859311
4.2865898629231
4.27428091859311
4.27428091859311
4.280435390758093
4.2865898629231
4.2865898629231
4.292744335088111
4.2865898629231
4.292744335088111
4.280435390758093
4.2865898629231
4.2865898629231
4.2865898629231
4.2865898629231
4.2865898629231
4.2865898629231
4.2865898629231
4.27428091859311
4.27428091859311
4.280435390758093
4.27428091859311
4.280435390758093
4.27428091859311
4.27428091859311
4.280435390758093
4.2681264464281
4.27428091859311
4.27428091859311
4.280435390758093
4.27428091859311
4.280435390758093
4.27428091859311
4.2681264464281
4.27428091859311
4.27428091859311
4.2865898629231
4.27428091859311
4.27428091859311
4.280435390758093
4.280435390758093
4.2681264464281
4.2681264464281
4.27428091859311
4.27428091859311
4.2865898629231
4.27428091859311
4.27428091859311
4.280435390758093
4.2681264464281
4.2681264464281
4.2681264464281
4.280435390758093
4.280435390758093
4.2865898629231
4.2865898629231
4.2865898629231
4.280435390758093
4.280435390758093
4.280435390758093
4.280435390758093
4.280435390758093
4.280435390758093
4.280435390758093
4.280435390758093
4.280435390758093
4.27428091859311
4.280435390758093
4.280435390758093
4.280435390758093
4.2865898629231
4.280435390758093
4.280435390758093
4.280435390758093
4.2865898629231
4.2865898629231
4.280435390758093
4.2865898629231
4.292744335088111
4.292744335088111
4.27428091859311
4.218890669108104
4.3173622237481215
4.323516695913104
4.3173622237481215
4.3173622237481215
4.3173622237481215
4.3173622237481215
4.280435390758093
4.255817502098108
4.2865898629231
4.3173622237481215
4.341980112408105
4.341980112408105
4.335825640243124
4.323516695913104
4.3173622237481215
4.3112077515831135
4.305053279418103
4.3112077515831135
4.305053279418103
4.2865898629231
4.2865898629231
4.2865898629231
4.27428091859311
4.280435390758093
4.292744335088111
4.2865898629231
4.298898807253093
4.298898807253093
4.298898807253093
4.292744335088111
4.298898807253093
4.292744335088111
4.2865898629231
4.292744335088111
4.292744335088111
4.305053279418103
4.305053279418103
4.329671168078114
4.397370361893111
4.477378500038126
4.54507769385315
4.5943134711731455
4.5943134711731455
4.501996388698137
4.40352483405812
4.329671168078114
4.243508557768089
4.163500419623101
4.151191475293081
4.188118308283084
4.225045141273086
4.261971974263091
4.305053279418103
4.3112077515831135
4.305053279418103
4.305053279418103
4.3112077515831135
4.2681264464281
3.4926629536379816
2.003280689707787
1.1293456422776516
0.5815976195925888
0.18155692886753785
-0.08308537422752059
-0.30464637216753854
-0.4892805371175811
-0.6308333969125834
-0.7416138958825924
-0.8339309783576276
-0.9139391165026156
-0.9631748938226381
-1.000101726812641
-1.0370285598026439
-1.0616464484626553
-1.0862643371226666
-1.0862643371226666
-1.0924188092876486
-1.0924188092876486
-1.073955392792647
-1.0678009206276373
-1.0431830319676536
-1.0247196154726523
-0.9939472546476313
-0.9631748938226381
-0.9139391165026156
-0.901630172172624
-0.8708578113476306
-0.8154675618626261
-0.7723862567076134
-0.7354594237176102
-0.6800691742326057
-0.6246789247476012
-0.5815976195925888
-0.5323618422725662
-0.4831260649525715
-0.433890287632549
-0.390808982477564
-0.34772767732255133
-0.30464637216753854
-0.26771953917753555
-0.2246382340225228
-0.17540245670252808
-0.12001220721752358
-0.07693090206251085
-0.02769512474251612
0.003077236082504875
0.05846748556750937
0.1015487907225221
0.1384756237125251
0.18155692886753785
0.21848376185754081
0.26771953917753555
0.3108008443325483
0.3538821494875609
0.390808982477564
0.4092723989725655
0.44619923196256844
0.4831260649525715
0.5077439536125827
0.538516314437576
0.5508252587675677
0.5631342030975872
0.6431423412426027
0.6862236463975879
0.7785407288726233
1.2462806134126705
2.581801073217871
5.554411128913278
8.26853335367872
8.736273238218766
8.705500877393774
8.656265100073778
8.600874850588747
8.53933012893876
8.471630935123736
8.410086213473722
8.342387019658727
8.280842298008713
8.213143104193716
8.145443910378692
8.077744716563695
8.016199994913679
7.960809745428676
7.893110551613653
7.837720302128648
7.782330052643643
7.72078533099363
7.653086137178633
7.60385035985861
7.573077999033617
7.523842221713595
7.4807609165586095
7.4315251392385875
7.376134889753583
7.33305358459857
7.289972279443584
7.240736502123562
7.20380966913356
7.160728363978547
7.117647058823563
7.080720225833531
7.037638920678545
7.006866559853525
6.96378525469854
6.914549477378518
6.883777116553524
6.853004755728503
6.82223239490351
6.797614506243499
6.766842145418507
6.729915312428503
6.6868340072734895
6.649907174283487
6.612980341293484
6.576053508303481
6.539126675313478
6.508354314488457
6.477581953663464
6.440655120673461
6.41603723201345
6.379110399023446
6.342183566033444
6.299102260878375
6.274484372218392
6.25602095572339
6.2252485948983685
6.194476234073376
6.169858345413365
6.145240456753354
6.114468095928361
6.077541262938357
6.052923374278346
6.028305485618365
6.0036875969583505
5.966760763968348
5.935988403143328
5.905216042318334
5.892907097988342
5.868289209328331
5.84367132066832
5.81905343200831
5.788281071183316
5.7328908216983105
5.769817654688314
5.751354238193313
5.726736349533301
5.695963988708308
5.683655044378289
5.6590371557183055
5.622110322728302
5.554411128913278
5.554411128913278
5.554411128913278
5.548256656748296
5.529793240253267
5.505175351593283
5.492866407263264
5.474402990768261
5.449785102108279
5.443630629943269
5.431321685613277
5.419012741283257
5.412858269118276
5.394394852623274
5.369776963963263
5.357468019633243
5.357468019633243
5.363622491798253
5.369776963963263
5.351313547468262
5.326695658808251
5.302077770148239
5.283614353653239
5.277459881488257
5.265150937158236
5.252841992828244
5.246687520663237
5.2405330484982535
5.203606215508222
5.172833854683229
5.172833854683229
5.154370438188227
5.123598077363234
5.086671244373231
5.135907021693225
5.117443605198224
5.098980188703223
5.092825716538213
5.0743623000432105
5.012817578393197
5.000508634063205
4.994354161898196
5.000508634063205
4.9881996897332135
5.000508634063205
5.006663106228215
5.037435467053208
5.098980188703223
5.166679382518219
5.21591515983824
5.228224104168233
5.166679382518219
5.05589888354821
4.975890745403193
4.877419190763177
4.7912565804531795
4.735866330968175
4.735866330968175
4.778947636123188
4.809719996948181
4.840492357773174
4.858955774268176
4.8528013021031935
4.834337885608192
4.828183413443182
4.822028941278172
4.822028941278172
4.822028941278172
4.822028941278172
4.809719996948181
4.797411052618189
4.797411052618189
4.7912565804531795
4.785102108288171
4.785102108288171
4.785102108288171
4.778947636123188
4.772793163958178
4.760484219628157
4.760484219628157
4.760484219628157
4.7420208031331565
4.7420208031331565
4.7420208031331565
4.735866330968175
4.7297118588031655
4.723557386638154
4.717402914473172
4.723557386638154
4.723557386638154
4.711248442308165
4.717402914473172
4.717402914473172
4.705093970143154
4.705093970143154
4.705093970143154
4.698939497978172
4.698939497978172
4.692785025813162
4.692785025813162
4.692785025813162
4.686630553648152
4.686630553648152
4.686630553648152
4.698939497978172
4.698939497978172
4.692785025813162
4.692785025813162
4.692785025813162
4.686630553648152
4.692785025813162
4.692785025813162
4.698939497978172
4.686630553648152
4.686630553648152
4.686630553648152
4.68047608148317
4.668167137153151
4.67432160931816
4.68047608148317
4.67432160931816
4.668167137153151
4.662012664988168
4.649703720658149
4.637394776328158
4.625085831998166
4.612776887668146
4.6004679433381535
4.575850054678144
4.557386638183142
4.557386638183142
4.54507769385315
4.520459805193139
4.514305333028129
4.495841916533129
4.483532972203136
4.477378500038126
4.471224027873144
4.465069555708134
4.458915083543125
4.458915083543125
4.440451667048122
4.446606139213133
4.452760611378115
4.452760611378115
4.446606139213133
4.446606139213133
4.440451667048122
4.434297194883113
4.452760611378115
4.452760611378115
4.446606139213133
4.440451667048122
4.440451667048122
4.421988250553122
4.366598001068117
4.40352483405812
4.40967930622313
4.415833778388112
4.415833778388112
4.415833778388112
4.421988250553122
4.421988250553122
4.40967930622313
4.40352483405812
4.40352483405812
4.40967930622313
4.40967930622313
4.415833778388112
4.40967930622313
4.40352483405812
4.397370361893111
4.391215889728128
4.391215889728128
4.397370361893111
4.40967930622313
4.40967930622313
4.40352483405812
4.397370361893111
4.385061417563119
4.397370361893111
4.40352483405812
4.40352483405812
4.391215889728128
4.397370361893111
4.391215889728128
4.391215889728128
4.37890694539811
4.385061417563119
4.385061417563119
4.385061417563119
4.37890694539811
4.385061417563119
4.3727524732331275
4.3727524732331275
4.37890694539811
4.3727524732331275
4.366598001068117
4.3727524732331275
4.3727524732331275
4.385061417563119
4.3727524732331275
4.360443528903107
4.3727524732331275
4.37890694539811
4.3727524732331275
4.360443528903107
4.360443528903107
4.366598001068117
4.360443528903107
4.354289056738125
4.348134584573115
4.348134584573115
4.348134584573115
4.348134584573115
4.354289056738125
4.366598001068117
4.354289056738125
4.335825640243124
4.348134584573115
4.354289056738125
4.360443528903107
4.360443528903107
4.360443528903107
4.354289056738125
4.354289056738125
4.348134584573115
4.341980112408105
4.354289056738125
4.354289056738125
4.354289056738125
4.354289056738125
4.360443528903107
4.360443528903107
4.348134584573115
4.354289056738125
4.348134584573115
4.354289056738125
4.348134584573115
4.354289056738125
4.348134584573115
4.348134584573115
4.348134584573115
4.354289056738125
4.360443528903107
4.354289056738125
4.360443528903107
4.354289056738125
4.360443528903107
4.366598001068117
4.385061417563119
4.40352483405812
4.40352483405812
4.40352483405812
4.385061417563119
4.37890694539811
4.37890694539811
4.37890694539811
4.3727524732331275
4.3727524732331275
4.360443528903107
4.341980112408105
4.335825640243124
4.323516695913104
4.323516695913104
4.3173622237481215
4.323516695913104
4.323516695913104
4.329671168078114
4.323516695913104
4.335825640243124
4.329671168078114
4.335825640243124
4.329671168078114
4.335825640243124
4.341980112408105
4.329671168078114
4.298898807253093
4.3727524732331275
4.40352483405812
4.446606139213133
4.483532972203136
4.575850054678144
4.631240304163148
4.618931359833156
4.520459805193139
4.415833778388112
4.335825640243124
4.249663029933098
4.1758093639530935
4.163500419623101
4.2065817247780855
4.249663029933098
4.298898807253093
4.323516695913104
4.323516695913104
4.329671168078114
4.323516695913104
4.329671168078114
4.323516695913104
4.335825640243124
4.329671168078114
4.335825640243124
4.341980112408105
4.298898807253093
4.3112077515831135
4.391215889728128
4.3727524732331275
4.3727524732331275
4.360443528903107
4.366598001068117
4.360443528903107
4.3173622237481215
4.3173622237481215
4.329671168078114
4.341980112408105
4.348134584573115
4.348134584573115
4.348134584573115
4.348134584573115
4.348134584573115
4.348134584573115
4.354289056738125
4.360443528903107
4.354289056738125
4.360443528903107
4.354289056738125
4.360443528903107
4.354289056738125
4.366598001068117
4.360443528903107
4.360443528903107
4.366598001068117
4.366598001068117
4.37890694539811
4.37890694539811
4.385061417563119
4.391215889728128
4.391215889728128
4.397370361893111
4.40352483405812
4.415833778388112
4.421988250553122
4.40967930622313
4.421988250553122
4.421988250553122
4.428142722718132
4.440451667048122
4.440451667048122
4.434297194883113
4.446606139213133
4.434297194883113
4.446606139213133
4.446606139213133
4.440451667048122
4.440451667048122
4.421988250553122
4.421988250553122
4.40967930622313
4.391215889728128
4.385061417563119
4.366598001068117
4.360443528903107
4.348134584573115
4.335825640243124
4.3173622237481215
4.305053279418103
4.298898807253093
4.305053279418103
4.292744335088111
4.27428091859311
4.27428091859311
4.2681264464281
4.27428091859311
4.261971974263091
4.261971974263091
4.255817502098108
4.261971974263091
4.261971974263091
4.249663029933098
4.249663029933098
4.255817502098108
4.249663029933098
4.255817502098108
4.255817502098108
4.2681264464281
4.2681264464281
4.27428091859311
4.2681264464281
4.2681264464281
4.27428091859311
4.27428091859311
4.27428091859311
4.27428091859311
4.261971974263091
4.2681264464281
4.2681264464281
4.2681264464281
4.249663029933098
4.218890669108104
4.298898807253093
4.292744335088111
4.292744335088111
4.2865898629231
4.292744335088111
4.27428091859311
4.231199613438097
4.243508557768089
4.255817502098108
4.2681264464281
4.27428091859311
4.2681264464281
4.27428091859311
4.261971974263091
4.2681264464281
4.27428091859311
4.27428091859311
4.280435390758093
4.2681264464281
4.2681264464281
4.2681264464281
4.2681264464281
4.2681264464281
4.261971974263091
4.2681264464281
4.27428091859311
4.27428091859311
4.27428091859311
4.261971974263091
4.261971974263091
4.261971974263091
4.261971974263091
4.249663029933098
4.249663029933098
4.243508557768089
4.249663029933098
4.249663029933098
4.243508557768089
4.249663029933098
4.243508557768089
4.249663029933098
4.249663029933098
4.243508557768089
4.243508557768089
4.237354085603107
4.231199613438097
4.243508557768089
4.243508557768089
4.249663029933098
4.249663029933098
4.249663029933098
4.255817502098108
4.2681264464281
4.243508557768089
4.231199613438097
4.243508557768089
4.249663029933098
4.255817502098108
4.255817502098108
4.255817502098108
4.255817502098108
4.249663029933098
4.255817502098108
4.261971974263091
4.261971974263091
4.255817502098108
4.255817502098108
4.255817502098108
4.255817502098108
4.249663029933098
4.249663029933098
4.261971974263091
4.261971974263091
4.261971974263091
4.280435390758093
4.280435390758093
4.2681264464281
4.27428091859311
4.27428091859311
4.2865898629231
4.3112077515831135
4.329671168078114
4.3173622237481215
4.298898807253093
4.292744335088111
4.292744335088111
4.298898807253093
4.292744335088111
4.2865898629231
4.280435390758093
4.27428091859311
4.255817502098108
4.255817502098108
4.2681264464281
4.261971974263091
4.255817502098108
4.255817502098108
4.261971974263091
4.255817502098108
4.255817502098108
4.255817502098108
4.255817502098108
4.2681264464281
4.27428091859311
4.2681264464281
4.2681264464281
4.27428091859311
4.292744335088111
4.341980112408105
4.415833778388112
4.495841916533129
4.54507769385315
4.538923221688139
4.471224027873144
4.3727524732331275
4.292744335088111
4.218890669108104
4.1327280587980795
4.114264642303079
4.138882530963089
4.163500419623101
4.157345947458091
4.261971974263091
4.237354085603107
4.249663029933098
4.2681264464281
4.2681264464281
4.280435390758093
4.280435390758093
4.280435390758093
4.27428091859311
4.2681264464281
4.27428091859311
4.27428091859311
4.27428091859311
4.280435390758093
4.2865898629231
4.292744335088111
4.2865898629231
4.292744335088111
4.292744335088111
4.298898807253093
4.298898807253093
4.298898807253093
4.3112077515831135
4.3112077515831135
4.305053279418103
4.3173622237481215
4.3112077515831135
4.3173622237481215
4.323516695913104
4.3173622237481215
4.3173622237481215
4.329671168078114
4.329671168078114
4.335825640243124
4.329671168078114
4.341980112408105
4.341980112408105
4.341980112408105
4.341980112408105
4.348134584573115
4.354289056738125
4.354289056738125
4.360443528903107
4.3727524732331275
4.3727524732331275
4.385061417563119
4.385061417563119
4.391215889728128
4.397370361893111
4.397370361893111
4.40967930622313
4.40352483405812
4.415833778388112
4.421988250553122
4.428142722718132
4.421988250553122
4.428142722718132
4.434297194883113
4.434297194883113
4.434297194883113
4.440451667048122
4.428142722718132
4.434297194883113
4.434297194883113
4.428142722718132
4.428142722718132
4.415833778388112
4.415833778388112
4.397370361893111
4.385061417563119
4.37890694539811
4.3727524732331275
4.354289056738125
4.348134584573115
4.348134584573115
4.329671168078114
4.323516695913104
4.323516695913104
4.3112077515831135
4.298898807253093
4.298898807253093
4.305053279418103
4.298898807253093
4.305053279418103
4.292744335088111
4.305053279418103
4.298898807253093
4.27428091859311
4.280435390758093
4.280435390758093
4.2865898629231
4.292744335088111
4.280435390758093
4.27428091859311
4.255817502098108
4.2065817247780855
4.292744335088111
4.298898807253093
4.2865898629231
4.2865898629231
4.280435390758093
4.2865898629231
4.255817502098108
4.225045141273086
4.231199613438097
4.249663029933098
4.2681264464281
4.2681264464281
4.280435390758093
4.2865898629231
4.292744335088111
4.292744335088111
4.305053279418103
4.323516695913104
4.329671168078114
4.335825640243124
4.348134584573115
4.341980112408105
4.341980112408105
4.341980112408105
4.329671168078114
4.292744335088111
4.366598001068117
4.360443528903107
4.348134584573115
4.335825640243124
4.2865898629231
4.292744335088111
4.3112077515831135
4.3112077515831135
4.323516695913104
4.335825640243124
4.329671168078114
4.329671168078114
4.323516695913104
4.323516695913104
4.329671168078114
4.323516695913104
4.3173622237481215
4.323516695913104
4.3173622237481215
4.3112077515831135
4.3173622237481215
4.323516695913104
4.3112077515831135
4.305053279418103
4.3173622237481215
4.3173622237481215
4.3173622237481215
4.3173622237481215
4.323516695913104
4.323516695913104
4.3173622237481215
4.323516695913104
4.323516695913104
4.3173622237481215
4.3173622237481215
4.323516695913104
4.3112077515831135
4.3173622237481215
4.3173622237481215
4.323516695913104
4.3173622237481215
4.3173622237481215
4.323516695913104
4.3112077515831135
4.3112077515831135
4.3173622237481215
4.3173622237481215
4.3112077515831135
4.3112077515831135
4.3173622237481215
4.3173622237481215
4.329671168078114
4.329671168078114
4.335825640243124
4.335825640243124
4.329671168078114
4.341980112408105
4.348134584573115
4.3727524732331275
4.3727524732331275
4.3727524732331275
4.360443528903107
4.354289056738125
4.366598001068117
4.354289056738125
4.354289056738125
4.341980112408105
4.341980112408105
4.323516695913104
4.323516695913104
4.3173622237481215
4.298898807253093
4.298898807253093
4.3112077515831135
4.3173622237481215
4.3112077515831135
4.305053279418103
4.3173622237481215
4.3112077515831135
4.305053279418103
4.305053279418103
4.3112077515831135
4.305053279418103
4.3112077515831135
4.305053279418103
4.3173622237481215
4.348134584573115
4.40967930622313
4.477378500038126
4.538923221688139
4.551232166018132
4.52661427735815
4.434297194883113
4.354289056738125
4.2865898629231
4.231199613438097
4.1758093639530935
4.188118308283084
4.225045141273086
4.249663029933098
4.292744335088111
4.3112077515831135
4.3112077515831135
4.3112077515831135
4.323516695913104
4.329671168078114
4.323516695913104
4.323516695913104
4.3173622237481215
4.3173622237481215
4.3173622237481215
4.3112077515831135
4.3173622237481215
4.3173622237481215
4.3112077515831135
4.3173622237481215
4.3173622237481215
4.305053279418103
4.292744335088111
4.298898807253093
4.292744335088111
4.255817502098108
4.335825640243124
4.341980112408105
4.329671168078114
4.335825640243124
4.341980112408105
4.329671168078114
4.323516695913104
4.2865898629231
4.292744335088111
4.3173622237481215
4.323516695913104
4.323516695913104
4.329671168078114
4.341980112408105
4.335825640243124
4.329671168078114
4.341980112408105
4.341980112408105
4.348134584573115
4.354289056738125
4.366598001068117
4.3727524732331275
4.360443528903107
4.360443528903107
4.366598001068117
4.3727524732331275
4.385061417563119
4.391215889728128
4.397370361893111
4.40967930622313
4.397370361893111
4.40967930622313
4.415833778388112
4.415833778388112
4.415833778388112
4.421988250553122
4.421988250553122
4.428142722718132
4.421988250553122
4.415833778388112
4.421988250553122
4.415833778388112
4.40967930622313
4.397370361893111
4.37890694539811
4.3727524732331275
4.348134584573115
4.341980112408105
4.329671168078114
4.329671168078114
4.323516695913104
4.3112077515831135
4.298898807253093
4.298898807253093
4.2865898629231
4.27428091859311
4.27428091859311
4.2681264464281
4.261971974263091
4.255817502098108
4.261971974263091
4.255817502098108
4.249663029933098
4.255817502098108
4.249663029933098
4.255817502098108
4.261971974263091
4.2681264464281
4.261971974263091
4.255817502098108
4.255817502098108
4.261971974263091
4.27428091859311
4.2681264464281
4.27428091859311
4.280435390758093
4.27428091859311
4.2865898629231
4.2865898629231
4.2865898629231
4.280435390758093
4.2865898629231
4.280435390758093
4.2865898629231
4.2865898629231
4.2865898629231
4.2865898629231
4.280435390758093
4.280435390758093
4.2865898629231
4.2865898629231
4.280435390758093
4.280435390758093
4.27428091859311
4.2865898629231
4.292744335088111
4.280435390758093
4.2865898629231
4.280435390758093
4.292744335088111
4.292744335088111
4.280435390758093
4.2865898629231
4.2865898629231
4.2865898629231
4.292744335088111
4.2865898629231
4.292744335088111
4.2865898629231
4.280435390758093
4.2865898629231
4.292744335088111
4.292744335088111
4.298898807253093
4.2865898629231
4.292744335088111
4.292744335088111
4.298898807253093
4.298898807253093
4.292744335088111
4.2865898629231
4.261971974263091
4.3173622237481215
4.305053279418103
4.261971974263091
4.255817502098108
4.27428091859311
4.280435390758093
4.2865898629231
4.292744335088111
4.292744335088111
4.292744335088111
4.298898807253093
4.298898807253093
4.292744335088111
4.2865898629231
4.292744335088111
4.292744335088111
4.298898807253093
4.298898807253093
4.298898807253093
4.292744335088111
4.305053279418103
4.298898807253093
4.298898807253093
4.305053279418103
4.305053279418103
4.305053279418103
4.305053279418103
4.3112077515831135
4.305053279418103
4.3112077515831135
4.3173622237481215
4.3112077515831135
4.323516695913104
4.323516695913104
4.329671168078114
4.323516695913104
4.3173622237481215
4.3112077515831135
4.323516695913104
4.341980112408105
4.360443528903107
4.3112077515831135
4.354289056738125
4.391215889728128
4.366598001068117
4.360443528903107
4.348134584573115
4.348134584573115
4.335825640243124
4.280435390758093
4.2681264464281
4.2865898629231
4.292744335088111
4.292744335088111
4.292744335088111
4.292744335088111
4.2865898629231
4.2865898629231
4.292744335088111
4.298898807253093
4.292744335088111
4.298898807253093
4.298898807253093
4.298898807253093
4.292744335088111
4.292744335088111
4.298898807253093
4.323516695913104
4.360443528903107
4.434297194883113
4.508150860863147
4.551232166018132
4.557386638183142
4.508150860863147
4.40352483405812
4.3173622237481215
4.243508557768089
4.181963836118102
4.145037003128072
4.1758093639530935
4.218890669108104
4.2681264464281
4.298898807253093
4.298898807253093
4.305053279418103
4.298898807253093
4.298898807253093
4.298898807253093
4.292744335088111
4.298898807253093
4.3112077515831135
4.3173622237481215
4.3112077515831135
4.298898807253093
4.305053279418103
4.3112077515831135
4.305053279418103
4.3173622237481215
4.3173622237481215
4.323516695913104
4.323516695913104
4.329671168078114
4.335825640243124
4.329671168078114
4.3173622237481215
4.335825640243124
4.335825640243124
4.335825640243124
4.341980112408105
4.341980112408105
4.335825640243124
4.335825640243124
4.341980112408105
4.335825640243124
4.341980112408105
4.348134584573115
4.341980112408105
4.348134584573115
4.348134584573115
4.354289056738125
4.341980112408105
4.3112077515831135
4.37890694539811
4.385061417563119
4.3727524732331275
4.3727524732331275
4.3727524732331275
4.335825640243124
4.354289056738125
4.366598001068117
4.37890694539811
4.37890694539811
4.385061417563119
4.40352483405812
4.40352483405812
4.415833778388112
4.415833778388112
4.421988250553122
4.415833778388112
4.421988250553122
4.434297194883113
4.421988250553122
4.458915083543125
4.440451667048122
4.40352483405812
4.40352483405812
4.40967930622313
4.391215889728128
4.37890694539811
4.366598001068117
4.354289056738125
4.341980112408105
4.335825640243124
4.329671168078114
4.323516695913104
4.305053279418103
4.3112077515831135
4.305053279418103
4.298898807253093
4.2865898629231
4.2865898629231
4.2865898629231
4.2865898629231
4.2865898629231
4.27428091859311
4.2681264464281
4.27428091859311
4.27428091859311
4.2681264464281
4.27428091859311
4.27428091859311
4.280435390758093
4.2865898629231
4.280435390758093
4.280435390758093
4.280435390758093
4.280435390758093
4.280435390758093
4.280435390758093
4.280435390758093
4.2865898629231
4.2865898629231
4.298898807253093
4.292744335088111
4.292744335088111
4.305053279418103
4.292744335088111
4.298898807253093
4.298898807253093
4.292744335088111
4.292744335088111
4.292744335088111
4.292744335088111
4.298898807253093
4.298898807253093
4.305053279418103
4.298898807253093
4.2865898629231
4.298898807253093
4.298898807253093
4.3112077515831135
4.3112077515831135
4.3112077515831135
4.3112077515831135
4.298898807253093
4.298898807253093
4.298898807253093
4.292744335088111
4.298898807253093
4.298898807253093
4.305053279418103
4.298898807253093
4.298898807253093
4.292744335088111
4.2865898629231
4.298898807253093
4.298898807253093
4.298898807253093
4.305053279418103
4.305053279418103
4.305053279418103
4.298898807253093
4.298898807253093
4.298898807253093
4.292744335088111
4.305053279418103
4.298898807253093
4.292744335088111
4.298898807253093
4.292744335088111
4.2865898629231
4.2865898629231
4.298898807253093
4.298898807253093
4.298898807253093
4.305053279418103
4.292744335088111
4.292744335088111
4.298898807253093
4.298898807253093
4.292744335088111
4.2865898629231
4.280435390758093
4.261971974263091
4.292744335088111
4.280435390758093
4.298898807253093
4.3112077515831135
4.298898807253093
4.3112077515831135
4.323516695913104
4.348134584573115
4.348134584573115
4.360443528903107
4.348134584573115
4.341980112408105
4.335825640243124
4.329671168078114
4.323516695913104
4.329671168078114
4.305053279418103
4.298898807253093
4.292744335088111
4.298898807253093
4.2865898629231
4.292744335088111
4.292744335088111
4.292744335088111
4.292744335088111
4.298898807253093
4.292744335088111
4.292744335088111
4.292744335088111
4.292744335088111
4.292744335088111
4.2865898629231
4.2865898629231
4.305053279418103
4.323516695913104
4.366598001068117
4.446606139213133
4.520459805193139
4.575850054678144
4.5943134711731455
4.52661427735815
4.40967930622313
4.3173622237481215
4.231199613438097
4.169654891788083
4.138882530963089
4.163500419623101
4.212736196943095
4.2681264464281
4.298898807253093
4.3173622237481215
4.305053279418103
4.3112077515831135
4.3112077515831135
4.305053279418103
4.305053279418103
4.305053279418103
4.3112077515831135
4.298898807253093
4.305053279418103
4.3112077515831135
4.3112077515831135
4.3112077515831135
4.329671168078114
4.335825640243124
4.335825640243124
4.329671168078114
4.329671168078114
4.335825640243124
4.329671168078114
4.329671168078114
4.323516695913104
4.335825640243124
4.329671168078114
4.329671168078114
4.335825640243124
4.341980112408105
4.348134584573115
4.354289056738125
4.341980112408105
4.341980112408105
4.354289056738125
4.348134584573115
4.360443528903107
4.354289056738125
4.360443528903107
4.366598001068117
4.37890694539811
4.3727524732331275
4.366598001068117
4.3727524732331275
4.391215889728128
4.40352483405812
4.397370361893111
4.40352483405812
4.40967930622313
4.40967930622313
4.40967930622313
4.421988250553122
4.421988250553122
4.428142722718132
4.421988250553122
4.434297194883113
4.440451667048122
4.446606139213133
4.446606139213133
4.465069555708134
4.465069555708134
4.458915083543125
4.434297194883113
4.40352483405812
4.477378500038126
4.465069555708134
4.440451667048122
4.428142722718132
4.421988250553122
4.397370361893111
4.366598001068117
4.323516695913104
4.329671168078114
4.305053279418103
4.280435390758093
4.341980112408105
4.335825640243124
4.3173622237481215
4.27428091859311
4.261971974263091
4.27428091859311
4.280435390758093
4.2865898629231
4.2865898629231
4.292744335088111
4.298898807253093
4.292744335088111
4.292744335088111
4.292744335088111
4.298898807253093
4.305053279418103
4.298898807253093
4.298898807253093
4.305053279418103
4.298898807253093
4.298898807253093
4.305053279418103
4.298898807253093
4.298898807253093
4.298898807253093
4.3112077515831135
4.305053279418103
4.298898807253093
4.3112077515831135
4.3173622237481215
4.3173622237481215
4.3112077515831135
4.3112077515831135
4.323516695913104
4.3112077515831135
4.3173622237481215
4.3173622237481215
4.323516695913104
4.3173622237481215
4.329671168078114
4.3173622237481215
4.3173622237481215
4.3173622237481215
4.323516695913104
4.3173622237481215
4.323516695913104
4.3173622237481215
4.3173622237481215
4.329671168078114
4.329671168078114
4.323516695913104
4.323516695913104
4.3173622237481215
4.323516695913104
4.323516695913104
4.3173622237481215
4.3173622237481215
4.3173622237481215
4.3173622237481215
4.323516695913104
4.3173622237481215
4.323516695913104
4.323516695913104
4.323516695913104
4.323516695913104
4.3173622237481215
4.3173622237481215
4.323516695913104
4.3173622237481215
4.3173622237481215
4.3112077515831135
4.3173622237481215
4.3173622237481215
4.3112077515831135
4.3112077515831135
4.3112077515831135
4.3112077515831135
4.3112077515831135
4.3112077515831135
4.305053279418103
4.3173622237481215
4.3173622237481215
4.335825640243124
4.335825640243124
4.335825640243124
4.3173622237481215
4.323516695913104
4.341980112408105
4.360443528903107
4.3727524732331275
4.3727524732331275
4.360443528903107
4.360443528903107
4.366598001068117
4.360443528903107
4.354289056738125
4.341980112408105
4.323516695913104
4.3173622237481215
4.3112077515831135
4.3173622237481215
4.3112077515831135
4.3112077515831135
4.298898807253093
4.305053279418103
4.292744335088111
4.305053279418103
4.305053279418103
4.305053279418103
4.305053279418103
4.298898807253093
4.305053279418103
4.292744335088111
4.298898807253093
4.305053279418103
4.3173622237481215
4.366598001068117
4.440451667048122
4.520459805193139
4.6004679433381535
4.612776887668146
4.551232166018132
4.489687444368147
4.385061417563119
4.2865898629231
4.1942727804480935
4.151191475293081
4.151191475293081
4.163500419623101
4.200427252613103
4.27428091859311
4.292744335088111
4.298898807253093
4.305053279418103
4.305053279418103
4.292744335088111
4.298898807253093
4.298898807253093
4.305053279418103
4.3112077515831135
4.3112077515831135
4.3112077515831135
4.3173622237481215
4.305053279418103
4.305053279418103
4.323516695913104
4.323516695913104
4.329671168078114
4.335825640243124
4.335825640243124
4.329671168078114
4.329671168078114
4.329671168078114
4.329671168078114
4.341980112408105
4.335825640243124
4.341980112408105
4.341980112408105
4.341980112408105
4.348134584573115
4.348134584573115
4.341980112408105
4.348134584573115
4.354289056738125
4.366598001068117
4.360443528903107
4.366598001068117
4.366598001068117
4.366598001068117
4.3727524732331275
4.3727524732331275
4.37890694539811
4.385061417563119
4.385061417563119
4.397370361893111
4.397370361893111
4.40967930622313
4.40967930622313
4.40352483405812
4.415833778388112
4.428142722718132
4.434297194883113
4.434297194883113
4.421988250553122
4.434297194883113
4.446606139213133
4.434297194883113
4.446606139213133
4.452760611378115
4.452760611378115
4.458915083543125
4.440451667048122
4.421988250553122
4.415833778388112
4.40352483405812
4.40352483405812
4.397370361893111
4.37890694539811
4.366598001068117
4.354289056738125
4.354289056738125
4.341980112408105
4.329671168078114
4.3173622237481215
4.305053279418103
4.298898807253093
4.292744335088111
4.298898807253093
4.292744335088111
4.2865898629231
4.280435390758093
4.280435390758093
4.280435390758093
4.280435390758093
4.280435390758093
4.280435390758093
4.2865898629231
4.2865898629231
4.292744335088111
4.280435390758093
4.280435390758093
4.27428091859311
4.280435390758093
4.298898807253093
4.298898807253093
4.292744335088111
4.280435390758093
4.292744335088111
4.2865898629231
4.292744335088111
4.280435390758093
4.292744335088111
4.292744335088111
4.2865898629231
4.292744335088111
4.280435390758093
4.292744335088111
4.292744335088111
4.298898807253093
4.298898807253093
4.298898807253093
4.298898807253093
4.280435390758093
4.237354085603107
4.3173622237481215
4.27428091859311
4.243508557768089
4.261971974263091
4.280435390758093
4.280435390758093
4.2865898629231
4.280435390758093
4.2865898629231
4.2865898629231
4.2865898629231
4.2865898629231
4.2865898629231
4.292744335088111
4.298898807253093
4.2865898629231
4.292744335088111
4.292744335088111
4.2865898629231
4.2865898629231
4.280435390758093
4.2865898629231
4.2865898629231
4.292744335088111
4.292744335088111
4.292744335088111
4.292744335088111
4.2865898629231
4.2865898629231
4.2865898629231
4.292744335088111
4.298898807253093
4.2865898629231
4.2865898629231
4.2865898629231
4.292744335088111
4.2865898629231
4.292744335088111
4.292744335088111
4.2865898629231
4.298898807253093
4.298898807253093
4.305053279418103
4.298898807253093
4.305053279418103
4.305053279418103
4.3173622237481215
4.3112077515831135
4.305053279418103
4.298898807253093
4.298898807253093
4.305053279418103
4.3112077515831135
4.323516695913104
4.323516695913104
4.341980112408105
4.292744335088111
4.323516695913104
4.348134584573115
4.335825640243124
4.335825640243124
4.3173622237481215
4.305053279418103
4.292744335088111
4.243508557768089
4.249663029933098
4.261971974263091
4.2681264464281
4.261971974263091
4.261971974263091
4.2681264464281
4.261971974263091
4.2681264464281
4.27428091859311
4.2681264464281
4.2681264464281
4.27428091859311
4.2681264464281
4.280435390758093
4.27428091859311
4.2865898629231
4.3173622237481215
4.385061417563119
4.471224027873144
4.538923221688139
4.5820045268431535
4.538923221688139
4.428142722718132
4.348134584573115
4.261971974263091
4.169654891788083
4.114264642303079
4.120419114468088
4.151191475293081
4.181963836118102
4.218890669108104
4.261971974263091
4.27428091859311
4.280435390758093
4.2865898629231
4.2865898629231
4.292744335088111
4.292744335088111
4.27428091859311
4.280435390758093
4.280435390758093
4.2865898629231
4.298898807253093
4.2865898629231
4.292744335088111
4.292744335088111
4.298898807253093
4.305053279418103
4.298898807253093
4.298898807253093
4.305053279418103
4.305053279418103
4.3112077515831135
4.3112077515831135
4.3112077515831135
4.298898807253093
4.2865898629231
4.341980112408105
4.348134584573115
4.348134584573115
4.348134584573115
4.3112077515831135
4.298898807253093
4.323516695913104
4.335825640243124
4.348134584573115
4.360443528903107
4.366598001068117
4.366598001068117
4.3727524732331275
4.37890694539811
4.3727524732331275
4.37890694539811
4.37890694539811
4.385061417563119
4.397370361893111
4.391215889728128
4.40352483405812
4.40967930622313
4.415833778388112
4.415833778388112
4.415833778388112
4.415833778388112
4.428142722718132
4.421988250553122
4.415833778388112
4.428142722718132
4.428142722718132
4.446606139213133
4.452760611378115
4.440451667048122
4.440451667048122
4.421988250553122
4.415833778388112
4.415833778388112
4.397370361893111
4.385061417563119
4.366598001068117
4.366598001068117
4.360443528903107
4.335825640243124
4.329671168078114
4.323516695913104
4.3112077515831135
4.305053279418103
4.305053279418103
4.298898807253093
4.292744335088111
4.280435390758093
4.280435390758093
4.2865898629231
4.292744335088111
4.280435390758093
4.27428091859311
4.27428091859311
4.27428091859311
4.27428091859311
4.27428091859311
4.280435390758093
4.27428091859311
4.280435390758093
4.280435390758093
4.27428091859311
4.2865898629231
4.280435390758093
4.298898807253093
4.292744335088111
4.2865898629231
4.292744335088111
4.298898807253093
4.292744335088111
4.2865898629231
4.292744335088111
4.292744335088111
4.298898807253093
4.298898807253093
4.292744335088111
4.298898807253093
4.280435390758093
4.27428091859311
4.2865898629231
4.292744335088111
4.2865898629231
4.298898807253093
4.292744335088111
4.292744335088111
4.2865898629231
4.2865898629231
4.2865898629231
4.292744335088111
4.292744335088111
4.305053279418103
4.323516695913104
4.3112077515831135
4.305053279418103
4.305053279418103
4.305053279418103
4.305053279418103
4.298898807253093
4.298898807253093
4.305053279418103
4.305053279418103
4.305053279418103
4.305053279418103
4.305053279418103
4.2865898629231
4.280435390758093
4.2865898629231
4.2865898629231
4.292744335088111
4.3112077515831135
4.305053279418103
4.292744335088111
4.292744335088111
4.298898807253093
4.305053279418103
4.305053279418103
4.292744335088111
4.231199613438097
4.280435390758093
4.292744335088111
4.298898807253093
4.305053279418103
4.298898807253093
4.292744335088111
4.298898807253093
4.298898807253093
4.298898807253093
4.305053279418103
4.298898807253093
4.298898807253093
4.305053279418103
4.3112077515831135
4.3173622237481215
4.323516695913104
4.3173622237481215
4.3173622237481215
4.323516695913104
4.341980112408105
4.354289056738125
4.366598001068117
4.366598001068117
4.348134584573115
4.348134584573115
4.348134584573115
4.341980112408105
4.360443528903107
4.354289056738125
4.335825640243124
4.3173622237481215
4.298898807253093
4.3173622237481215
4.3112077515831135
4.305053279418103
4.305053279418103
4.305053279418103
4.305053279418103
4.298898807253093
4.305053279418103
4.292744335088111
4.2865898629231
4.2865898629231
4.292744335088111
4.292744335088111
4.292744335088111
4.298898807253093
4.3112077515831135
4.348134584573115
4.415833778388112
4.489687444368147
4.557386638183142
4.5820045268431535
4.538923221688139
4.434297194883113
4.335825640243124
4.2681264464281
4.200427252613103
4.157345947458091
4.181963836118102
4.218890669108104
4.261971974263091
4.292744335088111
4.323516695913104
4.323516695913104
4.323516695913104
4.323516695913104
4.323516695913104
4.323516695913104
4.3112077515831135
4.3173622237481215
4.323516695913104
4.3173622237481215
4.323516695913104
4.3173622237481215
4.329671168078114
4.329671168078114
4.3173622237481215
4.323516695913104
4.335825640243124
4.341980112408105
4.335825640243124
4.329671168078114
4.335825640243124
4.329671168078114
4.323516695913104
4.329671168078114
4.341980112408105
4.341980112408105
4.341980112408105
4.341980112408105
4.348134584573115
4.341980112408105
4.341980112408105
4.354289056738125
4.348134584573115
4.360443528903107
4.360443528903107
4.366598001068117
4.360443528903107
4.366598001068117
4.360443528903107
4.366598001068117
4.37890694539811
4.37890694539811
4.37890694539811
4.37890694539811
4.385061417563119
4.391215889728128
4.391215889728128
4.397370361893111
4.40352483405812
4.40967930622313
4.40967930622313
4.415833778388112
4.421988250553122
4.428142722718132
4.428142722718132
4.428142722718132
4.434297194883113
4.421988250553122
4.397370361893111
4.446606139213133
4.446606139213133
4.385061417563119
4.323516695913104
4.421988250553122
4.40967930622313
4.397370361893111
4.3727524732331275
4.366598001068117
4.360443528903107
4.3112077515831135
4.292744335088111
4.305053279418103
4.298898807253093
4.298898807253093
4.298898807253093
4.292744335088111
4.292744335088111
4.2865898629231
4.2865898629231
4.2865898629231
4.292744335088111
4.292744335088111
4.292744335088111
4.2865898629231
4.2865898629231
4.2865898629231
4.280435390758093
4.2865898629231
4.2865898629231
4.292744335088111
4.2865898629231
4.2865898629231
4.292744335088111
4.2865898629231
4.292744335088111
4.2865898629231
4.2865898629231
4.2865898629231
4.2865898629231
4.292744335088111
4.292744335088111
4.298898807253093
4.298898807253093
4.292744335088111
4.292744335088111
4.298898807253093
4.298898807253093
4.298898807253093
4.298898807253093
4.298898807253093
4.305053279418103
4.292744335088111
4.305053279418103
4.305053279418103
4.292744335088111
4.2865898629231
4.2865898629231
4.2865898629231
4.292744335088111
4.292744335088111
4.292744335088111
4.298898807253093
4.292744335088111
4.298898807253093
4.298898807253093
4.305053279418103
4.3112077515831135
4.305053279418103
4.305053279418103
4.3112077515831135
4.298898807253093
4.305053279418103
4.298898807253093
4.305053279418103
4.305053279418103
4.305053279418103
4.3112077515831135
4.3112077515831135
4.305053279418103
4.305053279418103
4.298898807253093
4.298898807253093
4.305053279418103
4.298898807253093
4.305053279418103
4.3112077515831135
4.305053279418103
4.305053279418103
4.298898807253093
4.305053279418103
4.305053279418103
4.305053279418103
4.305053279418103
4.305053279418103
4.305053279418103
4.292744335088111
4.292744335088111
4.298898807253093
4.298898807253093
4.305053279418103
4.305053279418103
4.305053279418103
4.305053279418103
4.305053279418103
4.305053279418103
4.305053279418103
4.298898807253093
4.3112077515831135
4.3112077515831135
4.3112077515831135
4.305053279418103
4.298898807253093
4.3112077515831135
4.305053279418103
4.305053279418103
4.305053279418103
4.3112077515831135
4.3173622237481215
4.3112077515831135
4.305053279418103
4.27428091859311
4.341980112408105
4.348134584573115
4.354289056738125
4.366598001068117
4.366598001068117
4.335825640243124
4.305053279418103
4.323516695913104
4.323516695913104
4.329671168078114
4.329671168078114
4.329671168078114
4.329671168078114
4.3112077515831135
4.305053279418103
4.305053279418103
4.298898807253093
4.305053279418103
4.298898807253093
4.305053279418103
4.298898807253093
4.292744335088111
4.292744335088111
4.298898807253093
4.298898807253093
4.292744335088111
4.305053279418103
4.292744335088111
4.292744335088111
4.292744335088111
4.298898807253093
4.323516695913104
4.385061417563119
4.452760611378115
4.5327687495231315
4.575850054678144
4.563541110348153
4.471224027873144
4.3727524732331275
4.2865898629231
4.218890669108104
4.163500419623101
4.138882530963089
4.1758093639530935
4.225045141273086
4.2681264464281
4.292744335088111
4.298898807253093
4.2865898629231
4.298898807253093
4.298898807253093
4.305053279418103
4.292744335088111
4.298898807253093
4.305053279418103
4.3112077515831135
4.3173622237481215
4.3112077515831135
4.305053279418103
4.3173622237481215
4.3112077515831135
4.305053279418103
4.3112077515831135
4.3173622237481215
4.323516695913104
4.323516695913104
4.323516695913104
4.329671168078114
4.323516695913104
4.3173622237481215
4.3112077515831135
4.323516695913104
4.3173622237481215
4.323516695913104
4.323516695913104
4.329671168078114
4.329671168078114
4.329671168078114
4.329671168078114
4.335825640243124
4.341980112408105
4.341980112408105
4.341980112408105
4.329671168078114
4.341980112408105
4.348134584573115
4.348134584573115
4.348134584573115
4.360443528903107
4.360443528903107
4.360443528903107
4.366598001068117
4.360443528903107
4.37890694539811
4.37890694539811
4.391215889728128
4.391215889728128
4.397370361893111
4.397370361893111
4.391215889728128
4.397370361893111
4.40352483405812
4.397370361893111
4.40967930622313
4.40352483405812
4.40352483405812
4.40352483405812
4.40352483405812
4.397370361893111
4.391215889728128
4.385061417563119
4.3727524732331275
4.354289056738125
4.341980112408105
4.323516695913104
4.3173622237481215
4.3173622237481215
4.298898807253093
4.2865898629231
4.280435390758093
4.261971974263091
4.218890669108104
4.280435390758093
4.231199613438097
4.243508557768089
4.249663029933098
4.243508557768089
4.243508557768089
4.249663029933098
4.255817502098108
4.255817502098108
4.249663029933098
4.249663029933098
4.261971974263091
4.255817502098108
4.261971974263091
4.255817502098108
4.249663029933098
4.255817502098108
4.255817502098108
4.261971974263091
4.255817502098108
4.261971974263091
4.261971974263091
4.261971974263091
4.2681264464281
4.255817502098108
4.255817502098108
4.261971974263091
4.2681264464281
4.261971974263091
4.27428091859311
4.2681264464281
4.261971974263091
4.261971974263091
4.2681264464281
4.2681264464281
4.2681264464281
4.2681264464281
4.261971974263091
4.261971974263091
4.280435390758093
4.27428091859311
4.261971974263091
4.2681264464281
4.2681264464281
4.261971974263091
4.255817502098108
4.261971974263091
4.255817502098108
4.261971974263091
4.255817502098108
4.255817502098108
4.261971974263091
4.255817502098108
4.261971974263091
4.2681264464281
4.261971974263091
4.249663029933098
4.255817502098108
4.261971974263091
4.2681264464281
4.261971974263091
4.261971974263091
4.249663029933098
4.261971974263091
4.261971974263091
4.261971974263091
4.261971974263091
4.255817502098108
4.261971974263091
4.261971974263091
4.261971974263091
4.200427252613103
4.280435390758093
4.298898807253093
4.280435390758093
4.280435390758093
4.27428091859311
4.27428091859311
4.261971974263091
4.225045141273086
4.231199613438097
4.249663029933098
4.261971974263091
4.255817502098108
4.255817502098108
4.261971974263091
4.255817502098108
4.255817502098108
4.2681264464281
4.261971974263091
4.2681264464281
4.2681264464281
4.2681264464281
4.261971974263091
4.2681264464281
4.261971974263091
4.261971974263091
4.261971974263091
4.261971974263091
4.2865898629231
4.2865898629231
4.292744335088111
4.280435390758093
4.280435390758093
4.2865898629231
4.3112077515831135
4.329671168078114
4.335825640243124
4.329671168078114
4.329671168078114
4.323516695913104
4.323516695913104
4.3112077515831135
4.3112077515831135
4.305053279418103
4.305053279418103
4.2865898629231
4.280435390758093
4.27428091859311
4.280435390758093
4.2681264464281
4.249663029933098
4.305053279418103
4.3112077515831135
4.3173622237481215
4.280435390758093
4.243508557768089
4.2681264464281
4.280435390758093
4.280435390758093
4.280435390758093
4.2865898629231
4.298898807253093
4.305053279418103
4.354289056738125
4.428142722718132
4.501996388698137
4.551232166018132
4.551232166018132
4.501996388698137
4.40352483405812
4.323516695913104
4.249663029933098
4.1758093639530935
4.145037003128072
4.169654891788083
4.2065817247780855
4.237354085603107
4.280435390758093
4.305053279418103
4.305053279418103
4.305053279418103
4.298898807253093
4.298898807253093
4.305053279418103
4.3112077515831135
4.3112077515831135
4.298898807253093
4.298898807253093
4.298898807253093
4.305053279418103
4.305053279418103
4.3112077515831135
4.3173622237481215
4.3112077515831135
4.305053279418103
4.3173622237481215
4.323516695913104
4.3173622237481215
4.323516695913104
4.323516695913104
4.323516695913104
4.323516695913104
4.329671168078114
4.329671168078114
4.329671168078114
4.335825640243124
4.341980112408105
4.341980112408105
4.348134584573115
4.335825640243124
4.348134584573115
4.354289056738125
4.354289056738125
4.354289056738125
4.360443528903107
4.366598001068117
4.3727524732331275
4.3727524732331275
4.3727524732331275
4.3727524732331275
4.37890694539811
4.37890694539811
4.391215889728128
4.391215889728128
4.397370361893111
4.40352483405812
4.40352483405812
4.40352483405812
4.40967930622313
4.40967930622313
4.40967930622313
4.40967930622313
4.40967930622313
4.415833778388112
4.421988250553122
4.415833778388112
4.421988250553122
4.421988250553122
4.415833778388112
4.415833778388112
4.40967930622313
4.397370361893111
4.385061417563119
4.37890694539811
4.3727524732331275
4.366598001068117
4.354289056738125
4.348134584573115
4.348134584573115
4.348134584573115
4.329671168078114
4.3173622237481215
4.305053279418103
4.305053279418103
4.292744335088111
4.292744335088111
4.2865898629231
4.292744335088111
4.280435390758093
4.280435390758093
4.2865898629231
4.280435390758093
4.2681264464281
4.2681264464281
4.27428091859311
4.2865898629231
4.280435390758093
4.2865898629231
4.2865898629231
4.2865898629231
4.280435390758093
4.261971974263091
4.225045141273086
4.3173622237481215
4.3173622237481215
4.305053279418103
4.298898807253093
4.292744335088111
4.292744335088111
4.2681264464281
4.231199613438097
4.261971974263091
4.27428091859311
4.280435390758093
4.280435390758093
4.280435390758093
4.2865898629231
4.280435390758093
4.2865898629231
4.298898807253093
4.298898807253093
4.298898807253093
4.298898807253093
4.292744335088111
4.292744335088111
4.2865898629231
4.2865898629231
4.292744335088111
4.292744335088111
4.298898807253093
4.292744335088111
4.292744335088111
4.292744335088111
4.280435390758093
4.292744335088111
4.2865898629231
4.292744335088111
4.298898807253093
4.292744335088111
4.292744335088111
4.298898807253093
4.298898807253093
4.292744335088111
4.298898807253093
4.298898807253093
4.292744335088111
4.292744335088111
4.292744335088111
4.292744335088111
4.298898807253093
4.305053279418103
4.305053279418103
4.298898807253093
4.298898807253093
4.3112077515831135
4.3112077515831135
4.298898807253093
4.305053279418103
4.3112077515831135
4.305053279418103
4.305053279418103
4.305053279418103
4.3173622237481215
4.305053279418103
4.305053279418103
4.305053279418103
4.305053279418103
4.3112077515831135
4.3112077515831135
4.3112077515831135
4.305053279418103
4.3112077515831135
4.323516695913104
4.323516695913104
4.323516695913104
4.3173622237481215
4.323516695913104
4.348134584573115
4.366598001068117
4.360443528903107
4.348134584573115
4.341980112408105
4.335825640243124
4.341980112408105
4.335825640243124
4.329671168078114
4.329671168078114
4.3112077515831135
4.298898807253093
4.292744335088111
4.298898807253093
4.298898807253093
4.298898807253093
4.298898807253093
4.298898807253093
4.2865898629231
4.292744335088111
4.298898807253093
4.292744335088111
4.292744335088111
4.305053279418103
4.305053279418103
4.298898807253093
4.2865898629231
4.298898807253093
4.323516695913104
4.37890694539811
4.440451667048122
4.508150860863147
4.5327687495231315
4.514305333028129
4.428142722718132
4.341980112408105
4.2865898629231
4.2065817247780855
4.163500419623101
4.145037003128072
4.181963836118102
4.225045141273086
4.2681264464281
4.2865898629231
4.305053279418103
4.292744335088111
4.2865898629231
4.255817502098108
4.3173622237481215
4.298898807253093
4.255817502098108
4.2681264464281
4.2865898629231
4.2865898629231
4.292744335088111
4.292744335088111
4.298898807253093
4.305053279418103
4.305053279418103
4.305053279418103
4.305053279418103
4.3112077515831135
4.3112077515831135
4.3112077515831135
4.3173622237481215
4.305053279418103
4.305053279418103
4.360443528903107
4.348134584573115
4.348134584573115
4.341980112408105
4.341980112408105
4.348134584573115
4.305053279418103
4.298898807253093
4.323516695913104
4.329671168078114
4.341980112408105
4.335825640243124
4.335825640243124
4.341980112408105
4.335825640243124
4.354289056738125
4.360443528903107
4.366598001068117
4.3727524732331275
4.37890694539811
4.37890694539811
4.3727524732331275
4.37890694539811
4.385061417563119
4.397370361893111
4.40352483405812
4.40967930622313
4.415833778388112
4.415833778388112
4.40967930622313
4.415833778388112
4.421988250553122
4.428142722718132
4.434297194883113
4.428142722718132
4.428142722718132
4.428142722718132
4.421988250553122
4.415833778388112
4.40352483405812
4.391215889728128
4.3727524732331275
4.3727524732331275
4.354289056738125
4.341980112408105
4.323516695913104
4.3173622237481215
4.305053279418103
4.305053279418103
4.305053279418103
4.292744335088111
4.2865898629231
4.2865898629231
4.27428091859311
4.27428091859311
4.280435390758093
4.27428091859311
4.2681264464281
4.2681264464281
4.27428091859311
4.2681264464281
4.261971974263091
4.27428091859311
4.280435390758093
4.27428091859311
4.280435390758093
4.298898807253093
4.292744335088111
4.298898807253093
4.2865898629231
4.280435390758093
4.280435390758093
4.280435390758093
4.292744335088111
4.292744335088111
4.292744335088111
4.2865898629231
4.292744335088111
4.2865898629231
4.280435390758093
4.2681264464281
4.27428091859311
4.27428091859311
4.27428091859311
4.27428091859311
4.2865898629231
4.2865898629231
4.27428091859311
4.2865898629231
4.292744335088111
4.292744335088111
4.292744335088111
4.2865898629231
4.292744335088111
4.2865898629231
4.280435390758093
4.2865898629231
4.298898807253093
4.298898807253093
4.2865898629231
4.280435390758093
4.292744335088111
4.280435390758093
4.335825640243124
4.3173622237481215
4.3112077515831135
4.323516695913104
4.305053279418103
4.261971974263091
4.280435390758093
4.2865898629231
4.292744335088111
4.298898807253093
4.305053279418103
4.305053279418103
4.305053279418103
4.305053279418103
4.305053279418103
4.305053279418103
4.3112077515831135
4.298898807253093
4.292744335088111
4.292744335088111
4.298898807253093
4.3112077515831135
4.323516695913104
4.323516695913104
4.335825640243124
4.329671168078114
4.329671168078114
4.329671168078114
4.3173622237481215
4.3173622237481215
4.323516695913104
4.323516695913104
4.323516695913104
4.3112077515831135
4.3112077515831135
4.305053279418103
4.305053279418103
4.298898807253093
4.292744335088111
4.2865898629231
4.2865898629231
4.280435390758093
4.292744335088111
4.2865898629231
4.292744335088111
4.2865898629231
4.292744335088111
4.292744335088111
4.298898807253093
4.298898807253093
4.298898807253093
4.3112077515831135
4.3173622237481215
4.3173622237481215
4.323516695913104
4.3173622237481215
4.335825640243124
4.360443528903107
4.366598001068117
4.360443528903107
4.348134584573115
4.341980112408105
4.341980112408105
4.341980112408105
4.341980112408105
4.335825640243124
4.323516695913104
4.3112077515831135
4.3112077515831135
4.305053279418103
4.298898807253093
4.305053279418103
4.305053279418103
4.298898807253093
4.298898807253093
4.305053279418103
4.298898807253093
4.2865898629231
4.292744335088111
4.298898807253093
4.298898807253093
4.298898807253093
4.298898807253093
4.292744335088111
4.3112077515831135
4.348134584573115
4.40352483405812
4.489687444368147
4.54507769385315
4.563541110348153
4.508150860863147
4.40352483405812
4.323516695913104
4.249663029933098
4.188118308283084
4.145037003128072
4.157345947458091
4.2065817247780855
4.255817502098108
4.2865898629231
4.292744335088111
4.305053279418103
