4.0711833371480655
4.0711833371480655
4.065028864983084
4.058874392818074
4.065028864983084
4.065028864983084
4.058874392818074
4.052719920653064
4.065028864983084
4.065028864983084
4.052719920653064
4.0465654484880815
4.058874392818074
4.089646753643067
4.089646753643067
4.083492281478085
4.0711833371480655
4.065028864983084
4.089646753643067
4.095801225808079
4.089646753643067
4.077337809313075
4.089646753643067
4.077337809313075
4.083492281478085
4.089646753643067
4.083492281478085
4.089646753643067
4.108110170138069
4.108110170138069
4.095801225808079
4.077337809313075
4.077337809313075
4.065028864983084
4.058874392818074
4.052719920653064
4.108110170138069
4.101955697973087
4.083492281478085
4.083492281478085
4.083492281478085
4.065028864983084
4.040410976323072
4.040410976323072
4.0711833371480655
4.101955697973087
4.089646753643067
4.083492281478085
4.0711833371480655
4.077337809313075
4.065028864983084
4.089646753643067
4.108110170138069
4.101955697973087
4.095801225808079
4.101955697973087
4.108110170138069
4.101955697973087
4.101955697973087
4.108110170138069
4.101955697973087
4.108110170138069
4.101955697973087
4.101955697973087
4.095801225808079
4.101955697973087
4.083492281478085
4.077337809313075
4.101955697973087
4.108110170138069
4.114264642303079
4.114264642303079
4.101955697973087
4.089646753643067
4.089646753643067
4.114264642303079
4.138882530963089
4.145037003128072
4.12657358663307
4.1327280587980795
4.138882530963089
4.1327280587980795
4.114264642303079
4.108110170138069
4.114264642303079
4.12657358663307
4.1327280587980795
4.138882530963089
4.12657358663307
4.095801225808079
4.108110170138069
4.138882530963089
4.163500419623101
4.151191475293081
4.077337809313075
4.169654891788083
4.1758093639530935
4.169654891788083
4.169654891788083
4.163500419623101
4.157345947458091
4.101955697973087
4.108110170138069
4.120419114468088
4.12657358663307
4.157345947458091
4.181963836118102
4.2065817247780855
4.218890669108104
4.2681264464281
4.3173622237481215
4.341980112408105
4.323516695913104
4.249663029933098
4.138882530963089
4.034256504158063
3.9850207268380675
3.9665573103430645
4.015793087663061
4.083492281478085
4.145037003128072
4.163500419623101
4.188118308283084
4.169654891788083
4.169654891788083
4.1758093639530935
4.181963836118102
4.1758093639530935
4.181963836118102
4.188118308283084
4.2065817247780855
4.212736196943095
4.212736196943095
4.212736196943095
4.218890669108104
4.212736196943095
4.231199613438097
4.231199613438097
4.225045141273086
4.1942727804480935
4.2065817247780855
4.225045141273086
4.237354085603107
4.237354085603107
4.237354085603107
4.231199613438097
4.218890669108104
4.2065817247780855
4.200427252613103
4.237354085603107
4.243508557768089
4.249663029933098
4.255817502098108
4.255817502098108
4.255817502098108
4.243508557768089
4.231199613438097
4.212736196943095
4.249663029933098
4.261971974263091
4.2865898629231
4.292744335088111
4.280435390758093
4.298898807253093
4.335825640243124
4.348134584573115
4.348134584573115
4.335825640243124
4.341980112408105
4.335825640243124
4.348134584573115
4.354289056738125
4.360443528903107
4.360443528903107
4.360443528903107
4.366598001068117
4.366598001068117
4.385061417563119
4.37890694539811
4.37890694539811
4.391215889728128
4.397370361893111
4.40967930622313
4.415833778388112
4.415833778388112
4.40352483405812
4.391215889728128
4.40352483405812
4.415833778388112
4.40352483405812
4.391215889728128
4.37890694539811
4.366598001068117
4.341980112408105
4.323516695913104
4.3173622237481215
4.329671168078114
4.323516695913104
4.3173622237481215
4.305053279418103
4.305053279418103
4.3112077515831135
4.3173622237481215
4.323516695913104
4.3173622237481215
4.305053279418103
4.3112077515831135
4.305053279418103
4.305053279418103
4.3112077515831135
4.280435390758093
4.292744335088111
4.3112077515831135
4.3112077515831135
4.305053279418103
4.3112077515831135
4.261971974263091
4.341980112408105
4.255817502098108
4.243508557768089
4.2681264464281
4.292744335088111
4.305053279418103
4.305053279418103
4.3173622237481215
4.3112077515831135
4.237354085603107
4.305053279418103
4.354289056738125
4.335825640243124
4.323516695913104
4.305053279418103
4.3112077515831135
4.298898807253093
4.243508557768089
4.2865898629231
4.329671168078114
4.354289056738125
4.354289056738125
4.341980112408105
4.329671168078114
4.341980112408105
4.335825640243124
4.354289056738125
4.360443528903107
4.348134584573115
4.329671168078114
4.335825640243124
4.329671168078114
4.323516695913104
4.3112077515831135
4.323516695913104
4.323516695913104
4.3173622237481215
4.3173622237481215
4.3173622237481215
4.298898807253093
4.27428091859311
4.3112077515831135
4.335825640243124
4.323516695913104
4.3173622237481215
4.329671168078114
4.348134584573115
4.335825640243124
4.3173622237481215
4.3112077515831135
4.329671168078114
4.335825640243124
4.341980112408105
4.341980112408105
4.354289056738125
4.391215889728128
4.366598001068117
4.348134584573115
4.360443528903107
4.366598001068117
4.366598001068117
4.3727524732331275
4.366598001068117
4.354289056738125
4.335825640243124
4.3727524732331275
4.40967930622313
4.434297194883113
4.434297194883113
4.40967930622313
4.40967930622313
4.40352483405812
4.385061417563119
4.415833778388112
4.428142722718132
4.440451667048122
4.434297194883113
4.434297194883113
4.434297194883113
4.434297194883113
4.440451667048122
4.446606139213133
4.452760611378115
4.452760611378115
4.471224027873144
4.477378500038126
4.471224027873144
4.477378500038126
4.483532972203136
4.514305333028129
4.5327687495231315
4.538923221688139
4.538923221688139
4.5327687495231315
4.52661427735815
4.5327687495231315
4.514305333028129
4.520459805193139
4.575850054678144
4.612776887668146
4.631240304163148
4.668167137153151
4.705093970143154
4.7297118588031655
4.735866330968175
4.686630553648152
4.6004679433381535
4.501996388698137
4.40352483405812
4.366598001068117
4.397370361893111
4.465069555708134
4.52661427735815
4.569695582513134
4.5820045268431535
4.5820045268431535
4.588158999008135
4.606622415503137
4.612776887668146
4.618931359833156
4.625085831998166
4.551232166018132
4.5943134711731455
4.618931359833156
4.631240304163148
4.649703720658149
4.606622415503137
4.618931359833156
4.637394776328158
4.631240304163148
4.637394776328158
4.649703720658149
4.6435492484931675
4.625085831998166
4.625085831998166
4.637394776328158
4.649703720658149
4.662012664988168
4.637394776328158
4.618931359833156
4.625085831998166
4.618931359833156
4.6004679433381535
4.5943134711731455
4.5820045268431535
4.569695582513134
4.557386638183142
4.5327687495231315
4.538923221688139
4.563541110348153
4.557386638183142
4.557386638183142
4.551232166018132
4.557386638183142
4.575850054678144
4.575850054678144
4.563541110348153
4.551232166018132
4.557386638183142
4.569695582513134
4.588158999008135
4.588158999008135
4.575850054678144
4.575850054678144
4.588158999008135
4.569695582513134
4.575850054678144
4.588158999008135
4.588158999008135
4.588158999008135
4.588158999008135
4.569695582513134
4.606622415503137
4.625085831998166
4.631240304163148
4.631240304163148
4.618931359833156
4.606622415503137
4.6004679433381535
4.5943134711731455
4.5820045268431535
4.551232166018132
4.551232166018132
4.551232166018132
4.520459805193139
4.52661427735815
4.520459805193139
4.501996388698137
4.495841916533129
4.477378500038126
4.471224027873144
4.471224027873144
4.477378500038126
4.465069555708134
4.458915083543125
4.440451667048122
4.428142722718132
4.458915083543125
4.465069555708134
4.458915083543125
4.452760611378115
4.446606139213133
4.452760611378115
4.452760611378115
4.446606139213133
4.434297194883113
4.434297194883113
4.452760611378115
4.465069555708134
4.483532972203136
4.477378500038126
4.471224027873144
4.465069555708134
4.465069555708134
4.471224027873144
4.458915083543125
4.458915083543125
4.446606139213133
4.40967930622313
4.421988250553122
4.446606139213133
4.452760611378115
4.452760611378115
4.440451667048122
4.415833778388112
4.40967930622313
4.391215889728128
4.397370361893111
4.40352483405812
4.428142722718132
4.440451667048122
4.440451667048122
4.434297194883113
4.428142722718132
4.415833778388112
4.397370361893111
4.40352483405812
4.40967930622313
4.40352483405812
4.385061417563119
4.366598001068117
4.391215889728128
4.40967930622313
4.335825640243124
4.428142722718132
4.440451667048122
4.421988250553122
4.40352483405812
4.391215889728128
4.391215889728128
4.366598001068117
4.292744335088111
4.3173622237481215
4.335825640243124
4.354289056738125
4.360443528903107
4.348134584573115
4.341980112408105
4.348134584573115
4.335825640243124
4.348134584573115
4.348134584573115
4.3112077515831135
4.3112077515831135
4.335825640243124
4.341980112408105
4.354289056738125
4.354289056738125
4.348134584573115
4.348134584573115
4.341980112408105
4.335825640243124
4.348134584573115
4.354289056738125
4.348134584573115
4.335825640243124
4.348134584573115
4.354289056738125
4.348134584573115
4.354289056738125
4.348134584573115
4.348134584573115
4.341980112408105
4.348134584573115
4.348134584573115
4.341980112408105
4.323516695913104
4.348134584573115
4.366598001068117
4.366598001068117
4.348134584573115
4.348134584573115
4.341980112408105
4.348134584573115
4.354289056738125
4.354289056738125
4.354289056738125
4.360443528903107
4.348134584573115
4.348134584573115
4.354289056738125
4.366598001068117
4.385061417563119
4.37890694539811
4.37890694539811
4.360443528903107
4.348134584573115
4.385061417563119
4.3727524732331275
4.348134584573115
4.360443528903107
4.40352483405812
4.434297194883113
4.471224027873144
4.520459805193139
4.563541110348153
4.551232166018132
4.495841916533129
4.415833778388112
4.298898807253093
4.200427252613103
4.114264642303079
4.1942727804480935
4.305053279418103
4.354289056738125
4.385061417563119
4.40352483405812
4.40352483405812
4.385061417563119
4.3173622237481215
4.335825640243124
4.385061417563119
4.397370361893111
4.40352483405812
4.40967930622313
4.40352483405812
4.428142722718132
4.40352483405812
4.391215889728128
4.37890694539811
4.37890694539811
4.3727524732331275
4.391215889728128
4.415833778388112
4.391215889728128
4.37890694539811
4.366598001068117
4.366598001068117
4.391215889728128
4.40967930622313
4.40352483405812
4.385061417563119
4.348134584573115
4.348134584573115
4.37890694539811
4.391215889728128
4.391215889728128
4.391215889728128
4.385061417563119
4.385061417563119
4.37890694539811
4.37890694539811
4.391215889728128
4.385061417563119
4.37890694539811
4.329671168078114
4.40967930622313
4.415833778388112
4.354289056738125
4.366598001068117
4.391215889728128
4.40967930622313
4.40352483405812
4.421988250553122
4.428142722718132
4.40352483405812
4.391215889728128
4.434297194883113
4.434297194883113
4.440451667048122
4.440451667048122
4.428142722718132
4.415833778388112
4.415833778388112
4.40967930622313
4.40967930622313
4.428142722718132
4.421988250553122
4.415833778388112
4.40967930622313
4.40352483405812
4.385061417563119
4.3727524732331275
4.366598001068117
4.360443528903107
4.348134584573115
4.329671168078114
4.3173622237481215
4.280435390758093
4.231199613438097
4.243508557768089
4.261971974263091
4.280435390758093
4.2865898629231
4.2681264464281
4.255817502098108
4.243508557768089
4.243508557768089
4.231199613438097
4.188118308283084
4.188118308283084
4.212736196943095
4.231199613438097
4.249663029933098
4.243508557768089
4.249663029933098
4.255817502098108
4.261971974263091
4.261971974263091
4.2681264464281
4.255817502098108
4.237354085603107
4.237354085603107
4.225045141273086
4.237354085603107
4.249663029933098
4.261971974263091
4.255817502098108
4.237354085603107
4.27428091859311
4.261971974263091
4.243508557768089
4.218890669108104
4.231199613438097
4.249663029933098
4.27428091859311
4.2681264464281
4.243508557768089
4.225045141273086
4.225045141273086
4.212736196943095
4.2065817247780855
4.200427252613103
4.200427252613103
4.200427252613103
4.1942727804480935
4.1942727804480935
4.181963836118102
4.169654891788083
4.145037003128072
4.163500419623101
4.1758093639530935
4.1758093639530935
4.151191475293081
4.138882530963089
4.169654891788083
4.181963836118102
4.181963836118102
4.181963836118102
4.169654891788083
4.163500419623101
4.157345947458091
4.157345947458091
4.151191475293081
4.163500419623101
4.157345947458091
4.157345947458091
4.163500419623101
4.157345947458091
4.157345947458091
4.163500419623101
4.163500419623101
4.1758093639530935
4.181963836118102
4.169654891788083
4.157345947458091
4.157345947458091
4.138882530963089
4.188118308283084
4.212736196943095
4.218890669108104
4.212736196943095
4.212736196943095
4.212736196943095
4.200427252613103
4.188118308283084
4.181963836118102
4.1327280587980795
4.231199613438097
4.243508557768089
4.237354085603107
4.231199613438097
4.218890669108104
4.169654891788083
4.1942727804480935
4.2065817247780855
4.1942727804480935
4.200427252613103
4.200427252613103
4.2065817247780855
4.1942727804480935
4.181963836118102
4.2065817247780855
4.2681264464281
4.2681264464281
4.2681264464281
4.261971974263091
4.249663029933098
4.237354085603107
4.243508557768089
4.249663029933098
4.249663029933098
4.249663029933098
4.243508557768089
4.249663029933098
4.261971974263091
4.2681264464281
4.249663029933098
4.2681264464281
4.27428091859311
4.27428091859311
4.2865898629231
4.292744335088111
4.2865898629231
4.27428091859311
4.3112077515831135
4.360443528903107
4.415833778388112
4.452760611378115
4.458915083543125
4.434297194883113
4.37890694539811
4.292744335088111
4.212736196943095
4.151191475293081
4.157345947458091
4.218890669108104
4.292744335088111
4.323516695913104
4.341980112408105
4.341980112408105
4.348134584573115
4.354289056738125
4.360443528903107
4.3727524732331275
4.3727524732331275
4.3727524732331275
4.3727524732331275
4.341980112408105
4.360443528903107
4.366598001068117
4.40967930622313
4.391215889728128
4.391215889728128
4.40967930622313
4.40967930622313
4.415833778388112
4.415833778388112
4.40352483405812
4.397370361893111
4.397370361893111
4.40352483405812
4.40967930622313
4.440451667048122
4.446606139213133
4.446606139213133
4.440451667048122
4.440451667048122
4.446606139213133
4.440451667048122
4.446606139213133
4.483532972203136
4.483532972203136
4.452760611378115
4.495841916533129
4.514305333028129
4.520459805193139
4.520459805193139
4.520459805193139
4.520459805193139
4.520459805193139
4.514305333028129
4.514305333028129
4.538923221688139
4.557386638183142
4.557386638183142
4.569695582513134
4.5820045268431535
4.5820045268431535
4.5820045268431535
4.588158999008135
4.5943134711731455
4.618931359833156
4.618931359833156
4.631240304163148
4.631240304163148
4.612776887668146
4.655858192823159
4.68047608148317
4.668167137153151
4.655858192823159
4.662012664988168
4.6435492484931675
4.631240304163148
4.618931359833156
4.606622415503137
4.6004679433381535
4.5820045268431535
4.54507769385315
4.477378500038126
4.477378500038126
4.495841916533129
4.514305333028129
4.514305333028129
4.508150860863147
4.495841916533129
4.477378500038126
4.477378500038126
4.428142722718132
4.37890694539811
4.415833778388112
4.428142722718132
4.421988250553122
4.415833778388112
4.415833778388112
4.421988250553122
4.421988250553122
4.40967930622313
4.397370361893111
4.37890694539811
4.3727524732331275
4.360443528903107
4.3727524732331275
4.3173622237481215
4.298898807253093
4.415833778388112
4.40967930622313
4.391215889728128
4.385061417563119
4.397370361893111
4.3727524732331275
4.3173622237481215
4.3173622237481215
4.323516695913104
4.329671168078114
4.360443528903107
4.3727524732331275
4.3727524732331275
4.354289056738125
4.329671168078114
4.329671168078114
4.341980112408105
4.354289056738125
4.341980112408105
4.335825640243124
4.329671168078114
4.323516695913104
4.323516695913104
4.341980112408105
4.335825640243124
4.335825640243124
4.329671168078114
4.323516695913104
4.3112077515831135
4.305053279418103
4.292744335088111
4.2865898629231
4.255817502098108
4.255817502098108
4.27428091859311
4.27428091859311
4.255817502098108
4.249663029933098
4.261971974263091
4.261971974263091
4.2681264464281
4.255817502098108
4.237354085603107
4.231199613438097
4.237354085603107
4.231199613438097
4.225045141273086
4.212736196943095
4.212736196943095
4.1942727804480935
4.188118308283084
4.188118308283084
4.188118308283084
4.200427252613103
4.2065817247780855
4.181963836118102
4.181963836118102
4.1942727804480935
4.2065817247780855
4.181963836118102
4.157345947458091
4.1327280587980795
4.157345947458091
4.188118308283084
4.188118308283084
4.169654891788083
4.157345947458091
4.157345947458091
4.151191475293081
4.163500419623101
4.169654891788083
4.169654891788083
4.157345947458091
4.163500419623101
4.151191475293081
4.151191475293081
4.151191475293081
4.138882530963089
4.108110170138069
4.101955697973087
4.138882530963089
4.169654891788083
4.188118308283084
4.1758093639530935
4.163500419623101
4.163500419623101
4.163500419623101
4.169654891788083
4.169654891788083
4.169654891788083
4.163500419623101
4.163500419623101
4.157345947458091
4.169654891788083
4.163500419623101
4.157345947458091
4.120419114468088
4.188118308283084
4.1942727804480935
4.181963836118102
4.145037003128072
4.169654891788083
4.200427252613103
4.212736196943095
4.243508557768089
4.3112077515831135
4.3173622237481215
4.261971974263091
4.1942727804480935
4.12657358663307
4.0465654484880815
3.9788662546730578
3.9727117825080467
4.034256504158063
4.089646753643067
4.138882530963089
4.157345947458091
4.1758093639530935
4.1758093639530935
4.1758093639530935
4.1758093639530935
4.181963836118102
4.181963836118102
4.1758093639530935
4.1758093639530935
4.157345947458091
4.151191475293081
4.188118308283084
4.2065817247780855
4.212736196943095
4.212736196943095
4.218890669108104
4.212736196943095
4.218890669108104
4.2065817247780855
4.2065817247780855
4.212736196943095
4.218890669108104
4.212736196943095
4.2065817247780855
4.218890669108104
4.225045141273086
4.231199613438097
4.237354085603107
4.237354085603107
4.237354085603107
4.237354085603107
4.225045141273086
4.225045141273086
4.231199613438097
4.212736196943095
4.237354085603107
4.255817502098108
4.255817502098108
4.249663029933098
4.255817502098108
4.280435390758093
4.27428091859311
4.280435390758093
4.27428091859311
4.3112077515831135
4.292744335088111
4.292744335088111
4.292744335088111
4.2865898629231
4.298898807253093
4.292744335088111
4.305053279418103
4.305053279418103
4.3112077515831135
4.3112077515831135
4.3173622237481215
4.3173622237481215
4.298898807253093
4.280435390758093
4.292744335088111
4.3112077515831135
4.329671168078114
4.335825640243124
4.323516695913104
4.2865898629231
4.280435390758093
4.305053279418103
4.3173622237481215
4.3173622237481215
4.298898807253093
4.280435390758093
4.27428091859311
4.261971974263091
4.261971974263091
4.249663029933098
4.231199613438097
4.218890669108104
4.200427252613103
4.1758093639530935
4.169654891788083
4.163500419623101
4.138882530963089
4.108110170138069
4.12657358663307
4.138882530963089
4.1327280587980795
4.1327280587980795
4.1327280587980795
4.12657358663307
4.120419114468088
4.1327280587980795
4.12657358663307
4.12657358663307
4.120419114468088
4.120419114468088
4.120419114468088
4.120419114468088
4.114264642303079
4.108110170138069
4.101955697973087
4.120419114468088
4.089646753643067
4.040410976323072
4.12657358663307
4.108110170138069
4.114264642303079
4.138882530963089
4.145037003128072
4.120419114468088
4.058874392818074
4.077337809313075
4.089646753643067
4.089646753643067
4.108110170138069
4.114264642303079
4.108110170138069
4.101955697973087
4.108110170138069
4.114264642303079
4.108110170138069
4.114264642303079
4.120419114468088
4.12657358663307
4.108110170138069
4.095801225808079
4.095801225808079
4.095801225808079
4.145037003128072
4.169654891788083
4.163500419623101
4.157345947458091
4.181963836118102
4.181963836118102
4.1758093639530935
4.188118308283084
4.1942727804480935
4.188118308283084
4.1942727804480935
4.1942727804480935
4.1942727804480935
4.181963836118102
4.181963836118102
4.1942727804480935
4.1942727804480935
4.188118308283084
4.188118308283084
4.188118308283084
4.243508557768089
4.169654891788083
4.120419114468088
4.169654891788083
4.1942727804480935
4.212736196943095
4.218890669108104
4.225045141273086
4.225045141273086
4.218890669108104
4.200427252613103
4.200427252613103
4.212736196943095
4.225045141273086
4.231199613438097
4.237354085603107
4.243508557768089
4.243508557768089
4.225045141273086
4.261971974263091
4.2681264464281
4.2681264464281
4.2681264464281
4.2681264464281
4.231199613438097
4.255817502098108
4.2681264464281
4.261971974263091
4.255817502098108
4.2681264464281
4.2681264464281
4.2681264464281
4.249663029933098
4.261971974263091
4.261971974263091
4.261971974263091
4.2865898629231
4.3173622237481215
4.3173622237481215
4.3112077515831135
4.323516695913104
4.305053279418103
4.261971974263091
4.292744335088111
4.305053279418103
4.305053279418103
4.3112077515831135
4.3112077515831135
4.3112077515831135
4.446606139213133
4.520459805193139
4.52661427735815
4.501996388698137
4.421988250553122
4.348134584573115
4.231199613438097
4.138882530963089
4.145037003128072
4.200427252613103
4.2681264464281
4.323516695913104
4.360443528903107
4.3727524732331275
4.3727524732331275
4.3727524732331275
4.385061417563119
4.385061417563119
4.391215889728128
4.391215889728128
4.366598001068117
4.360443528903107
4.385061417563119
4.415833778388112
4.415833778388112
4.40352483405812
4.40967930622313
4.40967930622313
4.3727524732331275
4.421988250553122
4.37890694539811
4.40352483405812
4.415833778388112
4.421988250553122
4.421988250553122
4.434297194883113
4.434297194883113
4.446606139213133
4.440451667048122
4.440451667048122
4.440451667048122
4.434297194883113
4.415833778388112
4.415833778388112
4.452760611378115
4.465069555708134
4.471224027873144
4.471224027873144
4.471224027873144
4.471224027873144
4.452760611378115
4.458915083543125
4.489687444368147
4.520459805193139
4.551232166018132
4.563541110348153
4.557386638183142
4.569695582513134
4.575850054678144
4.569695582513134
4.569695582513134
4.563541110348153
4.575850054678144
4.575850054678144
4.5820045268431535
4.575850054678144
4.575850054678144
4.6435492484931675
4.637394776328158
4.631240304163148
4.637394776328158
4.5820045268431535
4.563541110348153
4.588158999008135
4.6004679433381535
4.612776887668146
4.612776887668146
4.6004679433381535
4.5820045268431535
4.575850054678144
4.569695582513134
4.5820045268431535
4.575850054678144
4.551232166018132
4.538923221688139
4.5327687495231315
4.520459805193139
4.489687444368147
4.465069555708134
4.477378500038126
4.495841916533129
4.489687444368147
4.471224027873144
4.471224027873144
4.458915083543125
4.452760611378115
4.434297194883113
4.440451667048122
4.458915083543125
4.495841916533129
4.495841916533129
4.495841916533129
4.471224027873144
4.458915083543125
4.440451667048122
4.452760611378115
4.471224027873144
4.483532972203136
4.477378500038126
4.477378500038126
4.458915083543125
4.440451667048122
4.452760611378115
4.477378500038126
4.477378500038126
4.477378500038126
4.477378500038126
4.465069555708134
4.446606139213133
4.440451667048122
4.440451667048122
4.440451667048122
4.428142722718132
4.415833778388112
4.40352483405812
4.397370361893111
4.391215889728128
4.391215889728128
4.40967930622313
4.421988250553122
4.421988250553122
4.415833778388112
4.397370361893111
4.3727524732331275
4.3727524732331275
4.366598001068117
4.397370361893111
4.428142722718132
4.421988250553122
4.40352483405812
4.397370361893111
4.391215889728128
4.391215889728128
4.385061417563119
4.385061417563119
4.37890694539811
4.3727524732331275
4.360443528903107
4.354289056738125
4.341980112408105
4.323516695913104
4.391215889728128
4.40352483405812
4.397370361893111
4.3727524732331275
4.323516695913104
4.348134584573115
4.354289056738125
4.335825640243124
4.348134584573115
4.3727524732331275
4.391215889728128
4.385061417563119
4.385061417563119
4.391215889728128
4.385061417563119
4.3727524732331275
4.3727524732331275
4.37890694539811
4.397370361893111
4.397370361893111
4.385061417563119
4.354289056738125
4.366598001068117
4.385061417563119
4.391215889728128
4.421988250553122
4.428142722718132
4.421988250553122
4.421988250553122
4.428142722718132
4.434297194883113
4.397370361893111
4.40967930622313
4.428142722718132
4.434297194883113
4.421988250553122
4.428142722718132
4.40967930622313
4.40352483405812
4.40967930622313
4.415833778388112
4.421988250553122
4.428142722718132
4.40352483405812
4.391215889728128
4.397370361893111
4.40352483405812
4.40352483405812
4.40967930622313
4.421988250553122
4.415833778388112
4.40967930622313
4.415833778388112
4.415833778388112
4.40967930622313
4.40967930622313
4.40967930622313
4.446606139213133
4.452760611378115
4.477378500038126
4.495841916533129
4.520459805193139
4.563541110348153
4.5943134711731455
4.551232166018132
4.471224027873144
4.397370361893111
4.305053279418103
4.2065817247780855
4.181963836118102
4.231199613438097
4.3173622237481215
4.385061417563119
4.415833778388112
4.40352483405812
4.428142722718132
4.440451667048122
4.434297194883113
4.428142722718132
4.428142722718132
4.428142722718132
4.428142722718132
4.428142722718132
4.434297194883113
4.434297194883113
4.434297194883113
4.434297194883113
4.40967930622313
4.397370361893111
4.428142722718132
4.428142722718132
4.428142722718132
4.428142722718132
4.421988250553122
4.421988250553122
4.40967930622313
4.415833778388112
4.421988250553122
4.428142722718132
4.428142722718132
4.421988250553122
4.421988250553122
4.428142722718132
4.446606139213133
4.458915083543125
4.458915083543125
4.471224027873144
4.477378500038126
4.477378500038126
4.471224027873144
4.452760611378115
4.440451667048122
4.483532972203136
4.52661427735815
4.54507769385315
4.5327687495231315
4.514305333028129
4.501996388698137
4.501996388698137
4.514305333028129
4.588158999008135
4.495841916533129
4.508150860863147
4.538923221688139
4.551232166018132
4.551232166018132
4.54507769385315
4.538923221688139
4.508150860863147
4.477378500038126
4.514305333028129
4.5327687495231315
4.557386638183142
4.557386638183142
4.563541110348153
4.538923221688139
4.5327687495231315
4.557386638183142
4.569695582513134
4.569695582513134
4.557386638183142
4.538923221688139
4.514305333028129
4.501996388698137
4.489687444368147
4.489687444368147
4.489687444368147
4.471224027873144
4.477378500038126
4.483532972203136
4.483532972203136
4.483532972203136
4.452760611378115
4.452760611378115
4.446606139213133
4.440451667048122
4.434297194883113
4.421988250553122
4.40352483405812
4.391215889728128
4.348134584573115
4.446606139213133
4.477378500038126
4.446606139213133
4.434297194883113
4.428142722718132
4.434297194883113
4.40967930622313
4.366598001068117
4.391215889728128
4.415833778388112
4.40967930622313
4.40967930622313
4.415833778388112
4.40967930622313
4.40967930622313
4.40967930622313
4.421988250553122
4.40967930622313
4.397370361893111
4.385061417563119
4.391215889728128
4.37890694539811
4.385061417563119
4.40352483405812
4.40967930622313
4.415833778388112
4.40967930622313
4.415833778388112
4.428142722718132
4.434297194883113
4.428142722718132
4.440451667048122
4.434297194883113
4.440451667048122
4.434297194883113
4.446606139213133
4.452760611378115
4.458915083543125
4.452760611378115
4.446606139213133
4.446606139213133
4.452760611378115
4.458915083543125
4.446606139213133
4.421988250553122
4.446606139213133
4.446606139213133
4.446606139213133
4.421988250553122
4.40967930622313
4.415833778388112
4.428142722718132
4.440451667048122
4.434297194883113
4.428142722718132
4.421988250553122
4.421988250553122
4.40967930622313
4.421988250553122
4.428142722718132
4.428142722718132
4.397370361893111
4.385061417563119
4.421988250553122
4.428142722718132
4.428142722718132
4.415833778388112
4.415833778388112
4.440451667048122
4.452760611378115
4.440451667048122
4.440451667048122
4.434297194883113
4.415833778388112
4.415833778388112
4.415833778388112
4.415833778388112
4.421988250553122
4.421988250553122
4.428142722718132
4.428142722718132
4.428142722718132
4.3727524732331275
4.421988250553122
4.397370361893111
4.360443528903107
4.391215889728128
4.40352483405812
4.40352483405812
4.391215889728128
4.385061417563119
4.421988250553122
4.428142722718132
4.434297194883113
4.428142722718132
4.421988250553122
4.421988250553122
4.421988250553122
4.40967930622313
4.40352483405812
4.397370361893111
4.385061417563119
4.40352483405812
4.40352483405812
4.40352483405812
4.391215889728128
4.40967930622313
4.421988250553122
4.421988250553122
4.421988250553122
4.415833778388112
4.40967930622313
4.391215889728128
4.434297194883113
4.483532972203136
4.52661427735815
4.5327687495231315
4.52661427735815
4.471224027873144
4.37890694539811
4.2865898629231
4.200427252613103
4.1758093639530935
4.225045141273086
4.298898807253093
4.341980112408105
4.335825640243124
4.323516695913104
4.348134584573115
4.366598001068117
4.360443528903107
4.360443528903107
4.354289056738125
4.348134584573115
4.348134584573115
4.354289056738125
4.360443528903107
4.348134584573115
4.341980112408105
4.366598001068117
4.385061417563119
4.391215889728128
4.397370361893111
4.397370361893111
4.37890694539811
4.360443528903107
4.385061417563119
4.341980112408105
4.335825640243124
4.354289056738125
4.3727524732331275
4.397370361893111
4.397370361893111
4.415833778388112
4.415833778388112
4.397370361893111
4.40352483405812
4.391215889728128
4.391215889728128
4.391215889728128
4.3727524732331275
4.360443528903107
4.391215889728128
4.391215889728128
4.40352483405812
4.397370361893111
4.391215889728128
4.385061417563119
4.397370361893111
4.385061417563119
4.397370361893111
4.391215889728128
4.385061417563119
4.391215889728128
4.397370361893111
4.40967930622313
4.415833778388112
4.40352483405812
4.391215889728128
4.40967930622313
4.415833778388112
4.40967930622313
4.397370361893111
4.397370361893111
4.434297194883113
4.446606139213133
4.440451667048122
4.452760611378115
4.458915083543125
4.465069555708134
4.452760611378115
4.440451667048122
4.428142722718132
4.428142722718132
4.428142722718132
4.415833778388112
4.40967930622313
4.397370361893111
4.385061417563119
4.385061417563119
4.37890694539811
4.360443528903107
4.329671168078114
4.3173622237481215
4.255817502098108
4.323516695913104
4.305053279418103
4.335825640243124
4.360443528903107
4.3173622237481215
4.2681264464281
4.292744335088111
4.2865898629231
4.2865898629231
4.2865898629231
4.280435390758093
4.27428091859311
4.255817502098108
4.249663029933098
4.2681264464281
4.2681264464281
4.255817502098108
4.218890669108104
4.231199613438097
4.243508557768089
4.237354085603107
4.237354085603107
4.243508557768089
4.243508557768089
4.255817502098108
4.255817502098108
4.231199613438097
4.249663029933098
4.261971974263091
4.2681264464281
4.255817502098108
4.249663029933098
4.243508557768089
4.243508557768089
4.237354085603107
4.261971974263091
4.243508557768089
4.231199613438097
4.237354085603107
4.231199613438097
4.249663029933098
4.261971974263091
4.261971974263091
4.243508557768089
4.231199613438097
4.237354085603107
4.243508557768089
4.249663029933098
4.249663029933098
4.249663029933098
4.231199613438097
4.243508557768089
4.261971974263091
4.27428091859311
4.261971974263091
4.261971974263091
4.255817502098108
4.261971974263091
4.261971974263091
4.249663029933098
4.249663029933098
4.237354085603107
4.225045141273086
4.255817502098108
4.243508557768089
4.243508557768089
4.249663029933098
4.225045141273086
4.218890669108104
4.218890669108104
4.218890669108104
4.261971974263091
4.255817502098108
4.218890669108104
4.225045141273086
4.249663029933098
4.255817502098108
4.255817502098108
4.255817502098108
4.231199613438097
4.225045141273086
4.249663029933098
4.261971974263091
4.261971974263091
4.255817502098108
4.231199613438097
4.243508557768089
4.255817502098108
4.255817502098108
4.243508557768089
4.243508557768089
4.225045141273086
4.212736196943095
4.225045141273086
4.218890669108104
4.2065817247780855
4.188118308283084
4.163500419623101
4.169654891788083
4.188118308283084
4.181963836118102
4.1758093639530935
4.169654891788083
4.181963836118102
4.1758093639530935
4.169654891788083
4.089646753643067
4.169654891788083
4.212736196943095
4.200427252613103
4.188118308283084
4.188118308283084
4.188118308283084
4.1758093639530935
4.114264642303079
4.12657358663307
4.145037003128072
4.145037003128072
4.151191475293081
4.151191475293081
4.151191475293081
4.0711833371480655
4.1327280587980795
4.237354085603107
4.280435390758093
4.2865898629231
4.237354085603107
4.157345947458091
4.0465654484880815
3.948093893848065
3.886549172198051
3.9111670608580615
3.9850207268380675
4.058874392818074
4.101955697973087
4.1327280587980795
4.138882530963089
4.1327280587980795
4.1327280587980795
4.1327280587980795
4.138882530963089
4.138882530963089
4.120419114468088
4.114264642303079
4.101955697973087
4.101955697973087
4.138882530963089
4.1758093639530935
4.1758093639530935
4.1758093639530935
4.1758093639530935
4.1758093639530935
4.188118308283084
4.2065817247780855
4.188118308283084
4.188118308283084
4.188118308283084
4.188118308283084
4.1942727804480935
4.188118308283084
4.1758093639530935
4.169654891788083
4.181963836118102
4.181963836118102
4.200427252613103
4.200427252613103
4.151191475293081
4.1327280587980795
4.169654891788083
4.200427252613103
4.200427252613103
4.200427252613103
4.188118308283084
4.1942727804480935
4.212736196943095
4.218890669108104
4.218890669108104
4.218890669108104
4.231199613438097
4.231199613438097
4.231199613438097
4.218890669108104
4.225045141273086
4.231199613438097
4.243508557768089
4.292744335088111
4.280435390758093
4.280435390758093
4.280435390758093
4.255817502098108
4.243508557768089
4.27428091859311
4.292744335088111
4.3112077515831135
4.329671168078114
4.329671168078114
4.323516695913104
4.323516695913104
4.323516695913104
4.323516695913104
4.305053279418103
4.292744335088111
4.298898807253093
4.305053279418103
4.305053279418103
4.292744335088111
4.292744335088111
4.280435390758093
4.2681264464281
4.261971974263091
4.255817502098108
4.261971974263091
4.255817502098108
4.255817502098108
4.231199613438097
4.200427252613103
4.218890669108104
4.237354085603107
4.243508557768089
4.243508557768089
4.249663029933098
4.243508557768089
4.243508557768089
4.237354085603107
4.237354085603107
4.231199613438097
4.225045141273086
4.231199613438097
4.249663029933098
4.243508557768089
4.243508557768089
4.237354085603107
4.249663029933098
4.249663029933098
4.243508557768089
4.231199613438097
4.225045141273086
4.249663029933098
4.2681264464281
4.261971974263091
4.255817502098108
4.255817502098108
4.255817502098108
4.200427252613103
4.255817502098108
4.27428091859311
4.261971974263091
4.249663029933098
4.2865898629231
4.298898807253093
4.3112077515831135
4.298898807253093
4.305053279418103
4.305053279418103
4.292744335088111
4.298898807253093
4.3173622237481215
4.335825640243124
4.335825640243124
4.335825640243124
4.335825640243124
4.3727524732331275
4.3727524732331275
4.360443528903107
4.354289056738125
4.341980112408105
4.341980112408105
4.341980112408105
4.335825640243124
4.323516695913104
4.335825640243124
4.360443528903107
4.37890694539811
4.3727524732331275
4.3727524732331275
4.366598001068117
4.385061417563119
4.3727524732331275
4.366598001068117
4.3727524732331275
4.391215889728128
4.421988250553122
4.428142722718132
4.428142722718132
4.428142722718132
4.446606139213133
4.452760611378115
4.465069555708134
4.465069555708134
4.471224027873144
4.477378500038126
4.489687444368147
4.477378500038126
4.458915083543125
4.458915083543125
4.495841916533129
4.508150860863147
4.514305333028129
4.508150860863147
4.501996388698137
4.501996388698137
4.514305333028129
4.538923221688139
4.52661427735815
4.5327687495231315
4.514305333028129
4.508150860863147
4.538923221688139
4.52661427735815
4.5327687495231315
4.538923221688139
4.54507769385315
4.563541110348153
4.575850054678144
4.5820045268431535
4.5820045268431535
4.606622415503137
4.5820045268431535
4.5943134711731455
4.631240304163148
4.625085831998166
4.612776887668146
4.625085831998166
4.6435492484931675
4.649703720658149
4.662012664988168
4.67432160931816
4.686630553648152
4.67432160931816
4.692785025813162
4.705093970143154
4.711248442308165
4.7420208031331565
4.785102108288171
4.809719996948181
4.797411052618189
4.760484219628157
4.698939497978172
4.606622415503137
4.501996388698137
4.446606139213133
4.458915083543125
4.5327687495231315
4.606622415503137
4.618931359833156
4.6435492484931675
4.6435492484931675
4.6435492484931675
4.618931359833156
4.606622415503137
4.588158999008135
4.625085831998166
4.6435492484931675
4.637394776328158
4.618931359833156
4.5943134711731455
4.563541110348153
4.563541110348153
4.569695582513134
4.588158999008135
4.569695582513134
4.563541110348153
4.563541110348153
4.575850054678144
4.569695582513134
4.520459805193139
4.5820045268431535
4.5943134711731455
4.5943134711731455
4.5943134711731455
4.6004679433381535
4.563541110348153
4.538923221688139
4.5327687495231315
4.538923221688139
4.569695582513134
4.563541110348153
4.551232166018132
4.563541110348153
4.557386638183142
4.54507769385315
4.5327687495231315
4.52661427735815
4.508150860863147
4.489687444368147
4.477378500038126
4.483532972203136
4.489687444368147
4.495841916533129
4.495841916533129
4.501996388698137
4.508150860863147
4.508150860863147
4.501996388698137
4.495841916533129
4.465069555708134
4.489687444368147
4.514305333028129
4.52661427735815
4.52661427735815
4.52661427735815
4.52661427735815
4.5327687495231315
4.5327687495231315
4.54507769385315
4.54507769385315
4.54507769385315
4.54507769385315
4.557386638183142
4.54507769385315
4.5327687495231315
4.514305333028129
4.508150860863147
4.508150860863147
4.514305333028129
4.508150860863147
4.489687444368147
4.465069555708134
4.391215889728128
4.415833778388112
4.489687444368147
4.471224027873144
4.458915083543125
4.465069555708134
4.452760611378115
4.428142722718132
4.3727524732331275
4.366598001068117
4.385061417563119
4.391215889728128
4.397370361893111
4.397370361893111
4.397370361893111
4.397370361893111
4.391215889728128
4.391215889728128
4.391215889728128
4.385061417563119
4.385061417563119
4.37890694539811
4.354289056738125
4.354289056738125
4.385061417563119
4.415833778388112
4.434297194883113
4.428142722718132
4.415833778388112
4.40352483405812
4.397370361893111
4.40967930622313
4.397370361893111
4.397370361893111
4.397370361893111
4.385061417563119
4.385061417563119
4.397370361893111
4.397370361893111
4.37890694539811
4.385061417563119
4.385061417563119
4.391215889728128
4.397370361893111
4.391215889728128
4.385061417563119
4.360443528903107
4.3727524732331275
4.385061417563119
4.397370361893111
4.391215889728128
4.40352483405812
4.397370361893111
4.397370361893111
4.40352483405812
4.397370361893111
4.40352483405812
4.40967930622313
4.397370361893111
4.391215889728128
4.366598001068117
4.360443528903107
4.366598001068117
4.354289056738125
4.40352483405812
4.40352483405812
4.397370361893111
4.385061417563119
4.366598001068117
4.2865898629231
4.341980112408105
4.3112077515831135
4.348134584573115
4.37890694539811
4.3727524732331275
4.37890694539811
4.40352483405812
4.40352483405812
4.385061417563119
4.37890694539811
4.37890694539811
4.37890694539811
4.385061417563119
4.37890694539811
4.385061417563119
4.37890694539811
4.37890694539811
4.385061417563119
4.391215889728128
4.385061417563119
4.37890694539811
4.366598001068117
4.348134584573115
4.323516695913104
4.360443528903107
4.415833778388112
4.428142722718132
4.428142722718132
4.40352483405812
4.391215889728128
4.391215889728128
4.37890694539811
4.3727524732331275
4.3727524732331275
4.3727524732331275
4.366598001068117
4.366598001068117
4.366598001068117
4.3727524732331275
4.360443528903107
4.354289056738125
4.348134584573115
4.354289056738125
4.348134584573115
4.348134584573115
4.329671168078114
4.348134584573115
4.3727524732331275
4.385061417563119
4.385061417563119
4.3727524732331275
4.360443528903107
4.348134584573115
4.341980112408105
4.360443528903107
4.360443528903107
4.366598001068117
4.366598001068117
4.385061417563119
4.40967930622313
4.471224027873144
4.514305333028129
4.501996388698137
4.501996388698137
4.452760611378115
4.354289056738125
4.255817502098108
4.181963836118102
4.163500419623101
4.218890669108104
4.243508557768089
4.280435390758093
4.360443528903107
4.391215889728128
4.40352483405812
4.40352483405812
4.397370361893111
4.385061417563119
4.3727524732331275
4.3727524732331275
4.348134584573115
4.335825640243124
4.348134584573115
4.3727524732331275
4.37890694539811
4.385061417563119
4.3727524732331275
4.366598001068117
4.360443528903107
4.354289056738125
4.354289056738125
4.341980112408105
4.298898807253093
4.3112077515831135
4.329671168078114
4.329671168078114
4.341980112408105
4.348134584573115
4.341980112408105
4.341980112408105
4.329671168078114
4.335825640243124
4.335825640243124
4.354289056738125
4.354289056738125
4.354289056738125
4.354289056738125
4.341980112408105
4.348134584573115
4.341980112408105
4.335825640243124
4.360443528903107
4.3727524732331275
4.37890694539811
4.3727524732331275
4.360443528903107
4.397370361893111
4.40967930622313
4.415833778388112
4.40967930622313
4.397370361893111
4.335825640243124
4.434297194883113
4.446606139213133
4.446606139213133
4.40967930622313
4.391215889728128
4.40967930622313
4.415833778388112
4.421988250553122
4.452760611378115
4.452760611378115
4.465069555708134
4.452760611378115
4.465069555708134
4.465069555708134
4.440451667048122
4.415833778388112
4.434297194883113
4.428142722718132
4.434297194883113
4.440451667048122
4.446606139213133
4.446606139213133
4.440451667048122
4.428142722718132
4.40967930622313
4.40352483405812
4.446606139213133
4.385061417563119
4.323516695913104
4.329671168078114
4.323516695913104
4.329671168078114
4.341980112408105
4.341980112408105
4.354289056738125
4.360443528903107
4.360443528903107
4.323516695913104
4.323516695913104
4.348134584573115
4.341980112408105
4.323516695913104
4.3112077515831135
4.298898807253093
4.3173622237481215
4.3112077515831135
4.298898807253093
4.292744335088111
4.2865898629231
4.292744335088111
4.2865898629231
4.292744335088111
4.298898807253093
4.298898807253093
4.292744335088111
4.3173622237481215
4.323516695913104
4.323516695913104
4.3173622237481215
4.3173622237481215
4.3173622237481215
4.292744335088111
4.2865898629231
4.341980112408105
4.348134584573115
4.348134584573115
4.329671168078114
4.323516695913104
4.323516695913104
4.3173622237481215
4.3173622237481215
4.329671168078114
4.366598001068117
4.335825640243124
4.3173622237481215
4.329671168078114
4.341980112408105
4.348134584573115
4.360443528903107
4.348134584573115
4.348134584573115
4.360443528903107
4.348134584573115
4.335825640243124
4.360443528903107
4.3727524732331275
4.3727524732331275
4.385061417563119
4.37890694539811
4.366598001068117
4.360443528903107
4.366598001068117
4.360443528903107
4.360443528903107
4.366598001068117
4.366598001068117
4.366598001068117
4.360443528903107
4.3727524732331275
4.397370361893111
4.397370361893111
4.391215889728128
4.37890694539811
4.385061417563119
4.385061417563119
4.37890694539811
4.3727524732331275
4.348134584573115
4.360443528903107
4.37890694539811
4.37890694539811
4.3727524732331275
4.37890694539811
4.391215889728128
4.385061417563119
4.385061417563119
4.366598001068117
4.360443528903107
4.3727524732331275
4.3727524732331275
4.335825640243124
4.237354085603107
4.329671168078114
4.415833778388112
4.415833778388112
4.397370361893111
4.40967930622313
4.415833778388112
4.360443528903107
4.360443528903107
4.37890694539811
4.360443528903107
4.366598001068117
4.385061417563119
4.391215889728128
4.397370361893111
4.397370361893111
4.40352483405812
4.40352483405812
4.37890694539811
4.354289056738125
4.360443528903107
4.366598001068117
4.3727524732331275
4.360443528903107
4.360443528903107
4.360443528903107
4.354289056738125
4.354289056738125
4.360443528903107
4.360443528903107
4.360443528903107
4.366598001068117
4.391215889728128
4.40967930622313
4.434297194883113
4.501996388698137
4.520459805193139
4.501996388698137
4.428142722718132
4.3173622237481215
4.2065817247780855
4.138882530963089
4.1327280587980795
4.212736196943095
4.27428091859311
4.3112077515831135
4.305053279418103
4.3173622237481215
4.323516695913104
4.323516695913104
4.323516695913104
4.323516695913104
4.3173622237481215
4.329671168078114
4.329671168078114
4.323516695913104
4.3173622237481215
4.292744335088111
4.3112077515831135
4.335825640243124
4.341980112408105
4.329671168078114
4.323516695913104
4.3173622237481215
4.348134584573115
4.354289056738125
4.348134584573115
4.341980112408105
4.348134584573115
4.341980112408105
4.348134584573115
4.366598001068117
4.348134584573115
4.348134584573115
4.341980112408105
4.348134584573115
4.341980112408105
4.354289056738125
4.348134584573115
4.335825640243124
4.341980112408105
4.366598001068117
4.37890694539811
4.391215889728128
4.40352483405812
4.391215889728128
4.385061417563119
4.37890694539811
4.391215889728128
4.40352483405812
4.40967930622313
4.40967930622313
4.40967930622313
4.40352483405812
4.415833778388112
4.415833778388112
4.421988250553122
4.434297194883113
4.434297194883113
4.434297194883113
4.452760611378115
4.446606139213133
4.440451667048122
4.440451667048122
4.458915083543125
4.471224027873144
4.465069555708134
4.446606139213133
4.434297194883113
4.428142722718132
4.428142722718132
4.428142722718132
4.40967930622313
4.3727524732331275
4.329671168078114
4.360443528903107
4.354289056738125
4.341980112408105
4.329671168078114
4.323516695913104
4.292744335088111
4.261971974263091
4.218890669108104
4.27428091859311
4.249663029933098
4.243508557768089
4.249663029933098
4.261971974263091
4.280435390758093
4.261971974263091
4.255817502098108
4.249663029933098
4.255817502098108
4.255817502098108
4.261971974263091
4.2681264464281
4.255817502098108
4.243508557768089
4.261971974263091
4.27428091859311
4.27428091859311
4.261971974263091
4.255817502098108
4.255817502098108
4.2681264464281
4.255817502098108
4.243508557768089
4.243508557768089
4.249663029933098
4.280435390758093
4.292744335088111
4.280435390758093
4.2865898629231
4.280435390758093
4.2865898629231
4.280435390758093
4.2681264464281
4.27428091859311
4.261971974263091
4.255817502098108
4.243508557768089
4.225045141273086
4.249663029933098
4.280435390758093
4.2865898629231
4.305053279418103
4.305053279418103
4.3112077515831135
4.298898807253093
4.298898807253093
4.305053279418103
4.292744335088111
4.292744335088111
4.2865898629231
4.280435390758093
4.280435390758093
4.292744335088111
4.3112077515831135
4.323516695913104
4.305053279418103
4.298898807253093
4.3112077515831135
4.305053279418103
4.2681264464281
4.255817502098108
4.2681264464281
4.3112077515831135
4.292744335088111
4.292744335088111
4.292744335088111
4.2865898629231
4.292744335088111
4.298898807253093
4.3112077515831135
4.3173622237481215
4.3112077515831135
4.3173622237481215
4.323516695913104
4.3173622237481215
4.323516695913104
4.3173622237481215
4.323516695913104
4.3112077515831135
4.305053279418103
4.3112077515831135
4.305053279418103
4.292744335088111
4.292744335088111
4.329671168078114
4.323516695913104
4.3112077515831135
4.329671168078114
4.329671168078114
4.3173622237481215
4.3112077515831135
4.305053279418103
4.292744335088111
4.280435390758093
4.2681264464281
4.280435390758093
4.280435390758093
4.2865898629231
4.292744335088111
4.305053279418103
4.298898807253093
4.2865898629231
4.2681264464281
4.2681264464281
4.261971974263091
4.261971974263091
4.243508557768089
4.249663029933098
4.27428091859311
4.280435390758093
4.280435390758093
4.280435390758093
4.261971974263091
4.255817502098108
4.2681264464281
4.261971974263091
4.255817502098108
4.255817502098108
4.2681264464281
4.2681264464281
4.225045141273086
4.3112077515831135
4.3112077515831135
4.292744335088111
4.27428091859311
4.243508557768089
4.27428091859311
4.3112077515831135
4.323516695913104
4.335825640243124
4.40967930622313
4.458915083543125
4.434297194883113
4.360443528903107
4.255817502098108
4.151191475293081
4.0711833371480655
4.040410976323072
4.089646753643067
4.12657358663307
4.181963836118102
4.225045141273086
4.249663029933098
4.261971974263091
4.27428091859311
4.280435390758093
4.2681264464281
4.249663029933098
4.255817502098108
4.2681264464281
4.2865898629231
4.292744335088111
4.2681264464281
4.255817502098108
4.292744335088111
4.305053279418103
4.298898807253093
4.2865898629231
4.2865898629231
4.280435390758093
4.292744335088111
4.2865898629231
4.298898807253093
4.298898807253093
4.298898807253093
4.2865898629231
4.292744335088111
4.292744335088111
4.305053279418103
4.323516695913104
4.323516695913104
4.323516695913104
4.323516695913104
4.3112077515831135
4.3112077515831135
4.298898807253093
4.3173622237481215
4.341980112408105
4.354289056738125
4.354289056738125
4.354289056738125
4.354289056738125
4.354289056738125
4.341980112408105
4.37890694539811
4.366598001068117
4.354289056738125
4.341980112408105
4.3173622237481215
4.40967930622313
4.415833778388112
4.40967930622313
4.40352483405812
4.40352483405812
4.391215889728128
4.341980112408105
4.3112077515831135
4.335825640243124
4.323516695913104
4.341980112408105
4.354289056738125
4.3727524732331275
4.366598001068117
4.360443528903107
4.360443528903107
4.3727524732331275
4.37890694539811
4.37890694539811
4.360443528903107
4.341980112408105
4.341980112408105
4.341980112408105
4.341980112408105
4.329671168078114
4.3112077515831135
4.292744335088111
4.2865898629231
4.292744335088111
4.2681264464281
4.249663029933098
4.225045141273086
4.200427252613103
4.1942727804480935
4.231199613438097
4.231199613438097
4.218890669108104
4.1942727804480935
4.2065817247780855
4.218890669108104
4.2065817247780855
4.2065817247780855
4.1942727804480935
4.1942727804480935
4.1942727804480935
4.1942727804480935
4.1942727804480935
4.188118308283084
4.1942727804480935
4.1942727804480935
4.1942727804480935
4.181963836118102
4.157345947458091
4.101955697973087
4.212736196943095
4.231199613438097
4.225045141273086
4.243508557768089
4.255817502098108
4.2681264464281
4.249663029933098
4.1942727804480935
4.1942727804480935
4.212736196943095
4.225045141273086
4.225045141273086
4.231199613438097
4.225045141273086
4.225045141273086
4.225045141273086
4.243508557768089
4.243508557768089
4.2681264464281
4.27428091859311
4.2681264464281
4.261971974263091
4.255817502098108
4.249663029933098
4.249663029933098
4.249663029933098
4.2681264464281
4.298898807253093
4.305053279418103
4.305053279418103
4.298898807253093
4.280435390758093
4.2681264464281
4.27428091859311
4.280435390758093
4.2681264464281
4.2865898629231
4.2865898629231
4.280435390758093
4.2865898629231
4.298898807253093
4.3112077515831135
4.3112077515831135
4.3173622237481215
4.3112077515831135
4.298898807253093
4.280435390758093
4.27428091859311
4.2681264464281
4.298898807253093
4.329671168078114
4.329671168078114
4.341980112408105
4.335825640243124
4.329671168078114
4.3173622237481215
4.3173622237481215
4.335825640243124
4.348134584573115
4.366598001068117
4.354289056738125
4.37890694539811
4.341980112408105
4.354289056738125
4.366598001068117
4.385061417563119
4.40352483405812
4.40352483405812
4.391215889728128
4.397370361893111
4.3727524732331275
4.37890694539811
4.421988250553122
4.434297194883113
4.446606139213133
4.446606139213133
4.452760611378115
4.434297194883113
4.440451667048122
4.452760611378115
4.458915083543125
4.452760611378115
4.465069555708134
4.458915083543125
4.458915083543125
4.452760611378115
4.452760611378115
4.465069555708134
4.465069555708134
4.465069555708134
4.471224027873144
4.477378500038126
4.452760611378115
4.434297194883113
4.452760611378115
4.477378500038126
4.458915083543125
4.458915083543125
4.477378500038126
4.508150860863147
4.520459805193139
4.551232166018132
4.6004679433381535
4.637394776328158
4.618931359833156
4.54507769385315
4.446606139213133
4.360443528903107
4.292744335088111
4.27428091859311
4.329671168078114
4.397370361893111
4.440451667048122
4.483532972203136
4.514305333028129
4.495841916533129
4.508150860863147
4.551232166018132
4.588158999008135
4.557386638183142
4.520459805193139
4.471224027873144
4.5327687495231315
4.551232166018132
4.508150860863147
4.489687444368147
4.501996388698137
4.501996388698137
4.501996388698137
4.477378500038126
4.465069555708134
4.477378500038126
4.483532972203136
4.477378500038126
4.477378500038126
4.495841916533129
4.489687444368147
4.452760611378115
4.440451667048122
4.465069555708134
4.465069555708134
4.471224027873144
4.483532972203136
4.495841916533129
4.483532972203136
4.483532972203136
4.489687444368147
4.483532972203136
4.483532972203136
4.508150860863147
4.508150860863147
4.501996388698137
4.501996388698137
4.520459805193139
4.514305333028129
4.495841916533129
4.489687444368147
4.495841916533129
4.501996388698137
4.501996388698137
4.483532972203136
4.477378500038126
4.501996388698137
4.508150860863147
4.520459805193139
4.514305333028129
4.52661427735815
4.5327687495231315
4.5327687495231315
4.5327687495231315
4.52661427735815
4.520459805193139
4.5327687495231315
4.54507769385315
4.551232166018132
4.54507769385315
4.538923221688139
4.5327687495231315
4.520459805193139
4.508150860863147
4.508150860863147
4.483532972203136
4.434297194883113
4.415833778388112
4.428142722718132
4.452760611378115
4.434297194883113
4.40352483405812
4.385061417563119
4.3727524732331275
4.360443528903107
4.360443528903107
4.354289056738125
4.366598001068117
4.360443528903107
4.3727524732331275
4.3727524732331275
4.360443528903107
4.348134584573115
4.341980112408105
4.335825640243124
4.354289056738125
4.360443528903107
4.329671168078114
4.3112077515831135
4.335825640243124
4.348134584573115
4.348134584573115
4.335825640243124
4.3173622237481215
4.3173622237481215
4.3173622237481215
4.3173622237481215
4.335825640243124
4.341980112408105
4.335825640243124
4.348134584573115
4.341980112408105
4.329671168078114
4.323516695913104
4.305053279418103
4.305053279418103
4.3112077515831135
4.3173622237481215
4.341980112408105
4.341980112408105
4.305053279418103
4.329671168078114
4.354289056738125
4.348134584573115
4.341980112408105
4.341980112408105
4.335825640243124
4.323516695913104
4.3173622237481215
4.3173622237481215
4.3173622237481215
4.3173622237481215
4.323516695913104
4.305053279418103
4.3112077515831135
4.298898807253093
4.292744335088111
4.237354085603107
4.3112077515831135
4.305053279418103
4.27428091859311
4.280435390758093
4.323516695913104
4.305053279418103
4.292744335088111
4.298898807253093
4.3173622237481215
4.3112077515831135
4.305053279418103
4.305053279418103
4.2865898629231
4.200427252613103
4.305053279418103
4.348134584573115
4.341980112408105
4.329671168078114
4.335825640243124
4.335825640243124
4.305053279418103
4.255817502098108
4.280435390758093
4.298898807253093
4.305053279418103
4.280435390758093
4.292744335088111
4.3173622237481215
4.3173622237481215
4.323516695913104
4.323516695913104
4.323516695913104
4.323516695913104
4.3173622237481215
4.3112077515831135
4.3173622237481215
4.3173622237481215
4.3173622237481215
4.329671168078114
4.329671168078114
4.3173622237481215
4.3173622237481215
4.3112077515831135
4.305053279418103
4.323516695913104
4.348134584573115
4.341980112408105
4.335825640243124
4.323516695913104
4.3112077515831135
4.323516695913104
4.329671168078114
4.323516695913104
4.3173622237481215
4.323516695913104
4.3173622237481215
4.305053279418103
4.305053279418103
4.323516695913104
4.323516695913104
4.3112077515831135
4.305053279418103
4.292744335088111
4.2865898629231
4.305053279418103
4.3112077515831135
4.3173622237481215
4.3112077515831135
4.3112077515831135
4.3173622237481215
4.3173622237481215
4.3173622237481215
4.329671168078114
4.3727524732331275
4.415833778388112
4.40967930622313
4.37890694539811
4.354289056738125
4.243508557768089
4.138882530963089
4.065028864983084
4.0711833371480655
4.138882530963089
4.188118308283084
4.225045141273086
4.261971974263091
4.27428091859311
4.27428091859311
4.249663029933098
4.231199613438097
4.218890669108104
4.231199613438097
4.261971974263091
4.249663029933098
4.243508557768089
4.237354085603107
4.249663029933098
4.261971974263091
4.261971974263091
4.249663029933098
4.231199613438097
4.231199613438097
4.231199613438097
4.237354085603107
4.237354085603107
4.243508557768089
4.249663029933098
4.255817502098108
4.2681264464281
4.261971974263091
4.2681264464281
4.2681264464281
4.2681264464281
4.2681264464281
4.249663029933098
4.249663029933098
4.280435390758093
4.292744335088111
4.280435390758093
4.261971974263091
4.261971974263091
4.243508557768089
4.280435390758093
4.2865898629231
4.298898807253093
4.2865898629231
4.2681264464281
4.27428091859311
4.3112077515831135
4.323516695913104
4.341980112408105
4.348134584573115
4.348134584573115
4.354289056738125
4.360443528903107
4.360443528903107
4.360443528903107
4.354289056738125
4.323516695913104
4.366598001068117
4.40352483405812
4.391215889728128
4.415833778388112
4.446606139213133
4.458915083543125
4.465069555708134
4.477378500038126
4.508150860863147
4.514305333028129
4.514305333028129
4.501996388698137
4.508150860863147
4.501996388698137
4.489687444368147
4.483532972203136
4.458915083543125
4.440451667048122
4.40967930622313
4.385061417563119
4.3727524732331275
4.348134584573115
4.3173622237481215
4.3173622237481215
4.329671168078114
4.329671168078114
4.3173622237481215
4.292744335088111
4.261971974263091
4.249663029933098
4.237354085603107
4.218890669108104
4.2065817247780855
4.200427252613103
4.212736196943095
4.212736196943095
4.218890669108104
4.212736196943095
4.218890669108104
4.237354085603107
4.237354085603107
4.225045141273086
4.225045141273086
4.218890669108104
4.2065817247780855
4.188118308283084
4.218890669108104
4.212736196943095
4.200427252613103
4.1942727804480935
4.2065817247780855
4.225045141273086
4.231199613438097
4.231199613438097
4.212736196943095
4.1942727804480935
4.163500419623101
4.1758093639530935
4.1942727804480935
4.181963836118102
4.169654891788083
4.157345947458091
4.163500419623101
4.157345947458091
4.163500419623101
4.163500419623101
4.169654891788083
4.163500419623101
4.151191475293081
4.1327280587980795
4.1327280587980795
4.138882530963089
4.145037003128072
4.151191475293081
4.145037003128072
4.138882530963089
4.114264642303079
4.108110170138069
4.108110170138069
4.101955697973087
4.089646753643067
4.089646753643067
4.089646753643067
4.095801225808079
4.083492281478085
4.065028864983084
4.065028864983084
4.065028864983084
4.0711833371480655
4.058874392818074
4.034256504158063
4.052719920653064
4.0711833371480655
4.089646753643067
4.108110170138069
4.108110170138069
4.101955697973087
4.095801225808079
4.083492281478085
4.095801225808079
4.089646753643067
4.083492281478085
4.089646753643067
4.095801225808079
4.040410976323072
4.1327280587980795
4.145037003128072
4.1327280587980795
4.0711833371480655
4.065028864983084
4.089646753643067
4.101955697973087
4.083492281478085
4.058874392818074
4.083492281478085
4.114264642303079
4.12657358663307
4.138882530963089
4.157345947458091
4.151191475293081
4.145037003128072
4.151191475293081
4.151191475293081
4.151191475293081
4.138882530963089
4.145037003128072
4.145037003128072
4.145037003128072
4.145037003128072
4.1327280587980795
4.138882530963089
4.157345947458091
4.163500419623101
4.151191475293081
4.157345947458091
4.151191475293081
4.145037003128072
4.169654891788083
4.181963836118102
4.181963836118102
4.169654891788083
4.181963836118102
4.1758093639530935
4.188118308283084
4.169654891788083
4.163500419623101
4.163500419623101
4.188118308283084
4.2065817247780855
4.225045141273086
4.237354085603107
4.237354085603107
4.255817502098108
4.292744335088111
4.341980112408105
4.3727524732331275
4.360443528903107
4.298898807253093
4.188118308283084
4.065028864983084
4.003484143333068
4.028102031993082
4.101955697973087
4.163500419623101
4.188118308283084
4.2065817247780855
4.200427252613103
4.188118308283084
4.2065817247780855
4.212736196943095
4.218890669108104
4.225045141273086
4.225045141273086
4.225045141273086
4.218890669108104
4.231199613438097
4.243508557768089
4.249663029933098
4.249663029933098
4.243508557768089
4.249663029933098
4.243508557768089
4.237354085603107
4.225045141273086
4.188118308283084
4.218890669108104
4.188118308283084
4.225045141273086
4.261971974263091
4.261971974263091
4.261971974263091
4.261971974263091
4.261971974263091
4.237354085603107
4.188118308283084
4.1942727804480935
4.2065817247780855
4.218890669108104
4.225045141273086
4.2065817247780855
4.212736196943095
4.243508557768089
4.2865898629231
4.329671168078114
4.341980112408105
4.3112077515831135
4.2865898629231
4.335825640243124
4.366598001068117
4.366598001068117
4.360443528903107
4.360443528903107
4.354289056738125
4.366598001068117
4.360443528903107
4.366598001068117
4.3727524732331275
4.366598001068117
4.3727524732331275
4.391215889728128
4.385061417563119
4.37890694539811
4.37890694539811
4.385061417563119
4.3727524732331275
4.354289056738125
4.292744335088111
4.397370361893111
4.391215889728128
4.354289056738125
4.3727524732331275
4.37890694539811
4.366598001068117
4.280435390758093
4.280435390758093
4.292744335088111
4.280435390758093
4.280435390758093
4.2681264464281
4.243508557768089
4.218890669108104
4.218890669108104
4.231199613438097
4.249663029933098
4.225045141273086
4.200427252613103
4.181963836118102
4.151191475293081
4.1327280587980795
4.114264642303079
4.108110170138069
4.114264642303079
4.114264642303079
4.101955697973087
4.083492281478085
4.101955697973087
4.120419114468088
4.114264642303079
4.114264642303079
4.101955697973087
4.108110170138069
4.095801225808079
4.089646753643067
4.089646753643067
4.083492281478085
4.077337809313075
4.083492281478085
4.095801225808079
4.101955697973087
4.108110170138069
4.120419114468088
4.120419114468088
4.101955697973087
4.114264642303079
4.101955697973087
4.089646753643067
4.083492281478085
4.083492281478085
4.077337809313075
4.114264642303079
4.120419114468088
4.120419114468088
4.114264642303079
4.108110170138069
4.101955697973087
4.095801225808079
4.077337809313075
4.0465654484880815
4.040410976323072
4.065028864983084
4.120419114468088
4.1327280587980795
4.114264642303079
4.089646753643067
4.089646753643067
4.089646753643067
4.083492281478085
4.083492281478085
4.077337809313075
4.065028864983084
4.028102031993082
4.034256504158063
4.0465654484880815
4.065028864983084
4.0711833371480655
4.077337809313075
4.065028864983084
4.065028864983084
4.065028864983084
4.058874392818074
4.052719920653064
4.0465654484880815
4.0465654484880815
4.0465654484880815
4.052719920653064
4.040410976323072
4.040410976323072
4.040410976323072
4.0465654484880815
4.028102031993082
4.034256504158063
4.028102031993082
4.021947559828071
4.003484143333068
3.9973296711680604
4.034256504158063
4.052719920653064
4.052719920653064
4.052719920653064
4.0465654484880815
4.028102031993082
4.021947559828071
4.040410976323072
4.058874392818074
4.058874392818074
4.040410976323072
4.034256504158063
4.052719920653064
4.052719920653064
4.052719920653064
4.0465654484880815
4.052719920653064
4.040410976323072
4.0465654484880815
4.040410976323072
4.040410976323072
4.0465654484880815
4.009638615498079
3.9357849495180455
4.034256504158063
4.009638615498079
3.9850207268380675
3.9911751990030497
3.9911751990030497
4.015793087663061
4.034256504158063
4.034256504158063
4.040410976323072
4.058874392818074
4.058874392818074
4.058874392818074
4.058874392818074
4.058874392818074
4.0465654484880815
4.052719920653064
4.040410976323072
4.040410976323072
4.040410976323072
4.052719920653064
4.065028864983084
4.058874392818074
4.077337809313075
4.138882530963089
4.1942727804480935
4.2065817247780855
4.1758093639530935
4.108110170138069
4.003484143333068
3.9111670608580615
3.855776811373057
3.8619312835380395
3.905012588693053
3.9727117825080467
4.015793087663061
4.0465654484880815
4.065028864983084
4.065028864983084
4.052719920653064
4.040410976323072
4.040410976323072
4.034256504158063
4.0465654484880815
4.0465654484880815
4.040410976323072
4.034256504158063
4.034256504158063
4.015793087663061
4.015793087663061
4.021947559828071
4.028102031993082
4.040410976323072
4.034256504158063
4.034256504158063
4.028102031993082
4.0465654484880815
4.065028864983084
4.083492281478085
4.0711833371480655
4.077337809313075
4.077337809313075
4.065028864983084
4.052719920653064
4.083492281478085
4.065028864983084
4.0711833371480655
4.0711833371480655
4.083492281478085
4.108110170138069
4.108110170138069
4.114264642303079
4.095801225808079
4.114264642303079
4.157345947458091
4.200427252613103
4.2065817247780855
4.1758093639530935
4.157345947458091
4.1942727804480935
4.231199613438097
4.255817502098108
4.243508557768089
4.225045141273086
4.225045141273086
4.212736196943095
4.212736196943095
4.212736196943095
4.212736196943095
4.231199613438097
4.218890669108104
4.212736196943095
4.200427252613103
4.200427252613103
4.200427252613103
4.1942727804480935
4.188118308283084
4.1942727804480935
4.1942727804480935
4.181963836118102
4.1758093639530935
4.163500419623101
4.163500419623101
4.163500419623101
4.157345947458091
4.145037003128072
4.12657358663307
4.108110170138069
4.095801225808079
4.077337809313075
4.058874392818074
4.040410976323072
4.009638615498079
4.009638615498079
3.9911751990030497
3.9911751990030497
3.9850207268380675
3.9788662546730578
3.9850207268380675
3.9788662546730578
3.9788662546730578
3.9727117825080467
3.905012588693053
3.9788662546730578
3.9665573103430645
3.9850207268380675
3.9788662546730578
3.9234760051880535
3.9357849495180455
3.948093893848065
3.9604028381780574
3.9542483660130467
3.9419394216830552
3.948093893848065
3.9727117825080467
3.9542483660130467
3.9357849495180455
3.948093893848065
3.9419394216830552
3.948093893848065
3.9357849495180455
3.9296304773530633
3.9419394216830552
3.9357849495180455
3.948093893848065
3.9419394216830552
3.9419394216830552
3.948093893848065
3.9419394216830552
3.948093893848065
3.8927036443630603
3.8680857557030492
3.9850207268380675
3.9850207268380675
3.9727117825080467
3.9542483660130467
3.9357849495180455
3.905012588693053
3.8803947000330408
3.8927036443630603
3.9173215330230438
3.9296304773530633
3.948093893848065
3.9357849495180455
3.9357849495180455
3.9357849495180455
3.9357849495180455
3.9357849495180455
3.9419394216830552
3.9419394216830552
3.948093893848065
3.9419394216830552
3.948093893848065
3.9296304773530633
3.9173215330230438
3.9234760051880535
3.9419394216830552
3.948093893848065
3.9604028381780574
3.9665573103430645
3.9542483660130467
3.948093893848065
3.9727117825080467
3.9911751990030497
3.9973296711680604
3.9911751990030497
3.9911751990030497
3.9973296711680604
4.009638615498079
4.028102031993082
4.040410976323072
4.052719920653064
4.058874392818074
4.0711833371480655
4.077337809313075
4.101955697973087
4.12657358663307
4.169654891788083
4.181963836118102
4.212736196943095
4.237354085603107
4.2681264464281
4.255817502098108
4.261971974263091
4.255817502098108
4.231199613438097
4.237354085603107
4.2681264464281
4.2865898629231
4.298898807253093
4.292744335088111
4.2865898629231
4.292744335088111
4.27428091859311
4.27428091859311
4.298898807253093
4.280435390758093
4.280435390758093
4.280435390758093
4.298898807253093
4.323516695913104
4.329671168078114
4.329671168078114
4.341980112408105
4.348134584573115
4.341980112408105
4.298898807253093
4.27428091859311
4.323516695913104
4.3727524732331275
4.40352483405812
4.391215889728128
4.391215889728128
4.40352483405812
4.415833778388112
4.40967930622313
4.428142722718132
4.471224027873144
4.538923221688139
4.563541110348153
4.563541110348153
4.52661427735815
4.458915083543125
4.354289056738125
4.2065817247780855
4.255817502098108
4.280435390758093
4.329671168078114
4.397370361893111
4.428142722718132
4.446606139213133
4.471224027873144
4.434297194883113
4.471224027873144
4.489687444368147
4.501996388698137
4.508150860863147
4.501996388698137
4.508150860863147
4.52661427735815
4.538923221688139
4.557386638183142
4.5820045268431535
4.5943134711731455
4.5820045268431535
4.588158999008135
4.6004679433381535
4.618931359833156
4.631240304163148
4.625085831998166
4.6435492484931675
4.686630553648152
4.68047608148317
4.655858192823159
4.6435492484931675
4.655858192823159
4.655858192823159
4.637394776328158
4.625085831998166
4.5943134711731455
4.563541110348153
4.54507769385315
4.5327687495231315
4.520459805193139
4.520459805193139
4.520459805193139
4.501996388698137
4.489687444368147
4.489687444368147
4.489687444368147
4.483532972203136
4.483532972203136
4.471224027873144
4.477378500038126
4.489687444368147
4.501996388698137
4.489687444368147
4.471224027873144
4.477378500038126
4.514305333028129
4.520459805193139
4.514305333028129
4.508150860863147
4.501996388698137
4.495841916533129
4.508150860863147
4.501996388698137
4.489687444368147
4.520459805193139
4.501996388698137
4.501996388698137
4.495841916533129
4.483532972203136
4.477378500038126
4.465069555708134
4.471224027873144
4.465069555708134
4.471224027873144
4.471224027873144
4.465069555708134
4.446606139213133
4.421988250553122
4.397370361893111
4.37890694539811
4.385061417563119
4.385061417563119
4.391215889728128
4.397370361893111
4.391215889728128
4.391215889728128
4.366598001068117
4.3727524732331275
4.366598001068117
4.366598001068117
4.341980112408105
4.335825640243124
4.341980112408105
4.354289056738125
4.348134584573115
4.341980112408105
4.341980112408105
4.341980112408105
4.341980112408105
4.348134584573115
4.335825640243124
4.329671168078114
4.323516695913104
4.3173622237481215
4.323516695913104
4.323516695913104
4.3173622237481215
4.323516695913104
4.329671168078114
4.3173622237481215
4.298898807253093
4.2681264464281
4.280435390758093
4.323516695913104
4.335825640243124
4.329671168078114
4.3173622237481215
4.305053279418103
4.298898807253093
4.292744335088111
4.2865898629231
4.255817502098108
4.1942727804480935
4.27428091859311
4.2865898629231
4.231199613438097
4.237354085603107
4.255817502098108
4.2681264464281
4.27428091859311
4.261971974263091
4.255817502098108
4.249663029933098
4.231199613438097
4.212736196943095
4.1942727804480935
4.2065817247780855
4.249663029933098
4.280435390758093
4.27428091859311
4.261971974263091
4.249663029933098
4.237354085603107
4.243508557768089
4.249663029933098
4.249663029933098
4.255817502098108
4.261971974263091
4.255817502098108
4.255817502098108
4.249663029933098
4.249663029933098
4.255817502098108
4.2681264464281
4.2681264464281
4.261971974263091
4.261971974263091
4.255817502098108
4.255817502098108
4.255817502098108
4.255817502098108
4.255817502098108
4.2681264464281
4.261971974263091
4.261971974263091
4.2681264464281
4.27428091859311
4.2681264464281
4.292744335088111
4.3112077515831135
4.305053279418103
4.329671168078114
4.305053279418103
4.280435390758093
4.305053279418103
4.298898807253093
4.305053279418103
4.3112077515831135
4.305053279418103
4.298898807253093
4.3112077515831135
4.3112077515831135
4.3112077515831135
4.3173622237481215
4.3173622237481215
4.305053279418103
4.329671168078114
4.3173622237481215
4.298898807253093
4.305053279418103
4.280435390758093
4.2681264464281
4.305053279418103
4.323516695913104
4.305053279418103
4.292744335088111
4.3112077515831135
4.323516695913104
4.323516695913104
4.3173622237481215
4.3173622237481215
4.3173622237481215
4.323516695913104
4.3173622237481215
4.329671168078114
4.323516695913104
4.329671168078114
4.335825640243124
4.341980112408105
4.360443528903107
4.397370361893111
4.421988250553122
4.440451667048122
4.40352483405812
4.329671168078114
4.2681264464281
4.188118308283084
4.114264642303079
4.058874392818074
4.0711833371480655
4.2065817247780855
4.2681264464281
4.2865898629231
4.3112077515831135
4.329671168078114
4.341980112408105
4.2865898629231
4.261971974263091
4.27428091859311
4.2681264464281
4.27428091859311
4.2865898629231
4.292744335088111
4.3173622237481215
4.3173622237481215
4.3112077515831135
4.3112077515831135
4.3173622237481215
4.27428091859311
4.261971974263091
4.292744335088111
4.3173622237481215
4.3173622237481215
4.305053279418103
4.280435390758093
4.341980112408105
4.360443528903107
4.348134584573115
4.354289056738125
4.348134584573115
4.2865898629231
4.3173622237481215
4.354289056738125
4.360443528903107
4.360443528903107
4.366598001068117
4.37890694539811
4.37890694539811
4.37890694539811
4.397370361893111
4.385061417563119
4.366598001068117
4.40967930622313
4.440451667048122
4.458915083543125
4.440451667048122
4.446606139213133
4.446606139213133
4.452760611378115
4.465069555708134
4.458915083543125
4.446606139213133
4.446606139213133
4.446606139213133
4.471224027873144
4.489687444368147
4.501996388698137
4.489687444368147
4.489687444368147
4.489687444368147
4.483532972203136
4.489687444368147
4.508150860863147
4.514305333028129
4.495841916533129
4.508150860863147
4.538923221688139
4.538923221688139
4.52661427735815
4.495841916533129
4.501996388698137
4.508150860863147
4.501996388698137
4.508150860863147
4.495841916533129
4.477378500038126
4.471224027873144
4.471224027873144
4.471224027873144
4.471224027873144
4.471224027873144
4.471224027873144
4.458915083543125
4.465069555708134
4.452760611378115
4.458915083543125
4.452760611378115
4.434297194883113
4.440451667048122
4.434297194883113
4.465069555708134
4.465069555708134
4.471224027873144
4.452760611378115
4.458915083543125
4.452760611378115
4.446606139213133
4.440451667048122
4.446606139213133
4.465069555708134
4.483532972203136
4.471224027873144
4.477378500038126
4.471224027873144
4.471224027873144
4.477378500038126
4.471224027873144
4.458915083543125
4.458915083543125
4.458915083543125
4.477378500038126
4.495841916533129
4.477378500038126
4.434297194883113
4.440451667048122
4.483532972203136
4.489687444368147
4.477378500038126
4.477378500038126
4.483532972203136
4.489687444368147
4.477378500038126
4.477378500038126
4.471224027873144
4.458915083543125
4.465069555708134
4.465069555708134
4.477378500038126
4.477378500038126
4.471224027873144
4.465069555708134
4.471224027873144
4.471224027873144
4.483532972203136
4.489687444368147
4.471224027873144
4.440451667048122
4.465069555708134
4.477378500038126
4.458915083543125
4.458915083543125
4.452760611378115
4.458915083543125
4.446606139213133
4.434297194883113
4.40967930622313
4.341980112408105
4.37890694539811
4.428142722718132
4.465069555708134
4.483532972203136
4.489687444368147
4.489687444368147
4.489687444368147
4.489687444368147
4.495841916533129
4.514305333028129
4.52661427735815
4.54507769385315
4.551232166018132
4.563541110348153
4.6004679433381535
4.618931359833156
4.631240304163148
4.655858192823159
4.662012664988168
4.655858192823159
4.668167137153151
4.686630553648152
4.705093970143154
4.711248442308165
4.723557386638154
4.735866330968175
4.760484219628157
4.766638691793168
4.766638691793168
4.772793163958178
4.772793163958178
4.785102108288171
4.81587446911319
4.846646829938186
4.840492357773174
4.834337885608192
4.840492357773174
4.883573662928187
4.883573662928187
4.871264718598195
4.871264718598195
4.871264718598195
4.877419190763177
4.895882607258178
4.902037079423188
4.895882607258178
4.908191551588198
4.91434602375318
4.92050049591819
4.9266549680832
4.92050049591819
4.902037079423188
4.883573662928187
4.889728135093197
4.877419190763177
4.877419190763177
4.895882607258178
4.91434602375318
4.9266549680832
4.93896391241319
4.994354161898196
5.037435467053208
5.006663106228215
4.994354161898196
4.895882607258178
4.772793163958178
4.686630553648152
4.655858192823159
4.698939497978172
4.754329747463175
4.803565524783171
4.834337885608192
4.846646829938186
4.8528013021031935
4.846646829938186
4.822028941278172
4.7912565804531795
4.797411052618189
4.797411052618189
4.809719996948181
4.809719996948181
4.81587446911319
4.797411052618189
4.785102108288171
4.81587446911319
4.840492357773174
4.822028941278172
4.803565524783171
4.803565524783171
4.797411052618189
4.778947636123188
4.785102108288171
4.7912565804531795
4.797411052618189
4.7912565804531795
4.7912565804531795
4.7912565804531795
4.7912565804531795
4.797411052618189
4.7912565804531795
4.785102108288171
4.772793163958178
4.748175275298167
4.7297118588031655
4.723557386638154
4.711248442308165
4.717402914473172
4.748175275298167
4.785102108288171
4.7912565804531795
4.797411052618189
4.803565524783171
4.797411052618189
4.7912565804531795
4.797411052618189
4.803565524783171
4.803565524783171
4.797411052618189
4.7912565804531795
4.7912565804531795
4.766638691793168
4.711248442308165
4.7912565804531795
4.81587446911319
4.785102108288171
4.723557386638154
4.735866330968175
4.754329747463175
4.760484219628157
4.754329747463175
4.748175275298167
4.772793163958178
4.778947636123188
4.772793163958178
4.760484219628157
4.754329747463175
4.735866330968175
4.7420208031331565
4.735866330968175
4.735866330968175
4.711248442308165
4.698939497978172
4.655858192823159
4.618931359833156
4.618931359833156
4.618931359833156
4.612776887668146
4.6004679433381535
4.6004679433381535
4.5943134711731455
4.575850054678144
4.5327687495231315
4.52661427735815
4.538923221688139
4.52661427735815
4.520459805193139
4.520459805193139
4.508150860863147
4.489687444368147
4.489687444368147
4.477378500038126
4.471224027873144
4.465069555708134
4.452760611378115
4.354289056738125
4.452760611378115
4.495841916533129
4.489687444368147
4.489687444368147
4.483532972203136
4.508150860863147
4.471224027873144
4.421988250553122
4.440451667048122
4.421988250553122
4.440451667048122
4.471224027873144
4.483532972203136
4.483532972203136
4.465069555708134
4.440451667048122
4.440451667048122
4.440451667048122
4.421988250553122
4.40967930622313
4.421988250553122
4.446606139213133
4.452760611378115
4.458915083543125
4.446606139213133
4.440451667048122
4.440451667048122
4.465069555708134
4.471224027873144
4.483532972203136
4.471224027873144
4.452760611378115
4.415833778388112
4.434297194883113
4.477378500038126
4.489687444368147
4.471224027873144
4.477378500038126
4.483532972203136
4.501996388698137
4.508150860863147
4.514305333028129
4.514305333028129
4.520459805193139
4.538923221688139
4.5327687495231315
4.520459805193139
4.514305333028129
4.520459805193139
4.538923221688139
4.54507769385315
4.54507769385315
4.551232166018132
4.563541110348153
4.54507769385315
4.52661427735815
4.563541110348153
4.569695582513134
4.563541110348153
4.569695582513134
4.5943134711731455
4.557386638183142
4.52661427735815
4.538923221688139
4.514305333028129
4.489687444368147
4.483532972203136
4.483532972203136
4.483532972203136
4.458915083543125
4.483532972203136
4.495841916533129
4.495841916533129
4.489687444368147
4.465069555708134
4.452760611378115
4.446606139213133
4.434297194883113
4.391215889728128
4.489687444368147
4.52661427735815
4.5327687495231315
4.508150860863147
4.495841916533129
4.477378500038126
4.428142722718132
4.440451667048122
4.440451667048122
4.452760611378115
4.465069555708134
4.483532972203136
4.489687444368147
4.495841916533129
4.489687444368147
4.483532972203136
4.471224027873144
4.465069555708134
4.446606139213133
4.440451667048122
4.446606139213133
4.452760611378115
4.440451667048122
4.415833778388112
4.385061417563119
4.366598001068117
4.385061417563119
4.40352483405812
4.391215889728128
4.385061417563119
4.366598001068117
4.366598001068117
4.366598001068117
4.3727524732331275
4.397370361893111
4.452760611378115
4.471224027873144
4.452760611378115
4.391215889728128
4.280435390758093
4.163500419623101
4.077337809313075
4.052719920653064
4.089646753643067
4.169654891788083
4.200427252613103
4.225045141273086
4.231199613438097
4.225045141273086
4.1942727804480935
4.163500419623101
4.1758093639530935
4.1942727804480935
4.1942727804480935
4.2065817247780855
4.2065817247780855
4.1942727804480935
4.1942727804480935
4.1942727804480935
4.1758093639530935
4.157345947458091
4.138882530963089
4.108110170138069
4.138882530963089
4.12657358663307
4.12657358663307
4.12657358663307
4.12657358663307
4.120419114468088
4.120419114468088
4.108110170138069
4.101955697973087
4.089646753643067
4.095801225808079
4.12657358663307
4.151191475293081
4.138882530963089
4.151191475293081
4.151191475293081
4.145037003128072
4.1327280587980795
4.138882530963089
4.120419114468088
4.101955697973087
4.120419114468088
4.163500419623101
4.163500419623101
4.157345947458091
4.163500419623101
4.1758093639530935
4.151191475293081
4.151191475293081
4.1327280587980795
4.12657358663307
4.1327280587980795
4.12657358663307
4.145037003128072
4.138882530963089
4.151191475293081
4.151191475293081
4.151191475293081
4.138882530963089
4.138882530963089
4.145037003128072
4.138882530963089
4.145037003128072
4.157345947458091
4.151191475293081
4.157345947458091
4.188118308283084
4.2065817247780855
4.200427252613103
4.1942727804480935
4.181963836118102
4.163500419623101
4.138882530963089
4.12657358663307
4.108110170138069
4.095801225808079
4.065028864983084
4.0465654484880815
3.9850207268380675
4.065028864983084
4.003484143333068
4.009638615498079
4.021947559828071
4.021947559828071
4.021947559828071
4.015793087663061
3.9911751990030497
3.9973296711680604
4.009638615498079
4.015793087663061
4.021947559828071
4.015793087663061
4.021947559828071
4.021947559828071
4.028102031993082
4.015793087663061
3.9973296711680604
3.9973296711680604
3.9911751990030497
3.9911751990030497
4.003484143333068
4.021947559828071
4.021947559828071
4.009638615498079
4.015793087663061
4.015793087663061
4.015793087663061
4.015793087663061
4.009638615498079
4.003484143333068
4.003484143333068
3.9727117825080467
3.9911751990030497
4.009638615498079
3.9973296711680604
3.9850207268380675
3.9973296711680604
4.003484143333068
4.021947559828071
3.9973296711680604
4.003484143333068
3.9911751990030497
3.9788662546730578
3.9665573103430645
3.9665573103430645
3.9665573103430645
3.9727117825080467
3.9542483660130467
3.948093893848065
3.9419394216830552
3.9419394216830552
3.948093893848065
3.9542483660130467
3.9542483660130467
3.948093893848065
3.9234760051880535
3.9234760051880535
3.9419394216830552
3.9542483660130467
3.9542483660130467
3.9665573103430645
3.948093893848065
3.9604028381780574
3.948093893848065
3.9419394216830552
3.9419394216830552
3.9296304773530633
3.9296304773530633
3.9357849495180455
3.9357849495180455
3.9357849495180455
3.9296304773530633
3.9357849495180455
3.9419394216830552
3.948093893848065
3.9542483660130467
3.948093893848065
3.9357849495180455
3.948093893848065
3.9357849495180455
3.9357849495180455
3.9665573103430645
3.9911751990030497
3.9911751990030497
3.9850207268380675
3.9850207268380675
3.9850207268380675
3.9850207268380675
3.9604028381780574
3.9542483660130467
3.9604028381780574
3.9665573103430645
3.9788662546730578
3.9727117825080467
3.9604028381780574
3.9542483660130467
3.9542483660130467
3.9665573103430645
3.9973296711680604
4.003484143333068
4.009638615498079
3.9973296711680604
3.9911751990030497
3.9911751990030497
3.9788662546730578
4.009638615498079
4.028102031993082
4.040410976323072
4.034256504158063
3.9788662546730578
4.034256504158063
4.0711833371480655
4.077337809313075
4.083492281478085
4.089646753643067
4.101955697973087
4.101955697973087
4.0465654484880815
4.077337809313075
4.089646753643067
4.0465654484880815
4.145037003128072
4.1942727804480935
4.212736196943095
4.231199613438097
4.1942727804480935
4.243508557768089
4.280435390758093
4.329671168078114
4.397370361893111
4.434297194883113
4.415833778388112
4.341980112408105
4.237354085603107
4.188118308283084
4.151191475293081
4.188118308283084
4.249663029933098
4.305053279418103
4.348134584573115
4.3727524732331275
4.385061417563119
4.40352483405812
4.40967930622313
4.415833778388112
4.415833778388112
4.421988250553122
4.428142722718132
4.40967930622313
4.391215889728128
4.366598001068117
4.354289056738125
4.335825640243124
4.335825640243124
4.3112077515831135
4.292744335088111
4.329671168078114
4.335825640243124
4.323516695913104
4.3173622237481215
4.305053279418103
4.298898807253093
4.292744335088111
4.298898807253093
4.292744335088111
4.292744335088111
4.2681264464281
4.261971974263091
4.255817502098108
4.261971974263091
4.255817502098108
4.243508557768089
4.243508557768089
4.249663029933098
4.255817502098108
4.249663029933098
4.243508557768089
4.243508557768089
4.237354085603107
4.243508557768089
4.27428091859311
4.2865898629231
4.280435390758093
4.255817502098108
4.292744335088111
4.280435390758093
4.2865898629231
4.2681264464281
4.27428091859311
4.27428091859311
4.2865898629231
4.298898807253093
4.305053279418103
4.305053279418103
4.3112077515831135
4.323516695913104
4.329671168078114
4.329671168078114
4.329671168078114
4.329671168078114
4.341980112408105
4.360443528903107
4.354289056738125
4.335825640243124
4.341980112408105
4.335825640243124
4.360443528903107
4.366598001068117
4.366598001068117
4.360443528903107
4.341980112408105
4.341980112408105
4.323516695913104
4.3112077515831135
4.292744335088111
4.27428091859311
4.2681264464281
4.255817502098108
4.231199613438097
4.225045141273086
4.237354085603107
4.231199613438097
4.231199613438097
4.212736196943095
4.225045141273086
4.218890669108104
4.218890669108104
4.212736196943095
4.218890669108104
4.225045141273086
4.231199613438097
4.218890669108104
4.218890669108104
4.218890669108104
4.1942727804480935
4.200427252613103
4.225045141273086
4.237354085603107
4.243508557768089
4.237354085603107
4.237354085603107
4.218890669108104
4.181963836118102
4.261971974263091
4.2865898629231
4.292744335088111
4.2865898629231
4.27428091859311
4.280435390758093
4.249663029933098
4.231199613438097
4.280435390758093
4.2865898629231
4.280435390758093
4.280435390758093
4.2865898629231
4.280435390758093
4.280435390758093
4.243508557768089
4.261971974263091
4.2865898629231
4.292744335088111
4.280435390758093
4.280435390758093
4.280435390758093
4.305053279418103
4.341980112408105
4.348134584573115
4.341980112408105
4.348134584573115
4.341980112408105
4.360443528903107
4.360443528903107
4.360443528903107
4.360443528903107
4.366598001068117
4.3727524732331275
4.3727524732331275
4.37890694539811
4.37890694539811
4.360443528903107
4.335825640243124
4.366598001068117
4.385061417563119
4.385061417563119
4.37890694539811
4.348134584573115
4.341980112408105
4.354289056738125
4.391215889728128
4.428142722718132
4.440451667048122
4.440451667048122
4.428142722718132
4.421988250553122
4.428142722718132
4.428142722718132
4.428142722718132
4.428142722718132
4.428142722718132
4.428142722718132
4.421988250553122
4.428142722718132
4.421988250553122
4.391215889728128
4.40352483405812
4.465069555708134
4.458915083543125
4.458915083543125
4.452760611378115
4.434297194883113
4.428142722718132
4.40967930622313
4.415833778388112
4.440451667048122
4.446606139213133
4.440451667048122
4.440451667048122
4.440451667048122
4.428142722718132
4.415833778388112
4.421988250553122
4.415833778388112
4.415833778388112
4.415833778388112
4.391215889728128
4.397370361893111
4.428142722718132
4.421988250553122
4.428142722718132
4.452760611378115
4.471224027873144
4.471224027873144
4.465069555708134
4.465069555708134
4.465069555708134
4.452760611378115
4.452760611378115
4.458915083543125
4.489687444368147
4.514305333028129
4.538923221688139
4.5820045268431535
4.618931359833156
4.637394776328158
4.612776887668146
4.551232166018132
4.471224027873144
4.37890694539811
4.305053279418103
4.305053279418103
4.329671168078114
4.37890694539811
4.465069555708134
4.514305333028129
4.5327687495231315
4.52661427735815
4.520459805193139
4.520459805193139
4.514305333028129
4.520459805193139
4.538923221688139
4.54507769385315
4.5327687495231315
4.489687444368147
4.557386638183142
4.538923221688139
4.477378500038126
4.501996388698137
4.520459805193139
4.514305333028129
4.520459805193139
4.538923221688139
4.54507769385315
4.5327687495231315
4.514305333028129
4.514305333028129
4.54507769385315
4.557386638183142
4.569695582513134
4.557386638183142
4.557386638183142
4.54507769385315
4.54507769385315
4.520459805193139
4.5327687495231315
4.563541110348153
4.5820045268431535
4.569695582513134
4.569695582513134
4.557386638183142
4.557386638183142
4.54507769385315
4.54507769385315
4.538923221688139
4.557386638183142
4.563541110348153
4.557386638183142
4.5327687495231315
4.54507769385315
4.588158999008135
4.5943134711731455
4.6004679433381535
4.606622415503137
4.606622415503137
4.606622415503137
4.5820045268431535
4.5820045268431535
4.5943134711731455
4.5943134711731455
4.6004679433381535
4.5943134711731455
4.5820045268431535
4.569695582513134
4.575850054678144
4.588158999008135
4.606622415503137
4.612776887668146
4.6004679433381535
4.5820045268431535
4.551232166018132
4.495841916533129
4.514305333028129
4.606622415503137
4.575850054678144
4.551232166018132
4.52661427735815
4.514305333028129
4.501996388698137
4.434297194883113
4.434297194883113
4.434297194883113
4.440451667048122
4.440451667048122
4.434297194883113
4.421988250553122
4.421988250553122
4.397370361893111
4.385061417563119
4.3727524732331275
4.360443528903107
4.348134584573115
4.3112077515831135
4.298898807253093
4.341980112408105
4.360443528903107
4.366598001068117
4.354289056738125
4.341980112408105
4.329671168078114
4.3112077515831135
4.3112077515831135
4.3173622237481215
4.3173622237481215
4.323516695913104
4.305053279418103
4.3112077515831135
4.3173622237481215
4.3112077515831135
4.3112077515831135
4.3173622237481215
4.323516695913104
4.329671168078114
4.323516695913104
4.3112077515831135
4.3112077515831135
4.298898807253093
4.292744335088111
4.2865898629231
4.280435390758093
4.27428091859311
4.27428091859311
4.2681264464281
4.2681264464281
4.2681264464281
4.255817502098108
4.231199613438097
4.212736196943095
4.243508557768089
4.255817502098108
4.255817502098108
4.261971974263091
4.255817502098108
4.255817502098108
4.231199613438097
4.243508557768089
4.212736196943095
4.280435390758093
4.280435390758093
4.261971974263091
4.261971974263091
4.249663029933098
4.218890669108104
4.237354085603107
4.249663029933098
4.249663029933098
4.243508557768089
4.249663029933098
4.249663029933098
4.237354085603107
4.218890669108104
4.249663029933098
4.27428091859311
4.2865898629231
4.292744335088111
4.292744335088111
4.298898807253093
4.2865898629231
4.280435390758093
4.292744335088111
4.341980112408105
4.366598001068117
4.366598001068117
4.366598001068117
4.366598001068117
4.366598001068117
4.366598001068117
4.385061417563119
4.397370361893111
4.40352483405812
4.40352483405812
4.40967930622313
4.458915083543125
4.440451667048122
4.391215889728128
4.415833778388112
4.440451667048122
4.40967930622313
4.40352483405812
4.428142722718132
4.477378500038126
4.514305333028129
4.508150860863147
4.489687444368147
4.477378500038126
4.465069555708134
4.446606139213133
4.458915083543125
4.465069555708134
4.465069555708134
4.458915083543125
4.458915083543125
4.446606139213133
4.446606139213133
4.446606139213133
4.434297194883113
4.421988250553122
4.397370361893111
4.3727524732331275
4.37890694539811
4.40352483405812
4.391215889728128
4.360443528903107
4.335825640243124
4.305053279418103
4.2865898629231
4.298898807253093
4.323516695913104
4.348134584573115
4.37890694539811
4.40967930622313
4.40352483405812
4.385061417563119
4.329671168078114
4.218890669108104
4.108110170138069
4.028102031993082
4.009638615498079
4.0465654484880815
4.095801225808079
4.1327280587980795
4.138882530963089
4.145037003128072
4.163500419623101
4.1758093639530935
4.1758093639530935
4.157345947458091
4.145037003128072
4.12657358663307
4.145037003128072
4.157345947458091
4.157345947458091
4.163500419623101
4.157345947458091
4.163500419623101
4.163500419623101
4.169654891788083
4.157345947458091
4.151191475293081
4.145037003128072
4.151191475293081
4.151191475293081
4.151191475293081
4.151191475293081
4.145037003128072
4.138882530963089
4.163500419623101
4.163500419623101
4.157345947458091
4.169654891788083
4.1758093639530935
4.181963836118102
4.181963836118102
4.1942727804480935
4.231199613438097
4.218890669108104
4.212736196943095
4.1942727804480935
4.1327280587980795
4.157345947458091
4.1942727804480935
4.200427252613103
4.218890669108104
4.231199613438097
4.243508557768089
4.249663029933098
4.261971974263091
4.249663029933098
4.237354085603107
4.237354085603107
4.255817502098108
4.292744335088111
4.3173622237481215
4.3112077515831135
4.3112077515831135
4.305053279418103
4.3112077515831135
4.298898807253093
4.3112077515831135
4.335825640243124
4.348134584573115
4.341980112408105
4.329671168078114
4.341980112408105
4.335825640243124
4.335825640243124
4.323516695913104
4.3173622237481215
4.305053279418103
4.298898807253093
4.27428091859311
4.255817502098108
4.225045141273086
4.231199613438097
4.249663029933098
4.243508557768089
4.212736196943095
4.2065817247780855
4.200427252613103
4.2065817247780855
4.2065817247780855
4.188118308283084
4.188118308283084
4.169654891788083
4.169654891788083
4.157345947458091
4.157345947458091
4.163500419623101
4.163500419623101
4.157345947458091
4.151191475293081
4.157345947458091
4.163500419623101
4.163500419623101
4.163500419623101
4.163500419623101
4.12657358663307
4.108110170138069
4.1327280587980795
4.169654891788083
4.169654891788083
4.157345947458091
4.1942727804480935
4.181963836118102
4.181963836118102
4.181963836118102
4.181963836118102
4.1758093639530935
4.1758093639530935
4.145037003128072
4.1327280587980795
4.120419114468088
4.108110170138069
4.114264642303079
4.108110170138069
4.114264642303079
4.101955697973087
4.083492281478085
4.089646753643067
4.095801225808079
4.101955697973087
4.095801225808079
4.095801225808079
4.0711833371480655
4.065028864983084
4.089646753643067
4.101955697973087
4.108110170138069
4.114264642303079
4.101955697973087
4.095801225808079
4.095801225808079
4.095801225808079
4.095801225808079
4.108110170138069
4.095801225808079
4.101955697973087
4.101955697973087
4.120419114468088
4.12657358663307
4.108110170138069
4.101955697973087
4.114264642303079
4.12657358663307
4.12657358663307
4.138882530963089
4.138882530963089
4.1327280587980795
4.120419114468088
4.12657358663307
4.138882530963089
4.145037003128072
4.145037003128072
4.138882530963089
4.151191475293081
4.157345947458091
4.151191475293081
4.138882530963089
4.163500419623101
4.1758093639530935
4.138882530963089
4.1942727804480935
4.212736196943095
4.151191475293081
4.0465654484880815
4.163500419623101
4.1758093639530935
4.181963836118102
4.200427252613103
4.200427252613103
4.1942727804480935
4.157345947458091
4.1327280587980795
4.163500419623101
4.1758093639530935
4.188118308283084
4.1758093639530935
4.181963836118102
4.188118308283084
4.188118308283084
4.169654891788083
4.169654891788083
4.2065817247780855
4.225045141273086
4.225045141273086
4.225045141273086
4.218890669108104
4.218890669108104
4.225045141273086
4.218890669108104
4.218890669108104
4.200427252613103
4.181963836118102
4.1758093639530935
4.1942727804480935
4.225045141273086
4.261971974263091
4.261971974263091
4.249663029933098
4.243508557768089
4.237354085603107
4.225045141273086
4.2065817247780855
4.188118308283084
4.188118308283084
4.181963836118102
4.169654891788083
4.225045141273086
4.2865898629231
4.323516695913104
4.305053279418103
4.2865898629231
4.231199613438097
4.1327280587980795
4.015793087663061
3.9419394216830552
3.9234760051880535
3.9850207268380675
4.065028864983084
4.12657358663307
4.157345947458091
4.163500419623101
4.157345947458091
4.157345947458091
4.163500419623101
4.163500419623101
4.151191475293081
4.163500419623101
4.2065817247780855
4.188118308283084
4.163500419623101
4.188118308283084
4.212736196943095
4.261971974263091
4.225045141273086
4.200427252613103
4.188118308283084
4.188118308283084
4.1758093639530935
4.169654891788083
4.169654891788083
4.151191475293081
4.138882530963089
4.145037003128072
4.163500419623101
4.1758093639530935
4.1758093639530935
4.1758093639530935
4.181963836118102
4.1758093639530935
4.181963836118102
4.181963836118102
4.1758093639530935
4.1758093639530935
4.169654891788083
4.1758093639530935
4.181963836118102
4.181963836118102
4.188118308283084
4.181963836118102
4.200427252613103
4.212736196943095
4.237354085603107
4.218890669108104
4.231199613438097
4.280435390758093
4.2865898629231
4.280435390758093
4.2681264464281
4.2681264464281
4.27428091859311
4.27428091859311
4.2681264464281
4.27428091859311
4.292744335088111
4.292744335088111
4.292744335088111
4.298898807253093
4.27428091859311
4.2681264464281
4.2865898629231
4.27428091859311
4.261971974263091
4.329671168078114
4.348134584573115
4.323516695913104
4.298898807253093
4.292744335088111
4.2865898629231
4.249663029933098
4.2681264464281
4.261971974263091
4.237354085603107
4.2065817247780855
4.218890669108104
4.218890669108104
4.212736196943095
4.200427252613103
4.163500419623101
4.1758093639530935
4.1942727804480935
4.2065817247780855
4.2065817247780855
4.181963836118102
4.169654891788083
4.1758093639530935
4.163500419623101
4.163500419623101
4.151191475293081
4.1327280587980795
4.120419114468088
4.151191475293081
4.157345947458091
4.169654891788083
4.163500419623101
4.163500419623101
4.157345947458091
4.145037003128072
4.138882530963089
4.151191475293081
4.157345947458091
4.1758093639530935
4.1758093639530935
4.163500419623101
4.163500419623101
4.1758093639530935
4.181963836118102
4.181963836118102
4.181963836118102
4.181963836118102
4.169654891788083
4.138882530963089
4.151191475293081
4.151191475293081
4.169654891788083
4.200427252613103
4.212736196943095
4.2065817247780855
4.200427252613103
4.212736196943095
4.218890669108104
4.2065817247780855
4.188118308283084
4.1758093639530935
4.1758093639530935
4.163500419623101
4.1942727804480935
4.1758093639530935
4.169654891788083
4.1758093639530935
4.169654891788083
4.169654891788083
4.1758093639530935
4.188118308283084
4.188118308283084
4.163500419623101
4.169654891788083
4.1942727804480935
4.212736196943095
4.1942727804480935
4.181963836118102
4.181963836118102
4.181963836118102
4.181963836118102
4.200427252613103
4.212736196943095
4.218890669108104
4.231199613438097
4.237354085603107
4.237354085603107
4.243508557768089
4.243508557768089
4.249663029933098
4.249663029933098
4.243508557768089
4.243508557768089
4.255817502098108
4.2681264464281
4.261971974263091
4.2681264464281
4.280435390758093
4.2865898629231
4.3173622237481215
4.335825640243124
4.348134584573115
4.360443528903107
4.391215889728128
4.397370361893111
4.40967930622313
4.421988250553122
4.415833778388112
4.421988250553122
4.421988250553122
4.428142722718132
4.440451667048122
4.452760611378115
4.471224027873144
4.501996388698137
4.52661427735815
4.5327687495231315
4.54507769385315
4.5327687495231315
4.501996388698137
4.477378500038126
4.397370361893111
4.434297194883113
4.434297194883113
4.458915083543125
4.452760611378115
4.440451667048122
4.458915083543125
4.471224027873144
4.483532972203136
4.483532972203136
4.489687444368147
4.465069555708134
4.465069555708134
4.458915083543125
4.452760611378115
4.440451667048122
4.434297194883113
4.434297194883113
4.452760611378115
4.495841916533129
4.5327687495231315
4.569695582513134
4.575850054678144
4.508150860863147
4.391215889728128
4.329671168078114
4.261971974263091
4.181963836118102
4.145037003128072
4.188118308283084
4.261971974263091
4.329671168078114
4.366598001068117
4.3727524732331275
4.360443528903107
4.329671168078114
4.335825640243124
4.366598001068117
4.391215889728128
4.40967930622313
4.434297194883113
4.434297194883113
4.434297194883113
4.446606139213133
4.440451667048122
4.440451667048122
4.428142722718132
4.40967930622313
4.40352483405812
4.385061417563119
4.415833778388112
4.458915083543125
4.458915083543125
4.452760611378115
4.452760611378115
4.471224027873144
4.483532972203136
4.508150860863147
4.514305333028129
4.520459805193139
4.52661427735815
4.5327687495231315
4.551232166018132
4.551232166018132
4.6004679433381535
4.606622415503137
4.631240304163148
4.668167137153151
4.686630553648152
4.705093970143154
4.711248442308165
4.692785025813162
4.637394776328158
4.723557386638154
4.772793163958178
4.785102108288171
4.7912565804531795
4.7912565804531795
4.785102108288171
4.748175275298167
4.711248442308165
4.7420208031331565
4.766638691793168
4.766638691793168
4.766638691793168
4.772793163958178
4.778947636123188
4.778947636123188
4.785102108288171
4.785102108288171
4.7912565804531795
4.797411052618189
4.797411052618189
4.797411052618189
4.7912565804531795
4.766638691793168
4.766638691793168
4.7420208031331565
4.766638691793168
4.785102108288171
4.778947636123188
4.754329747463175
4.7420208031331565
4.723557386638154
4.705093970143154
4.698939497978172
4.711248442308165
4.711248442308165
4.711248442308165
4.698939497978172
4.698939497978172
4.686630553648152
4.692785025813162
4.67432160931816
4.67432160931816
4.668167137153151
4.668167137153151
4.67432160931816
4.668167137153151
4.662012664988168
4.6435492484931675
4.637394776328158
4.612776887668146
4.711248442308165
4.7297118588031655
4.7420208031331565
4.705093970143154
4.662012664988168
4.686630553648152
4.668167137153151
4.67432160931816
4.67432160931816
4.686630553648152
4.705093970143154
4.723557386638154
4.7297118588031655
4.7297118588031655
4.723557386638154
4.748175275298167
4.7420208031331565
4.7420208031331565
4.735866330968175
4.760484219628157
4.754329747463175
4.748175275298167
4.785102108288171
4.803565524783171
4.803565524783171
4.797411052618189
4.778947636123188
4.748175275298167
4.723557386638154
4.711248442308165
4.698939497978172
4.705093970143154
4.692785025813162
4.67432160931816
4.67432160931816
4.67432160931816
4.655858192823159
4.6435492484931675
4.631240304163148
4.631240304163148
4.625085831998166
4.618931359833156
4.606622415503137
4.612776887668146
4.625085831998166
4.5943134711731455
4.5943134711731455
4.625085831998166
4.631240304163148
4.625085831998166
4.625085831998166
4.618931359833156
4.625085831998166
4.625085831998166
4.631240304163148
4.612776887668146
4.618931359833156
4.631240304163148
4.655858192823159
4.662012664988168
4.655858192823159
4.668167137153151
4.655858192823159
4.692785025813162
4.686630553648152
4.668167137153151
4.637394776328158
4.612776887668146
4.631240304163148
4.637394776328158
4.6435492484931675
4.631240304163148
4.637394776328158
4.631240304163148
4.612776887668146
4.618931359833156
4.618931359833156
4.6004679433381535
4.575850054678144
4.5820045268431535
4.588158999008135
4.588158999008135
4.588158999008135
4.569695582513134
4.551232166018132
4.54507769385315
4.54507769385315
4.551232166018132
4.538923221688139
4.538923221688139
4.569695582513134
4.5820045268431535
4.551232166018132
4.538923221688139
4.538923221688139
4.5327687495231315
4.501996388698137
4.495841916533129
4.508150860863147
4.5327687495231315
4.5327687495231315
4.514305333028129
4.501996388698137
4.489687444368147
4.477378500038126
4.471224027873144
4.471224027873144
4.471224027873144
4.465069555708134
4.458915083543125
4.465069555708134
4.458915083543125
4.452760611378115
4.489687444368147
4.52661427735815
4.551232166018132
4.5943134711731455
4.637394776328158
4.6435492484931675
4.618931359833156
4.538923221688139
4.385061417563119
4.348134584573115
4.305053279418103
4.323516695913104
4.37890694539811
4.415833778388112
4.428142722718132
4.415833778388112
4.397370361893111
4.428142722718132
4.452760611378115
4.434297194883113
4.434297194883113
4.452760611378115
4.452760611378115
4.446606139213133
4.465069555708134
4.483532972203136
4.483532972203136
4.477378500038126
4.483532972203136
4.483532972203136
4.489687444368147
4.489687444368147
4.501996388698137
4.489687444368147
4.489687444368147
4.489687444368147
4.489687444368147
4.489687444368147
4.477378500038126
4.477378500038126
4.471224027873144
4.477378500038126
4.465069555708134
4.434297194883113
4.452760611378115
4.471224027873144
4.477378500038126
4.477378500038126
4.483532972203136
4.495841916533129
4.501996388698137
4.495841916533129
4.495841916533129
4.495841916533129
4.483532972203136
4.483532972203136
4.489687444368147
4.501996388698137
4.514305333028129
4.5327687495231315
4.538923221688139
4.5327687495231315
4.514305333028129
4.514305333028129
4.520459805193139
4.508150860863147
4.489687444368147
4.520459805193139
4.520459805193139
4.52661427735815
4.514305333028129
4.52661427735815
4.551232166018132
4.520459805193139
4.52661427735815
4.508150860863147
4.501996388698137
4.495841916533129
4.495841916533129
4.483532972203136
4.477378500038126
4.465069555708134
4.446606139213133
4.446606139213133
4.428142722718132
4.421988250553122
4.421988250553122
4.40352483405812
4.391215889728128
4.354289056738125
4.360443528903107
4.37890694539811
4.3727524732331275
4.366598001068117
4.348134584573115
4.341980112408105
4.329671168078114
4.329671168078114
4.3112077515831135
4.292744335088111
4.292744335088111
4.2865898629231
4.292744335088111
4.292744335088111
4.2865898629231
4.2681264464281
4.280435390758093
4.2865898629231
4.280435390758093
4.2865898629231
4.2865898629231
4.2865898629231
4.2681264464281
4.292744335088111
4.323516695913104
4.329671168078114
4.329671168078114
4.329671168078114
4.323516695913104
4.335825640243124
4.341980112408105
4.341980112408105
4.341980112408105
4.348134584573115
4.341980112408105
4.3112077515831135
4.298898807253093
4.2865898629231
4.292744335088111
4.305053279418103
4.255817502098108
4.329671168078114
4.2865898629231
4.249663029933098
4.261971974263091
4.231199613438097
4.243508557768089
4.27428091859311
4.280435390758093
4.2865898629231
4.280435390758093
4.2681264464281
4.261971974263091
4.243508557768089
4.237354085603107
4.231199613438097
4.237354085603107
4.225045141273086
4.1327280587980795
4.218890669108104
4.27428091859311
4.261971974263091
4.249663029933098
4.243508557768089
4.231199613438097
4.218890669108104
4.181963836118102
4.218890669108104
4.218890669108104
4.200427252613103
4.231199613438097
4.249663029933098
4.249663029933098
4.261971974263091
4.255817502098108
4.255817502098108
4.249663029933098
4.225045141273086
4.231199613438097
4.243508557768089
4.27428091859311
4.280435390758093
4.280435390758093
4.2865898629231
4.2865898629231
4.3112077515831135
4.3112077515831135
4.298898807253093
4.305053279418103
4.298898807253093
4.292744335088111
4.292744335088111
4.255817502098108
4.255817502098108
4.2865898629231
4.3112077515831135
4.298898807253093
4.2865898629231
4.298898807253093
4.298898807253093
4.3112077515831135
4.3173622237481215
4.3173622237481215
4.323516695913104
4.329671168078114
4.3173622237481215
4.329671168078114
4.329671168078114
4.323516695913104
4.329671168078114
4.323516695913104
4.348134584573115
4.354289056738125
4.354289056738125
4.348134584573115
4.354289056738125
4.335825640243124
4.3112077515831135
4.341980112408105
4.366598001068117
4.3727524732331275
4.354289056738125
4.37890694539811
4.360443528903107
4.348134584573115
4.354289056738125
4.354289056738125
4.360443528903107
4.354289056738125
4.341980112408105
4.348134584573115
4.360443528903107
4.366598001068117
4.397370361893111
4.415833778388112
4.446606139213133
4.477378500038126
4.489687444368147
4.477378500038126
4.434297194883113
4.335825640243124
4.212736196943095
4.157345947458091
4.1758093639530935
4.231199613438097
4.298898807253093
4.341980112408105
4.360443528903107
4.3727524732331275
4.3727524732331275
4.3727524732331275
4.3727524732331275
4.366598001068117
4.37890694539811
4.3727524732331275
4.391215889728128
4.415833778388112
4.421988250553122
4.452760611378115
4.458915083543125
4.471224027873144
4.458915083543125
4.415833778388112
4.477378500038126
4.477378500038126
4.452760611378115
4.477378500038126
4.446606139213133
4.428142722718132
4.446606139213133
4.452760611378115
4.465069555708134
4.471224027873144
4.465069555708134
4.477378500038126
4.471224027873144
4.477378500038126
4.483532972203136
4.477378500038126
4.489687444368147
4.489687444368147
4.483532972203136
4.483532972203136
4.489687444368147
4.508150860863147
4.520459805193139
4.495841916533129
4.477378500038126
4.520459805193139
4.538923221688139
4.5327687495231315
4.514305333028129
4.520459805193139
4.520459805193139
4.514305333028129
4.52661427735815
4.5327687495231315
4.538923221688139
4.538923221688139
4.5327687495231315
4.538923221688139
4.54507769385315
4.563541110348153
4.569695582513134
4.569695582513134
4.557386638183142
4.563541110348153
4.563541110348153
4.5820045268431535
4.588158999008135
4.569695582513134
4.569695582513134
4.6004679433381535
4.6004679433381535
4.5820045268431535
4.569695582513134
4.551232166018132
4.5327687495231315
4.52661427735815
4.501996388698137
4.489687444368147
4.458915083543125
4.452760611378115
4.452760611378115
4.440451667048122
4.421988250553122
4.434297194883113
4.421988250553122
4.397370361893111
4.391215889728128
4.37890694539811
4.37890694539811
4.37890694539811
4.397370361893111
4.415833778388112
4.385061417563119
4.385061417563119
4.415833778388112
4.421988250553122
4.421988250553122
4.415833778388112
4.40967930622313
4.40352483405812
4.391215889728128
4.40352483405812
4.391215889728128
4.40352483405812
4.40352483405812
4.391215889728128
4.391215889728128
4.397370361893111
4.397370361893111
4.391215889728128
4.385061417563119
4.37890694539811
4.37890694539811
4.37890694539811
4.37890694539811
4.3727524732331275
4.366598001068117
4.354289056738125
4.366598001068117
4.397370361893111
4.40352483405812
4.397370361893111
4.40352483405812
4.40352483405812
4.391215889728128
4.385061417563119
4.366598001068117
4.3727524732331275
4.3727524732331275
4.360443528903107
4.360443528903107
4.354289056738125
4.348134584573115
4.348134584573115
4.348134584573115
4.348134584573115
4.360443528903107
4.348134584573115
4.354289056738125
4.335825640243124
4.292744335088111
4.255817502098108
4.360443528903107
4.366598001068117
4.354289056738125
4.335825640243124
4.3112077515831135
4.3173622237481215
4.329671168078114
4.2865898629231
4.280435390758093
4.305053279418103
4.323516695913104
4.329671168078114
4.3173622237481215
4.323516695913104
4.329671168078114
4.323516695913104
4.323516695913104
4.323516695913104
4.3112077515831135
4.3112077515831135
4.305053279418103
4.2865898629231
4.3173622237481215
4.305053279418103
4.27428091859311
4.292744335088111
4.298898807253093
4.280435390758093
4.280435390758093
4.2865898629231
4.3173622237481215
4.329671168078114
4.335825640243124
4.329671168078114
4.329671168078114
4.329671168078114
4.323516695913104
4.335825640243124
4.323516695913104
4.323516695913104
4.335825640243124
4.329671168078114
4.329671168078114
4.335825640243124
4.3173622237481215
4.2865898629231
4.292744335088111
4.3112077515831135
4.3112077515831135
4.305053279418103
4.298898807253093
4.305053279418103
4.305053279418103
4.305053279418103
4.298898807253093
4.2865898629231
4.2681264464281
4.27428091859311
4.292744335088111
4.3173622237481215
4.329671168078114
4.3112077515831135
4.292744335088111
4.329671168078114
4.323516695913104
4.3112077515831135
4.298898807253093
4.292744335088111
4.2681264464281
4.2865898629231
4.292744335088111
4.3173622237481215
4.335825640243124
4.391215889728128
4.434297194883113
4.428142722718132
4.391215889728128
4.305053279418103
4.212736196943095
4.12657358663307
4.065028864983084
4.052719920653064
4.101955697973087
4.169654891788083
4.200427252613103
4.138882530963089
4.188118308283084
4.249663029933098
4.243508557768089
4.243508557768089
4.231199613438097
4.225045141273086
4.181963836118102
4.138882530963089
4.163500419623101
4.181963836118102
4.1942727804480935
4.188118308283084
4.1758093639530935
4.181963836118102
4.163500419623101
4.169654891788083
4.188118308283084
4.181963836118102
4.1758093639530935
4.181963836118102
4.169654891788083
4.157345947458091
4.157345947458091
4.157345947458091
4.157345947458091
4.151191475293081
4.163500419623101
4.1758093639530935
4.1942727804480935
4.188118308283084
4.1942727804480935
4.200427252613103
4.200427252613103
4.1942727804480935
4.1942727804480935
4.157345947458091
4.212736196943095
4.218890669108104
4.169654891788083
4.169654891788083
4.200427252613103
4.218890669108104
4.231199613438097
4.237354085603107
4.249663029933098
4.249663029933098
4.255817502098108
4.261971974263091
4.2681264464281
4.261971974263091
4.261971974263091
4.261971974263091
4.249663029933098
4.249663029933098
4.218890669108104
4.243508557768089
4.2865898629231
4.3173622237481215
4.3173622237481215
4.3112077515831135
4.292744335088111
4.292744335088111
4.298898807253093
4.305053279418103
4.292744335088111
4.27428091859311
4.249663029933098
4.2681264464281
4.292744335088111
4.298898807253093
4.292744335088111
4.2681264464281
4.261971974263091
4.249663029933098
4.225045141273086
4.1942727804480935
4.163500419623101
4.1327280587980795
4.095801225808079
4.0711833371480655
4.089646753643067
4.089646753643067
4.077337809313075
4.0711833371480655
4.058874392818074
4.034256504158063
4.028102031993082
4.034256504158063
4.0465654484880815
4.034256504158063
4.015793087663061
4.015793087663061
4.003484143333068
3.9973296711680604
4.015793087663061
4.021947559828071
4.015793087663061
4.003484143333068
3.9973296711680604
4.040410976323072
4.021947559828071
4.009638615498079
4.003484143333068
4.021947559828071
4.040410976323072
4.0465654484880815
4.034256504158063
4.021947559828071
3.9973296711680604
3.9973296711680604
3.9973296711680604
3.9973296711680604
4.021947559828071
4.021947559828071
4.034256504158063
4.028102031993082
4.021947559828071
4.015793087663061
4.021947559828071
4.021947559828071
4.009638615498079
4.009638615498079
4.003484143333068
4.003484143333068
3.9973296711680604
4.009638615498079
3.9911751990030497
3.9850207268380675
4.003484143333068
4.021947559828071
4.021947559828071
4.021947559828071
4.015793087663061
4.015793087663061
4.021947559828071
4.034256504158063
4.040410976323072
4.040410976323072
4.0465654484880815
4.058874392818074
4.052719920653064
4.0711833371480655
4.0711833371480655
4.0711833371480655
4.0711833371480655
4.065028864983084
4.0711833371480655
4.077337809313075
4.0711833371480655
4.065028864983084
4.101955697973087
4.12657358663307
4.12657358663307
4.12657358663307
4.120419114468088
4.120419114468088
4.114264642303079
4.095801225808079
4.157345947458091
4.1758093639530935
4.169654891788083
4.157345947458091
4.163500419623101
4.114264642303079
4.1327280587980795
4.181963836118102
4.200427252613103
4.2065817247780855
4.2065817247780855
4.212736196943095
4.218890669108104
4.1942727804480935
4.2065817247780855
4.231199613438097
4.261971974263091
4.2681264464281
4.280435390758093
4.2865898629231
4.2865898629231
4.292744335088111
4.298898807253093
4.3173622237481215
4.323516695913104
4.323516695913104
4.341980112408105
4.341980112408105
4.335825640243124
4.335825640243124
4.366598001068117
4.397370361893111
4.415833778388112
4.434297194883113
4.434297194883113
4.434297194883113
4.428142722718132
4.483532972203136
4.508150860863147
4.508150860863147
4.514305333028129
4.5327687495231315
4.538923221688139
4.551232166018132
4.563541110348153
4.575850054678144
4.6004679433381535
4.606622415503137
4.625085831998166
4.662012664988168
4.705093970143154
4.723557386638154
4.7297118588031655
4.717402914473172
4.662012664988168
4.569695582513134
4.477378500038126
4.415833778388112
4.421988250553122
4.495841916533129
4.514305333028129
4.5327687495231315
4.588158999008135
4.662012664988168
4.67432160931816
4.67432160931816
4.668167137153151
4.662012664988168
4.662012664988168
4.6435492484931675
4.625085831998166
4.625085831998166
4.649703720658149
4.692785025813162
4.723557386638154
4.717402914473172
4.717402914473172
4.705093970143154
4.717402914473172
4.717402914473172
4.717402914473172
4.711248442308165
4.692785025813162
4.686630553648152
4.668167137153151
4.637394776328158
4.649703720658149
4.662012664988168
4.668167137153151
4.668167137153151
4.662012664988168
4.655858192823159
4.6435492484931675
4.6435492484931675
4.637394776328158
4.649703720658149
4.655858192823159
4.662012664988168
4.662012664988168
4.649703720658149
4.649703720658149
4.655858192823159
4.662012664988168
4.67432160931816
4.668167137153151
4.668167137153151
4.655858192823159
4.6435492484931675
4.612776887668146
4.631240304163148
4.662012664988168
4.668167137153151
4.67432160931816
4.68047608148317
4.686630553648152
4.67432160931816
4.67432160931816
4.67432160931816
4.692785025813162
4.698939497978172
4.67432160931816
4.606622415503137
4.649703720658149
4.67432160931816
4.698939497978172
4.698939497978172
4.698939497978172
4.686630553648152
4.67432160931816
4.655858192823159
4.649703720658149
4.6435492484931675
4.618931359833156
4.5820045268431535
4.563541110348153
4.588158999008135
4.6004679433381535
4.5943134711731455
4.575850054678144
4.563541110348153
4.557386638183142
4.551232166018132
4.54507769385315
4.5327687495231315
4.52661427735815
4.520459805193139
4.52661427735815
4.5327687495231315
4.538923221688139
4.5327687495231315
4.52661427735815
4.514305333028129
4.508150860863147
4.446606139213133
4.40967930622313
4.514305333028129
4.52661427735815
4.520459805193139
4.508150860863147
4.501996388698137
4.520459805193139
4.495841916533129
4.477378500038126
4.489687444368147
4.495841916533129
4.495841916533129
4.495841916533129
4.495841916533129
4.489687444368147
4.477378500038126
4.471224027873144
4.471224027873144
4.477378500038126
4.483532972203136
4.477378500038126
4.477378500038126
4.489687444368147
4.465069555708134
4.471224027873144
4.471224027873144
4.452760611378115
4.428142722718132
4.446606139213133
4.458915083543125
4.446606139213133
4.446606139213133
4.452760611378115
4.465069555708134
4.465069555708134
4.452760611378115
4.458915083543125
4.452760611378115
4.440451667048122
4.440451667048122
4.446606139213133
4.440451667048122
4.440451667048122
4.440451667048122
4.434297194883113
4.421988250553122
4.40967930622313
4.397370361893111
4.397370361893111
4.37890694539811
4.354289056738125
4.397370361893111
4.434297194883113
4.440451667048122
4.428142722718132
4.421988250553122
4.40352483405812
4.40352483405812
4.40352483405812
4.40967930622313
4.428142722718132
4.40967930622313
4.391215889728128
4.391215889728128
4.385061417563119
4.37890694539811
4.397370361893111
4.40967930622313
4.40967930622313
4.40967930622313
4.40352483405812
4.40352483405812
4.40352483405812
4.3727524732331275
4.360443528903107
4.37890694539811
4.397370361893111
4.385061417563119
4.37890694539811
4.391215889728128
4.391215889728128
4.385061417563119
4.397370361893111
4.40967930622313
4.40352483405812
4.391215889728128
4.37890694539811
4.366598001068117
4.354289056738125
4.298898807253093
4.385061417563119
4.397370361893111
4.385061417563119
4.3173622237481215
4.323516695913104
4.335825640243124
4.348134584573115
4.323516695913104
4.323516695913104
4.348134584573115
4.348134584573115
4.341980112408105
4.341980112408105
4.348134584573115
4.348134584573115
4.341980112408105
4.335825640243124
4.335825640243124
4.335825640243124
4.329671168078114
4.3173622237481215
4.323516695913104
4.335825640243124
4.348134584573115
4.360443528903107
4.37890694539811
4.391215889728128
4.40352483405812
4.458915083543125
4.483532972203136
4.465069555708134
4.458915083543125
4.428142722718132
4.323516695913104
4.212736196943095
4.151191475293081
4.157345947458091
4.225045141273086
4.280435390758093
4.3173622237481215
4.329671168078114
4.348134584573115
4.354289056738125
4.348134584573115
4.341980112408105
4.335825640243124
4.335825640243124
4.341980112408105
4.354289056738125
4.354289056738125
4.348134584573115
4.354289056738125
4.348134584573115
4.329671168078114
4.341980112408105
4.3727524732331275
4.385061417563119
4.3727524732331275
4.354289056738125
4.348134584573115
4.341980112408105
4.354289056738125
4.348134584573115
4.3727524732331275
4.354289056738125
4.360443528903107
4.360443528903107
4.3727524732331275
4.3727524732331275
4.366598001068117
4.37890694539811
4.385061417563119
4.37890694539811
4.37890694539811
4.3727524732331275
4.391215889728128
4.40352483405812
4.40352483405812
4.391215889728128
4.385061417563119
4.40352483405812
4.415833778388112
4.434297194883113
4.446606139213133
4.465069555708134
4.458915083543125
4.465069555708134
4.465069555708134
4.458915083543125
4.458915083543125
4.452760611378115
4.465069555708134
4.477378500038126
4.477378500038126
4.489687444368147
4.483532972203136
4.508150860863147
4.483532972203136
4.471224027873144
4.483532972203136
