-2.581801073217871
-2.563337656722869
-2.563337656722869
-2.526410823732866
-2.1325246051727973
-2.2925408814628288
-2.8895246814679143
-2.667963683527869
-2.5694921288878514
-2.944914930952919
-2.8095165433228986
-2.5141018794028467
-2.477175046412844
-2.446402685587851
-2.4648661020828517
-2.4525571577528327
-2.483329518577854
-2.483329518577854
-2.089443300017785
-0.8523943948526291
-3.529589786628012
-3.4557361206480066
-2.55102871239285
-2.3540856031128428
-2.563337656722869
-2.477175046412844
-2.4156303247628297
-2.4279392690928487
-2.4217847969278394
-2.4156303247628297
-2.446402685587851
-2.4279392690928487
-2.434093741257831
-2.4402482134228407
-2.403321380432838
-2.3540856031128428
-2.335622186617841
-2.298695353627811
-2.544874240227868
-2.4587116299178424
-2.4156303247628297
-2.4217847969278394
-2.3971669082678284
-2.3848579639378364
-2.3848579639378364
-2.3971669082678284
-2.3971669082678284
-2.3971669082678284
-2.446402685587851
-2.446402685587851
-2.378703491772827
-2.3848579639378364
-2.600264489712873
-2.5325652958978484
-2.507947407237865
-2.495638462907845
-2.4525571577528327
-2.4894839907428636
-2.507947407237865
-2.471020574247862
-2.446402685587851
-2.446402685587851
-2.434093741257831
-2.434093741257831
-2.4279392690928487
-2.3848579639378364
-2.286386409297819
-2.391012436102846
-2.4279392690928487
-2.409475852597848
-2.4217847969278394
-2.4648661020828517
-2.3971669082678284
-2.3971669082678284
-2.434093741257831
-2.4525571577528327
-2.446402685587851
-2.4217847969278394
-2.507947407237865
-2.495638462907845
-2.6433457948678853
-2.5325652958978484
-0.9262480608326351
-1.6032399989827366
-2.6433457948678853
-2.55718318455786
-2.6618092113628857
-3.868085755703077
-3.5234353144630304
-2.8095165433228986
-2.6618092113628857
-2.6064189618778553
-2.575646601052861
-2.526410823732866
-2.495638462907845
-2.5694921288878514
-2.55718318455786
-2.5694921288878514
-2.507947407237865
-2.495638462907845
-2.526410823732866
-2.477175046412844
-2.4525571577528327
-2.477175046412844
-2.471020574247862
-2.471020574247862
-2.4648661020828517
-2.4156303247628297
-2.526410823732866
-2.544874240227868
-2.4587116299178424
-2.4587116299178424
-2.4525571577528327
-2.471020574247862
-2.483329518577854
-2.4648661020828517
-2.4402482134228407
-2.4402482134228407
-2.4648661020828517
-2.4648661020828517
-2.446402685587851
-2.446402685587851
-2.403321380432838
-2.507947407237865
-2.04020752269779
-0.9939472546476313
-1.972508328882766
-2.3663945474428347
-2.446402685587851
-2.932605986622927
-4.058874392818101
-3.006459652602933
-2.563337656722869
-2.55718318455786
-2.5325652958978484
-2.495638462907845
-2.4648661020828517
-2.538719768062857
-2.538719768062857
-2.538719768062857
-2.224841687647805
-1.2832074464026733
-2.009435161872797
-2.347931130947833
-2.507947407237865
-2.4648661020828517
-3.1357035680679433
-3.898858116528071
-2.8895246814679143
-2.6433457948678853
-2.55718318455786
-2.5941100175478624
-2.6925815721878803
-2.754126293837894
-2.655654739197877
-2.600264489712873
-2.6064189618778553
-2.649500267032867
-2.6371913227028756
-2.655654739197877
-2.655654739197877
-2.6371913227028756
-2.760280766002876
-2.68642710002287
-2.4894839907428636
-2.649500267032867
-2.723353933012873
-2.6064189618778553
-2.600264489712873
-2.544874240227868
-2.538719768062857
-2.612573434042864
-2.575646601052861
-2.581801073217871
-2.538719768062857
-2.544874240227868
-2.563337656722869
-2.544874240227868
-2.4587116299178424
-2.3540856031128428
-2.581801073217871
-2.507947407237865
-2.501792935072855
-2.483329518577854
-2.4217847969278394
-2.391012436102846
-2.4402482134228407
-2.4217847969278394
-2.3848579639378364
-2.3971669082678284
-2.4156303247628297
-2.403321380432838
-2.3663945474428347
-2.2063782711528033
-2.409475852597848
-2.409475852597848
-2.391012436102846
-2.3971669082678284
-2.347931130947833
-2.3663945474428347
-2.3540856031128428
-2.3110042979578305
-2.3663945474428347
-2.3663945474428347
-1.954044912387765
-2.3417766587828237
-2.723353933012873
-2.4217847969278394
-2.4648661020828517
-2.4217847969278394
-2.298695353627811
-2.3110042979578305
-2.3663945474428347
-2.329467714452832
-2.3171587701228398
-2.2925408814628288
-2.3171587701228398
-2.3663945474428347
-2.329467714452832
-2.304849825792821
-2.335622186617841
-2.304849825792821
-2.5941100175478624
-2.4156303247628297
-2.3171587701228398
-2.194069326822812
-2.304849825792821
-2.329467714452832
-2.2740774649678275
-2.3171587701228398
-2.2802319371328093
-2.2740774649678275
-2.2802319371328093
-2.200223798987821
-2.255614048472826
-2.064825411357801
-1.8740367742427766
-2.2063782711528033
-2.249459576307816
-2.261768520637808
-2.2186872154828228
-2.255614048472826
-2.286386409297819
-2.2925408814628288
-2.3110042979578305
-2.2740774649678275
-2.347931130947833
-2.2802319371328093
-2.261768520637808
-2.2371506319778245
-2.200223798987821
-2.3848579639378364
-2.3171587701228398
-2.323313242287821
-2.286386409297819
-2.286386409297819
-2.2186872154828228
-1.2585895577426898
-1.4924595000126994
-2.0278985783677985
-2.2371506319778245
-2.2925408814628288
-2.114061188677796
-1.954044912387765
-2.9572238752829105
-3.9542483660130747
-3.172630401057975
-2.446402685587851
-2.360240075277825
-2.3417766587828237
-2.391012436102846
-2.3171587701228398
-2.3417766587828237
-2.347931130947833
-2.360240075277825
-2.3171587701228398
-2.347931130947833
-2.347931130947833
-2.200223798987821
-2.471020574247862
-2.409475852597848
-2.378703491772827
-2.378703491772827
-2.3663945474428347
-2.329467714452832
-2.372549019607845
-2.323313242287821
-2.3171587701228398
-2.4402482134228407
-2.4217847969278394
-2.3110042979578305
-2.3540856031128428
-2.1325246051727973
-2.150988021667799
-2.3663945474428347
-2.3663945474428347
-2.360240075277825
-2.4525571577528327
-2.4156303247628297
-2.360240075277825
-2.4217847969278394
-2.4156303247628297
-2.403321380432838
-2.4217847969278394
-2.434093741257831
-2.446402685587851
-2.55102871239285
-2.8095165433228986
-2.55718318455786
-2.434093741257831
-2.4279392690928487
-2.4279392690928487
-2.4402482134228407
-2.4587116299178424
-2.4525571577528327
-2.403321380432838
-2.4525571577528327
-2.4402482134228407
-2.391012436102846
-2.4217847969278394
-2.3971669082678284
-2.347931130947833
-2.403321380432838
-2.3971669082678284
-2.446402685587851
-2.378703491772827
-1.972508328882766
-2.378703491772827
-2.747971821672884
-2.5325652958978484
-2.4217847969278394
-2.3848579639378364
-2.3848579639378364
-2.3971669082678284
-2.3663945474428347
-2.3417766587828237
-2.495638462907845
-2.4279392690928487
-2.391012436102846
-2.378703491772827
-2.378703491772827
-2.3417766587828237
-2.3663945474428347
-2.347931130947833
-2.3663945474428347
-2.347931130947833
-2.372549019607845
-2.335622186617841
-2.2679229928028177
-2.3110042979578305
-2.538719768062857
-2.3540856031128428
-2.323313242287821
-2.329467714452832
-2.3110042979578305
-2.255614048472826
-2.2371506319778245
-2.2679229928028177
-2.2802319371328093
-2.2740774649678275
-2.249459576307816
-2.212532743317813
-2.2186872154828228
-2.120215660842805
-2.2740774649678275
-2.2802319371328093
-2.249459576307816
-2.323313242287821
-2.2433051041428067
-2.2063782711528033
-2.286386409297819
-2.261768520637808
-2.2802319371328093
-2.2740774649678275
-2.286386409297819
-2.286386409297819
-2.261768520637808
-2.1632969659978185
-2.335622186617841
-2.3171587701228398
-2.2679229928028177
-2.3110042979578305
-2.323313242287821
-2.3110042979578305
-1.966353856717784
-0.6431423412426027
-2.1079067165127863
-2.2925408814628288
-2.3417766587828237
-2.347931130947833
-2.360240075277825
-3.1480125123979352
-3.658833702093051
-2.6925815721878803
-2.409475852597848
-2.3540856031128428
-2.3540856031128428
-2.347931130947833
-2.323313242287821
-2.323313242287821
-2.335622186617841
-2.329467714452832
-2.372549019607845
-2.3663945474428347
-2.3110042979578305
-2.212532743317813
-2.2309961598128147
-2.378703491772827
-2.372549019607845
-2.3171587701228398
-2.329467714452832
-2.329467714452832
-2.360240075277825
-2.378703491772827
-2.3971669082678284
-2.3663945474428347
-2.347931130947833
-2.372549019607845
-2.3663945474428347
-2.3848579639378364
-2.372549019607845
-2.304849825792821
-2.409475852597848
-2.347931130947833
-2.403321380432838
-2.3971669082678284
-2.372549019607845
-2.4217847969278394
-2.409475852597848
-2.4402482134228407
-2.4525571577528327
-2.477175046412844
-2.446402685587851
-2.4156303247628297
-2.360240075277825
-2.587955545382853
-2.5694921288878514
-2.526410823732866
-2.5325652958978484
-2.471020574247862
-2.446402685587851
-2.483329518577854
-2.495638462907845
-2.4648661020828517
-2.4525571577528327
-2.4648661020828517
-2.5141018794028467
-2.3848579639378364
-1.578622110322725
-1.7140204979527456
-2.6618092113628857
-2.4894839907428636
-2.446402685587851
-2.501792935072855
-2.3848579639378364
-2.434093741257831
-2.477175046412844
-2.446402685587851
-2.4217847969278394
-2.4525571577528327
-2.434093741257831
-2.4156303247628297
-2.667963683527869
-3.2711019556979917
-2.711044988682881
-2.4587116299178424
-2.4525571577528327
-2.501792935072855
-2.4156303247628297
-2.391012436102846
-2.403321380432838
-2.403321380432838
-2.4156303247628297
-2.378703491772827
-2.403321380432838
-2.378703491772827
-2.360240075277825
-2.5141018794028467
-2.526410823732866
-2.477175046412844
-2.446402685587851
-2.4279392690928487
-2.434093741257831
-2.4156303247628297
-2.446402685587851
-2.4156303247628297
-2.3417766587828237
-2.495638462907845
-2.4525571577528327
-2.409475852597848
-2.360240075277825
-2.391012436102846
-2.507947407237865
-2.471020574247862
-2.4525571577528327
-2.483329518577854
-2.4648661020828517
-2.434093741257831
-2.4648661020828517
-2.477175046412844
-2.4894839907428636
-2.483329518577854
-2.4217847969278394
-2.434093741257831
-2.434093741257831
-2.434093741257831
-2.138679077337807
-1.2093537804226673
-1.9478904402227823
-2.563337656722869
-3.849622339208075
-3.080313318582939
-2.581801073217871
-2.483329518577854
-2.4402482134228407
-2.446402685587851
-2.446402685587851
-2.526410823732866
-2.4587116299178424
-2.2925408814628288
-2.563337656722869
-2.4587116299178424
-2.446402685587851
-2.4217847969278394
-2.434093741257831
-2.0217441062027888
-2.477175046412844
-2.735662877342893
-2.4525571577528327
-2.391012436102846
-2.4156303247628297
-2.378703491772827
-2.391012436102846
-2.2371506319778245
-2.2309961598128147
-2.3848579639378364
-2.4525571577528327
-2.3848579639378364
-2.3848579639378364
-2.4156303247628297
-2.403321380432838
-2.409475852597848
-2.4587116299178424
-2.434093741257831
-2.4156303247628297
-2.4156303247628297
-2.4156303247628297
-2.4587116299178424
-2.772589710332896
-2.55718318455786
-2.4648661020828517
-2.391012436102846
-2.3971669082678284
-2.4402482134228407
-2.4279392690928487
-2.409475852597848
-2.409475852597848
-2.372549019607845
-2.483329518577854
-2.4217847969278394
-2.403321380432838
-2.2925408814628288
-2.2679229928028177
-2.4648661020828517
-2.3848579639378364
-2.4156303247628297
-2.391012436102846
-2.391012436102846
-2.403321380432838
-2.335622186617841
-1.9786628010477763
-2.3848579639378364
-2.674118155692878
-1.437069250527695
-1.6093944711477182
-2.0340530505327803
-2.3110042979578305
-2.4217847969278394
-2.403321380432838
-2.4402482134228407
-2.538719768062857
-3.732687368073057
-3.160321456727955
-2.538719768062857
-2.4648661020828517
-2.409475852597848
-2.403321380432838
-2.372549019607845
-2.446402685587851
-2.3417766587828237
-2.255614048472826
-2.520256351567857
-2.4402482134228407
-2.391012436102846
-2.347931130947833
-2.335622186617841
-2.378703491772827
-2.4217847969278394
-2.4279392690928487
-2.4402482134228407
-2.378703491772827
-2.3540856031128428
-2.329467714452832
-2.360240075277825
-1.818646524757745
-2.4217847969278394
-2.760280766002876
-2.4402482134228407
-2.3971669082678284
-2.378703491772827
-2.3540856031128428
-2.378703491772827
-2.3663945474428347
-2.3540856031128428
-2.360240075277825
-2.403321380432838
-2.3663945474428347
-2.3663945474428347
-2.323313242287821
-2.538719768062857
-2.403321380432838
-2.483329518577854
-2.4525571577528327
-2.434093741257831
-2.4648661020828517
-2.4402482134228407
-2.434093741257831
-2.434093741257831
-2.009435161872797
-0.8647033391826209
-2.255614048472826
-2.3540856031128428
-2.1632969659978185
-1.757101803107758
-2.212532743317813
-2.3540856031128428
-3.38803692683301
-3.554207675288024
-2.6433457948678853
-2.501792935072855
-2.4525571577528327
-2.403321380432838
-2.403321380432838
-2.4279392690928487
-2.4156303247628297
-2.446402685587851
-2.495638462907845
-3.043386485592936
-2.729508405177883
-2.4402482134228407
-2.403321380432838
-2.4279392690928487
-2.3971669082678284
-2.3971669082678284
-2.403321380432838
-2.391012436102846
-2.347931130947833
-2.3171587701228398
-2.378703491772827
-2.360240075277825
-2.304849825792821
-2.3110042979578305
-2.544874240227868
-2.4402482134228407
-2.347931130947833
-2.372549019607845
-2.391012436102846
-2.4279392690928487
-2.446402685587851
-2.446402685587851
-2.434093741257831
-2.409475852597848
-2.4156303247628297
-2.403321380432838
-2.3848579639378364
-2.2925408814628288
-2.2371506319778245
-2.2309961598128147
-2.4525571577528327
-2.4279392690928487
-2.4217847969278394
-2.4156303247628297
-2.471020574247862
-2.4525571577528327
-2.4648661020828517
-2.409475852597848
-2.403321380432838
-2.483329518577854
-2.446402685587851
-2.55718318455786
-2.7418173495078744
-2.507947407237865
-2.083288827852803
-2.4156303247628297
-2.8464433763129016
-2.5694921288878514
-2.520256351567857
-2.4587116299178424
-2.4525571577528327
-2.4894839907428636
-2.5141018794028467
-2.4587116299178424
-2.4279392690928487
-2.4156303247628297
-2.501792935072855
-2.4648661020828517
-2.3971669082678284
-2.391012436102846
-2.446402685587851
-2.409475852597848
-2.378703491772827
-2.347931130947833
-2.360240075277825
-2.3663945474428347
-2.335622186617841
-2.409475852597848
-2.446402685587851
-2.335622186617841
-2.4525571577528327
-2.471020574247862
-2.403321380432838
-2.409475852597848
-2.360240075277825
-2.403321380432838
-2.446402685587851
-2.4402482134228407
-2.372549019607845
-2.378703491772827
-2.471020574247862
-2.4279392690928487
-2.3971669082678284
-2.372549019607845
-2.3110042979578305
-2.4525571577528327
-2.434093741257831
-2.434093741257831
-2.3971669082678284
-2.471020574247862
-2.477175046412844
-2.4648661020828517
-2.403321380432838
-2.4587116299178424
-2.501792935072855
-2.4894839907428636
-2.4587116299178424
-2.403321380432838
-2.495638462907845
-2.68642710002287
-2.538719768062857
-2.538719768062857
-2.150988021667799
-0.9077846443376336
-2.347931130947833
-2.4587116299178424
-2.8279799598179
-3.9911751990030773
-3.0987767350779407
-2.655654739197877
-2.5694921288878514
-2.5325652958978484
-2.4279392690928487
-2.618727906207874
-2.581801073217871
-2.544874240227868
-2.55718318455786
-2.575646601052861
-2.501792935072855
-2.526410823732866
-2.477175046412844
-2.4525571577528327
-2.471020574247862
-2.4894839907428636
-2.434093741257831
-2.446402685587851
-2.224841687647805
-2.323313242287821
-2.4894839907428636
-2.4525571577528327
-2.4279392690928487
-2.477175046412844
-2.409475852597848
-2.3848579639378364
-2.4587116299178424
-2.4894839907428636
-2.4279392690928487
-2.4217847969278394
-2.4525571577528327
-2.3971669082678284
-2.4402482134228407
-2.6433457948678853
-2.477175046412844
-2.4402482134228407
-2.3848579639378364
-2.4156303247628297
-2.4402482134228407
-2.446402685587851
-2.434093741257831
-2.4279392690928487
-2.4279392690928487
-2.4156303247628297
-2.3971669082678284
-2.4402482134228407
-2.409475852597848
-2.477175046412844
-2.507947407237865
-2.4587116299178424
-2.4648661020828517
-2.446402685587851
-2.4587116299178424
-2.5141018794028467
-2.477175046412844
-2.507947407237865
-2.5141018794028467
-2.4587116299178424
-2.114061188677796
-2.446402685587851
-2.834134431982911
-2.600264489712873
-2.6064189618778553
-2.471020574247862
-2.4894839907428636
-2.4894839907428636
-2.4279392690928487
-2.4402482134228407
-2.4525571577528327
-2.5141018794028467
-2.4648661020828517
-2.471020574247862
-2.4894839907428636
-2.471020574247862
-2.4217847969278394
-2.403321380432838
-2.563337656722869
-2.501792935072855
-2.4648661020828517
-2.4402482134228407
-2.471020574247862
-2.495638462907845
-2.4648661020828517
-2.471020574247862
-2.495638462907845
-2.477175046412844
-2.507947407237865
-2.4587116299178424
-2.446402685587851
-2.1694514381628007
-2.335622186617841
-2.4587116299178424
-2.4894839907428636
-2.501792935072855
-2.538719768062857
-2.575646601052861
-2.575646601052861
-2.538719768062857
-2.55102871239285
-2.5941100175478624
-2.6064189618778553
-2.55102871239285
-2.5325652958978484
-2.618727906207874
-2.8402889041478923
-2.680272627857888
-2.631036850537866
-2.612573434042864
-2.55718318455786
-2.544874240227868
-2.6371913227028756
-2.5941100175478624
-2.587955545382853
-2.55718318455786
-2.581801073217871
-2.5694921288878514
-2.2679229928028177
-1.2031993082576575
-2.070979883522784
-2.4156303247628297
-2.495638462907845
-2.471020574247862
-2.495638462907845
-2.501792935072855
-2.6064189618778553
-3.6896060629180436
-3.492662953638009
-2.754126293837894
-2.5941100175478624
-2.544874240227868
-2.520256351567857
-2.600264489712873
-2.754126293837894
-1.25243508557768
-1.5416952773327224
-2.6371913227028756
-2.815671015487909
-2.581801073217871
-2.5141018794028467
-2.544874240227868
-2.747971821672884
-3.9173215330230713
-3.264947483532982
-2.711044988682881
-2.563337656722869
-2.477175046412844
-2.495638462907845
-2.6433457948678853
-2.5325652958978484
-2.55718318455786
-2.501792935072855
-2.483329518577854
-2.495638462907845
-2.471020574247862
-2.501792935072855
-2.5141018794028467
-2.544874240227868
-2.575646601052861
-2.4894839907428636
-2.434093741257831
-2.391012436102846
-2.7171994608478913
-2.538719768062857
-2.4894839907428636
-2.471020574247862
-2.520256351567857
-2.483329518577854
-2.483329518577854
-2.4587116299178424
-2.477175046412844
-2.4402482134228407
-2.446402685587851
-2.403321380432838
-2.4279392690928487
-2.114061188677796
-2.477175046412844
-2.674118155692878
-2.3540856031128428
-2.360240075277825
-2.4156303247628297
-2.434093741257831
-2.501792935072855
-2.434093741257831
-2.403321380432838
-2.4156303247628297
-2.403321380432838
-2.4156303247628297
-2.4156303247628297
-2.3110042979578305
-2.446402685587851
-2.409475852597848
-2.360240075277825
-2.304849825792821
-2.335622186617841
-2.3663945474428347
-2.335622186617841
-2.070979883522784
-2.0463619948628
-2.7171994608478913
-2.477175046412844
-2.360240075277825
-2.335622186617841
-2.391012436102846
-2.834134431982911
-2.5941100175478624
-2.4156303247628297
-2.3848579639378364
-2.3971669082678284
-2.3540856031128428
-2.391012436102846
-2.4217847969278394
-2.3540856031128428
-2.391012436102846
-2.3848579639378364
-2.3540856031128428
-2.3540856031128428
-2.2063782711528033
-1.8740367742427766
-2.3171587701228398
-2.409475852597848
-2.4279392690928487
-2.3971669082678284
-2.403321380432838
-2.409475852597848
-2.4217847969278394
-2.409475852597848
-2.403321380432838
-2.4279392690928487
-2.434093741257831
-2.434093741257831
-2.4217847969278394
-2.4156303247628297
-2.5941100175478624
-2.4587116299178424
-2.3848579639378364
-2.507947407237865
-2.4587116299178424
-2.3848579639378364
-2.04020752269779
-0.8154675618626261
-2.261768520637808
-2.4279392690928487
-2.434093741257831
-2.895679153632896
-3.8311589227130733
-2.754126293837894
-2.575646601052861
-2.4279392690928487
-2.403321380432838
-2.409475852597848
-2.403321380432838
-2.3417766587828237
-2.4402482134228407
-2.4279392690928487
-2.391012436102846
-2.3971669082678284
-2.403321380432838
-2.391012436102846
-2.3417766587828237
-2.2433051041428067
-2.4279392690928487
-2.4217847969278394
-2.335622186617841
-2.3540856031128428
-2.391012436102846
-2.4217847969278394
-2.391012436102846
-2.391012436102846
-2.4648661020828517
-2.4156303247628297
-2.3663945474428347
-2.335622186617841
-2.391012436102846
-2.495638462907845
-2.7910531268278973
-2.5694921288878514
-2.477175046412844
-2.403321380432838
-2.4217847969278394
-2.403321380432838
-2.403321380432838
-2.4217847969278394
-2.4217847969278394
-2.378703491772827
-2.403321380432838
-2.4279392690928487
-2.409475852597848
-2.298695353627811
-2.1263701330077875
-2.3171587701228398
-2.391012436102846
-2.409475852597848
-2.391012436102846
-2.403321380432838
-2.3663945474428347
-2.3848579639378364
-2.391012436102846
-2.3540856031128428
-2.4156303247628297
-2.4156303247628297
-2.3663945474428347
-2.2063782711528033
-1.7017115536227536
-2.2679229928028177
-2.68642710002287
-2.4587116299178424
-2.4279392690928487
-2.4217847969278394
-2.391012436102846
-2.4402482134228407
-2.4217847969278394
-2.391012436102846
-2.403321380432838
-2.360240075277825
-2.378703491772827
-2.409475852597848
-2.544874240227868
-2.667963683527869
-2.477175046412844
-2.403321380432838
-2.3848579639378364
-2.3417766587828237
-2.3663945474428347
-2.409475852597848
-2.3848579639378364
-2.378703491772827
-2.372549019607845
-2.372549019607845
-2.3540856031128428
-2.3171587701228398
-2.261768520637808
-2.409475852597848
-2.434093741257831
-2.3971669082678284
-2.391012436102846
-2.403321380432838
-2.4402482134228407
-2.4156303247628297
-2.3417766587828237
-2.372549019607845
-2.378703491772827
-2.3971669082678284
-2.3971669082678284
-2.3171587701228398
-2.2371506319778245
-2.4156303247628297
-2.403321380432838
-2.360240075277825
-2.347931130947833
-2.335622186617841
-2.335622186617841
-2.347931130947833
-2.391012436102846
-2.372549019607845
-2.298695353627811
-2.304849825792821
-2.3417766587828237
-2.323313242287821
-2.335622186617841
-2.5325652958978484
-2.089443300017785
-1.178581419597674
-3.0310775412629165
-3.055695429922928
-2.4525571577528327
-2.4217847969278394
-2.372549019607845
-2.298695353627811
-2.323313242287821
-2.335622186617841
-2.3417766587828237
-2.2925408814628288
-2.194069326822812
-2.150988021667799
-2.3171587701228398
-2.286386409297819
-2.286386409297819
-2.3171587701228398
-2.304849825792821
-2.2740774649678275
-2.2925408814628288
-2.298695353627811
-2.298695353627811
-2.2925408814628288
-2.298695353627811
-2.323313242287821
-2.2309961598128147
-2.1694514381628007
-2.360240075277825
-2.3171587701228398
-2.3171587701228398
-2.3110042979578305
-2.298695353627811
-2.329467714452832
-2.304849825792821
-2.2925408814628288
-2.3110042979578305
-2.3171587701228398
-2.3171587701228398
-2.2925408814628288
-2.2802319371328093
-2.2371506319778245
-2.471020574247862
-2.3663945474428347
-2.3971669082678284
-2.335622186617841
-2.304849825792821
-2.3171587701228398
-2.323313242287821
-2.2679229928028177
-2.2925408814628288
-2.304849825792821
-2.2802319371328093
-2.2679229928028177
-2.304849825792821
-2.2371506319778245
-2.2740774649678275
-2.2371506319778245
-2.304849825792821
-2.360240075277825
-2.3171587701228398
-2.2740774649678275
-2.2679229928028177
-2.2186872154828228
-1.9294270237277809
-2.2925408814628288
-2.711044988682881
-2.4402482134228407
-2.3663945474428347
-2.2925408814628288
-2.4279392690928487
-2.3971669082678284
-2.501792935072855
-2.391012436102846
-2.2802319371328093
-2.3848579639378364
-2.347931130947833
-2.323313242287821
-2.298695353627811
-2.323313242287821
-2.372549019607845
-2.304849825792821
-2.323313242287821
-2.2371506319778245
-2.2802319371328093
-2.360240075277825
-2.323313242287821
-2.323313242287821
-2.2371506319778245
-0.8154675618626261
-1.6709391927977324
-2.249459576307816
-2.224841687647805
-2.2679229928028177
-2.2740774649678275
-2.2802319371328093
-2.5325652958978484
-3.6711426464230414
-3.0249230690979347
-2.477175046412844
-2.335622186617841
-2.3417766587828237
-2.329467714452832
-2.286386409297819
-2.3171587701228398
-2.3848579639378364
-2.3110042979578305
-2.3171587701228398
-2.3171587701228398
-2.2740774649678275
-2.2802319371328093
-2.2433051041428067
-2.329467714452832
-2.4587116299178424
-2.304849825792821
-2.335622186617841
-2.2802319371328093
-2.286386409297819
-2.298695353627811
-2.2802319371328093
-2.2433051041428067
-2.329467714452832
-2.052516467027782
-1.141654586607671
-1.7755652196027594
-2.150988021667799
-2.114061188677796
-2.3540856031128428
-3.043386485592936
-3.6957605350830534
-2.631036850537866
-2.4156303247628297
-2.3663945474428347
-2.298695353627811
-2.2740774649678275
-2.347931130947833
-2.3110042979578305
-2.304849825792821
-2.323313242287821
-2.298695353627811
-2.2309961598128147
-2.298695353627811
-2.347931130947833
-2.329467714452832
-2.3171587701228398
-2.3540856031128428
-2.2925408814628288
-2.3110042979578305
-2.3417766587828237
-2.3110042979578305
-2.347931130947833
-2.323313242287821
-2.2371506319778245
-2.255614048472826
-2.3417766587828237
-2.477175046412844
-2.335622186617841
-2.298695353627811
-2.304849825792821
-2.3540856031128428
-2.286386409297819
-2.2802319371328093
-2.2802319371328093
-2.2925408814628288
-2.2679229928028177
-2.2679229928028177
-2.2371506319778245
-2.2679229928028177
-2.2433051041428067
-2.1571424938328088
-2.255614048472826
-2.261768520637808
-2.286386409297819
-2.286386409297819
-2.286386409297819
-2.3417766587828237
-2.304849825792821
-2.286386409297819
-2.2433051041428067
-2.2802319371328093
-2.3171587701228398
-2.2679229928028177
-2.2186872154828228
-2.2740774649678275
-2.4279392690928487
-2.261768520637808
-1.8863457185727683
-2.249459576307816
-2.618727906207874
-2.3663945474428347
-2.286386409297819
-2.3417766587828237
-2.286386409297819
-2.2740774649678275
-2.2371506319778245
-2.304849825792821
-2.2740774649678275
-1.7755652196027594
-1.892500190737778
-2.1448335495027893
-2.2063782711528033
-2.2802319371328093
-2.261768520637808
-2.286386409297819
-2.2925408814628288
-2.298695353627811
-2.255614048472826
-2.2309961598128147
-2.378703491772827
-2.298695353627811
-2.2433051041428067
-2.6618092113628857
-2.8402889041478923
-2.4156303247628297
-2.3417766587828237
-2.323313242287821
-2.298695353627811
-2.286386409297819
-2.360240075277825
-2.329467714452832
-2.3540856031128428
-2.3663945474428347
-2.3417766587828237
-2.335622186617841
-2.3417766587828237
-2.378703491772827
-2.4648661020828517
-2.446402685587851
-2.409475852597848
-2.372549019607845
-2.403321380432838
-2.391012436102846
-2.3971669082678284
-2.3848579639378364
-2.347931130947833
-2.409475852597848
-2.403321380432838
-2.347931130947833
-2.335622186617841
-2.3540856031128428
-2.4587116299178424
-2.4156303247628297
-2.409475852597848
-2.391012436102846
-2.009435161872797
-0.7477683680476023
-2.372549019607845
-3.677297118588053
-3.0680043742529195
-2.5325652958978484
-2.434093741257831
-2.3848579639378364
-2.323313242287821
-2.2309961598128147
-2.2186872154828228
-2.4402482134228407
-2.335622186617841
-2.304849825792821
-2.3171587701228398
-2.3110042979578305
-2.304849825792821
-2.286386409297819
-2.2925408814628288
-2.255614048472826
-2.175605910327811
-2.2309961598128147
-2.2371506319778245
-2.2063782711528033
-2.212532743317813
-2.347931130947833
-1.689402609292734
-2.261768520637808
-2.772589710332896
-2.3540856031128428
-2.298695353627811
-2.304849825792821
-2.2802319371328093
-2.298695353627811
-2.255614048472826
-2.2802319371328093
-2.3171587701228398
-2.2925408814628288
-2.212532743317813
-2.4156303247628297
-2.3848579639378364
-2.3171587701228398
-2.212532743317813
-2.304849825792821
-2.360240075277825
-2.3540856031128428
-2.2925408814628288
-2.2925408814628288
-2.298695353627811
-2.286386409297819
-2.2679229928028177
-2.298695353627811
-2.1325246051727973
-2.323313242287821
-2.360240075277825
-2.360240075277825
-2.323313242287821
-2.2679229928028177
-2.2679229928028177
-2.3110042979578305
-2.2679229928028177
-2.255614048472826
-2.261768520637808
-2.249459576307816
-1.8678823020777668
-2.1817603824928202
-2.55718318455786
-2.5141018794028467
-2.378703491772827
-2.3171587701228398
-2.360240075277825
-2.329467714452832
-2.3171587701228398
-2.323313242287821
-2.2802319371328093
-2.391012436102846
-2.360240075277825
-2.347931130947833
-2.3848579639378364
-2.391012436102846
-2.335622186617841
-2.335622186617841
-2.483329518577854
-2.477175046412844
-2.507947407237865
-2.5941100175478624
-2.4587116299178424
-2.3417766587828237
-2.409475852597848
-2.4402482134228407
-2.4402482134228407
-2.446402685587851
-2.483329518577854
-2.403321380432838
-2.4402482134228407
-2.729508405177883
-2.754126293837894
-2.538719768062857
-2.471020574247862
-2.446402685587851
-2.446402685587851
-2.4156303247628297
-2.4525571577528327
-2.4587116299178424
-2.446402685587851
-2.4279392690928487
-2.4525571577528327
-2.4279392690928487
-2.323313242287821
-2.0955977721827947
-2.323313242287821
-2.409475852597848
-2.4156303247628297
-2.4156303247628297
-2.434093741257831
-2.471020574247862
-2.434093741257831
-2.372549019607845
-2.3971669082678284
-2.4217847969278394
-2.4402482134228407
-2.409475852597848
-2.089443300017785
-1.221662724752659
-1.9048091350677696
-2.255614048472826
-2.323313242287821
-2.347931130947833
-2.4402482134228407
-3.3203377330179857
-3.6219068691030203
-2.618727906207874
-2.4402482134228407
-2.372549019607845
-2.3540856031128428
-2.347931130947833
-2.323313242287821
-2.286386409297819
-2.507947407237865
-2.409475852597848
-2.372549019607845
-2.335622186617841
-2.3663945474428347
-2.3848579639378364
-2.3417766587828237
-2.3971669082678284
-2.372549019607845
-2.3417766587828237
-2.372549019607845
-2.434093741257831
-2.391012436102846
-2.4648661020828517
-2.797207598992907
-2.55102871239285
-2.4402482134228407
-2.3971669082678284
-2.3663945474428347
-2.360240075277825
-2.378703491772827
-2.347931130947833
-2.2186872154828228
-0.7785407288726233
-1.3509066402176972
-2.507947407237865
-2.680272627857888
-2.298695353627811
-2.064825411357801
-2.2925408814628288
-2.600264489712873
-3.7942320897230712
-3.0003051804379233
-2.495638462907845
-2.378703491772827
-2.335622186617841
-2.3663945474428347
-2.3540856031128428
-2.372549019607845
-2.403321380432838
-2.3110042979578305
-2.2802319371328093
-2.286386409297819
-2.434093741257831
-2.3663945474428347
-2.3663945474428347
-2.391012436102846
-2.335622186617841
-2.3417766587828237
-2.372549019607845
-2.4217847969278394
-2.4217847969278394
-2.378703491772827
-2.3848579639378364
-2.3417766587828237
-2.304849825792821
-2.2433051041428067
-2.4587116299178424
-2.3540856031128428
-2.372549019607845
-2.372549019607845
-2.3971669082678284
-2.378703491772827
-2.3971669082678284
-2.403321380432838
-2.3540856031128428
-2.4156303247628297
-2.4217847969278394
-2.3540856031128428
-2.323313242287821
-2.1448335495027893
-2.2433051041428067
-2.378703491772827
-2.4402482134228407
-2.347931130947833
-2.304849825792821
-2.4156303247628297
-2.403321380432838
-2.3848579639378364
-2.434093741257831
-2.4217847969278394
-2.372549019607845
-2.372549019607845
-2.3417766587828237
-2.4217847969278394
-2.735662877342893
-2.138679077337807
-2.255614048472826
-2.797207598992907
-2.563337656722869
-2.4156303247628297
-2.3971669082678284
-2.434093741257831
-2.4217847969278394
-2.434093741257831
-2.3971669082678284
-2.3971669082678284
-2.403321380432838
-2.329467714452832
-2.3417766587828237
-2.434093741257831
-2.3971669082678284
-2.471020574247862
-2.446402685587851
-2.403321380432838
-2.446402685587851
-2.077134355687793
-0.8216220340276081
-2.2433051041428067
-2.6925815721878803
-3.923476005188081
-3.092622262912931
-2.526410823732866
-2.5694921288878514
-2.55102871239285
-2.483329518577854
-2.483329518577854
-2.477175046412844
-2.4217847969278394
-2.409475852597848
-2.4279392690928487
-2.4279392690928487
-2.360240075277825
-2.378703491772827
-2.4217847969278394
-2.3848579639378364
-2.3171587701228398
-2.298695353627811
-2.4648661020828517
-2.409475852597848
-2.347931130947833
-2.3417766587828237
-2.3848579639378364
-2.347931130947833
-2.3848579639378364
-2.4156303247628297
-2.4217847969278394
-2.4402482134228407
-2.446402685587851
-2.409475852597848
-2.4279392690928487
-2.391012436102846
-2.526410823732866
-2.446402685587851
-2.434093741257831
-2.4279392690928487
-2.4156303247628297
-2.3971669082678284
-2.4279392690928487
-2.409475852597848
-2.4279392690928487
-2.409475852597848
-2.4648661020828517
-2.446402685587851
-2.4156303247628297
-2.378703491772827
-2.55718318455786
-2.520256351567857
-2.5325652958978484
-2.378703491772827
-2.4279392690928487
-2.446402685587851
-2.446402685587851
-2.4156303247628297
-2.434093741257831
-2.434093741257831
-2.4894839907428636
-2.471020574247862
-2.446402685587851
-2.2371506319778245
-1.830955469087764
-2.3540856031128428
-2.7910531268278973
-2.507947407237865
-2.434093741257831
-2.4279392690928487
-2.477175046412844
-2.526410823732866
-2.4648661020828517
-2.434093741257831
-2.391012436102846
-2.3848579639378364
-2.3540856031128428
-2.391012436102846
-2.434093741257831
-2.4525571577528327
-2.403321380432838
-2.3848579639378364
-2.3663945474428347
-2.3417766587828237
-2.378703491772827
-2.3971669082678284
-2.360240075277825
-2.3417766587828237
-2.372549019607845
-2.372549019607845
-2.4217847969278394
-2.372549019607845
-2.538719768062857
-2.526410823732866
-2.3663945474428347
-2.304849825792821
-2.304849825792821
-2.323313242287821
-2.471020574247862
-2.372549019607845
-2.249459576307816
-2.378703491772827
-2.3663945474428347
-2.323313242287821
-2.378703491772827
-2.347931130947833
-2.261768520637808
-2.507947407237865
-2.434093741257831
-2.4402482134228407
-2.446402685587851
-2.3971669082678284
-2.3971669082678284
-2.4525571577528327
-2.471020574247862
-2.471020574247862
-2.477175046412844
-2.446402685587851
-2.434093741257831
-2.347931130947833
-2.249459576307816
-2.575646601052861
-2.1017522443478045
-0.8647033391826209
-2.249459576307816
-2.360240075277825
-2.4156303247628297
-2.378703491772827
-2.3417766587828237
-2.4217847969278394
-3.504971897968029
-3.461890592813016
-2.563337656722869
-2.4156303247628297
-2.249459576307816
-2.55102871239285
-2.483329518577854
-2.403321380432838
-2.3971669082678284
-2.409475852597848
-2.378703491772827
-2.347931130947833
-2.3663945474428347
-2.391012436102846
-2.360240075277825
-2.335622186617841
-2.3417766587828237
-2.329467714452832
-2.2309961598128147
-2.378703491772827
-2.3971669082678284
-2.409475852597848
-2.4156303247628297
-2.372549019607845
-2.347931130947833
-2.3171587701228398
-2.335622186617841
-2.3540856031128428
-2.3540856031128428
-2.360240075277825
-2.372549019607845
-2.372549019607845
-2.329467714452832
-2.4525571577528327
-2.409475852597848
-2.335622186617841
-2.2802319371328093
-2.329467714452832
-2.378703491772827
-2.372549019607845
-2.3848579639378364
-2.298695353627811
-2.329467714452832
-2.372549019607845
-2.391012436102846
-2.3971669082678284
-2.286386409297819
-2.2433051041428067
-2.4217847969278394
-2.347931130947833
-2.335622186617841
-2.3110042979578305
-2.304849825792821
-2.3663945474428347
-2.378703491772827
-2.2802319371328093
-1.9355814958927628
-2.2802319371328093
-2.704890516517872
-2.409475852597848
-2.255614048472826
-2.224841687647805
-2.4894839907428636
-2.372549019607845
-2.3540856031128428
-2.3417766587828237
-2.372549019607845
-2.360240075277825
-2.3540856031128428
-2.347931130947833
-2.3663945474428347
-2.3971669082678284
-2.3848579639378364
-2.2802319371328093
-2.323313242287821
-2.2186872154828228
-2.434093741257831
-2.3663945474428347
-2.2740774649678275
-2.3417766587828237
-2.4525571577528327
-2.3971669082678284
-2.378703491772827
-2.391012436102846
-2.372549019607845
-2.347931130947833
-2.360240075277825
-2.329467714452832
-2.3417766587828237
-2.261768520637808
-2.372549019607845
-2.372549019607845
-2.391012436102846
-2.3971669082678284
-2.347931130947833
-2.3417766587828237
-2.360240075277825
-2.372549019607845
-2.4156303247628297
-2.378703491772827
-2.3971669082678284
-2.434093741257831
-2.200223798987821
-0.6739147020675963
-1.6401668319727392
-2.224841687647805
-2.3110042979578305
-2.323313242287821
-2.3540856031128428
-2.372549019607845
-2.667963683527869
-3.8434678670430653
-2.9264515144579173
-2.4279392690928487
-2.0586709391927913
-1.0985732814526583
-1.855573357747775
-2.255614048472826
-2.96953281961293
-3.855776811373057
-2.8279799598179
-2.360240075277825
-2.3171587701228398
-2.2925408814628288
-2.249459576307816
-2.298695353627811
-2.2925408814628288
-2.2740774649678275
-2.261768520637808
-2.2309961598128147
-2.224841687647805
-2.1448335495027893
-2.1448335495027893
-2.372549019607845
-2.2063782711528033
-2.194069326822812
-2.249459576307816
-2.286386409297819
-2.286386409297819
-2.200223798987821
-2.1571424938328088
-2.212532743317813
-2.2371506319778245
-2.255614048472826
-2.255614048472826
-2.261768520637808
-2.138679077337807
-2.403321380432838
-2.2925408814628288
-2.298695353627811
-2.255614048472826
-2.286386409297819
-2.323313242287821
-2.3171587701228398
-2.329467714452832
-2.391012436102846
-2.360240075277825
-2.329467714452832
-2.372549019607845
-2.409475852597848
-2.2309961598128147
-2.249459576307816
-2.4402482134228407
-2.477175046412844
-2.4156303247628297
-2.4587116299178424
-2.4525571577528327
-2.501792935072855
-2.538719768062857
-2.471020574247862
-2.434093741257831
-2.4894839907428636
-2.520256351567857
-2.526410823732866
-2.4894839907428636
-2.8525978484779113
-2.618727906207874
-2.501792935072855
-2.1017522443478045
-2.483329518577854
-2.8402889041478923
-2.55718318455786
-2.526410823732866
-2.520256351567857
-2.538719768062857
-2.483329518577854
-2.4648661020828517
-2.4402482134228407
-2.323313242287821
-1.9601993845527748
-2.3110042979578305
-2.483329518577854
-2.501792935072855
-2.495638462907845
-2.483329518577854
-2.446402685587851
-2.4648661020828517
-2.575646601052861
-2.446402685587851
-2.409475852597848
-2.5141018794028467
-2.4894839907428636
-2.5325652958978484
-3.080313318582939
-2.815671015487909
-2.526410823732866
-2.4587116299178424
-2.4648661020828517
-2.495638462907845
-2.4894839907428636
-2.483329518577854
-2.483329518577854
-2.477175046412844
-2.4402482134228407
-2.4525571577528327
-2.4402482134228407
-2.4402482134228407
-2.2925408814628288
-2.434093741257831
-2.4217847969278394
-2.4279392690928487
-2.4525571577528327
-2.4279392690928487
-2.409475852597848
-2.526410823732866
-2.329467714452832
-2.298695353627811
-2.4217847969278394
-2.4156303247628297
-2.391012436102846
-2.471020574247862
-2.501792935072855
-2.4894839907428636
-2.4156303247628297
-2.4217847969278394
-2.3417766587828237
-2.077134355687793
-1.1908903639276658
-1.8371099412527454
-2.2063782711528033
-2.3663945474428347
-2.347931130947833
-2.347931130947833
-2.3848579639378364
-2.446402685587851
-3.609597924773028
-3.394191398997992
-2.575646601052861
-2.4648661020828517
-2.4587116299178424
-2.446402685587851
-2.378703491772827
-2.3971669082678284
-2.483329518577854
-2.4894839907428636
-2.4648661020828517
-2.4279392690928487
-2.409475852597848
-2.409475852597848
-2.2740774649678275
-2.526410823732866
-2.5141018794028467
-2.4217847969278394
-2.434093741257831
-2.391012436102846
-2.391012436102846
-2.4279392690928487
-2.4156303247628297
-2.409475852597848
-2.4402482134228407
-2.378703491772827
-2.4525571577528327
-2.4525571577528327
-2.3171587701228398
-2.4279392690928487
-2.55718318455786
-2.544874240227868
-2.4525571577528327
-2.434093741257831
-2.4217847969278394
-2.3848579639378364
-2.3971669082678284
-2.3540856031128428
-2.4156303247628297
-2.409475852597848
-2.434093741257831
-2.4217847969278394
-2.3171587701228398
-2.2679229928028177
-2.4587116299178424
-2.391012436102846
-2.409475852597848
-2.3971669082678284
-2.4525571577528327
-2.434093741257831
-2.3848579639378364
-2.3540856031128428
-2.3540856031128428
-2.372549019607845
-2.3848579639378364
-2.04020752269779
-2.4156303247628297
-2.766435238167886
-2.575646601052861
-2.5141018794028467
-2.434093741257831
-2.372549019607845
-2.403321380432838
-2.391012436102846
-2.4402482134228407
-2.446402685587851
-2.434093741257831
-2.4525571577528327
-2.434093741257831
-2.3971669082678284
-2.409475852597848
-2.4217847969278394
-2.507947407237865
-2.4894839907428636
-2.4402482134228407
-2.4402482134228407
-2.501792935072855
-2.4894839907428636
-2.434093741257831
-2.409475852597848
-2.520256351567857
-2.501792935072855
-2.4587116299178424
-2.4525571577528327
-2.477175046412844
-2.378703491772827
-2.538719768062857
-2.434093741257831
-2.4156303247628297
-2.471020574247862
-2.4156303247628297
-2.403321380432838
-2.4279392690928487
-2.409475852597848
-2.477175046412844
-2.446402685587851
-2.403321380432838
-2.409475852597848
-2.3663945474428347
-2.224841687647805
-2.077134355687793
-2.323313242287821
-2.372549019607845
-2.3540856031128428
-2.403321380432838
-2.409475852597848
-2.3663945474428347
-2.3663945474428347
-2.372549019607845
-2.347931130947833
-1.7817196917677414
-2.391012436102846
-2.834134431982911
-2.138679077337807
-1.2093537804226673
-1.9355814958927628
-2.298695353627811
-2.335622186617841
-2.9633783474479203
-3.8434678670430653
-2.8095165433228986
-2.471020574247862
-2.483329518577854
-2.403321380432838
-2.4217847969278394
-2.3848579639378364
-2.3540856031128428
-2.4587116299178424
-2.667963683527869
-2.600264489712873
-2.446402685587851
-2.4217847969278394
-2.409475852597848
-2.360240075277825
-2.3663945474428347
-2.4525571577528327
-2.3663945474428347
-2.3848579639378364
-2.3663945474428347
-2.391012436102846
-2.434093741257831
-2.329467714452832
-2.3417766587828237
-2.471020574247862
-2.3971669082678284
-2.378703491772827
-2.4156303247628297
-2.403321380432838
-2.403321380432838
-2.378703491772827
-2.372549019607845
-2.403321380432838
-2.3540856031128428
-2.360240075277825
-2.378703491772827
-2.3540856031128428
-2.3971669082678284
-2.409475852597848
-2.403321380432838
-2.378703491772827
-2.3663945474428347
-2.4217847969278394
-2.3663945474428347
-2.347931130947833
-2.403321380432838
-2.378703491772827
-2.403321380432838
-2.3540856031128428
-2.391012436102846
-2.3971669082678284
-2.1694514381628007
-2.4648661020828517
-2.4894839907428636
-2.1571424938328088
-0.7046870628925892
-1.4986139721777092
-2.55718318455786
-2.575646601052861
-2.409475852597848
-2.403321380432838
-2.372549019607845
-2.747971821672884
-3.855776811373057
-2.9572238752829105
-2.2309961598128147
-1.8063375804277528
-2.2309961598128147
-2.335622186617841
-2.3540856031128428
-2.3848579639378364
-2.4217847969278394
-2.360240075277825
-2.3848579639378364
-2.4156303247628297
-2.3848579639378364
-2.3848579639378364
-2.3663945474428347
-2.3417766587828237
-2.4587116299178424
-2.8895246814679143
-2.649500267032867
-2.4648661020828517
-2.409475852597848
-2.4156303247628297
-2.3848579639378364
-2.347931130947833
-2.3971669082678284
-2.3110042979578305
-2.3848579639378364
-2.3971669082678284
-2.360240075277825
-2.391012436102846
-2.2802319371328093
-1.89865466290276
-2.1571424938328088
-2.3417766587828237
-2.3110042979578305
-2.323313242287821
-2.403321380432838
-2.378703491772827
-2.3848579639378364
-2.3971669082678284
-2.4217847969278394
-2.360240075277825
-2.3848579639378364
-2.403321380432838
-2.4279392690928487
-2.7910531268278973
-2.8095165433228986
-2.4894839907428636
-2.4279392690928487
-2.409475852597848
-2.372549019607845
-2.378703491772827
-2.3848579639378364
-2.1263701330077875
-1.504768444342719
-3.0249230690979347
-3.0003051804379233
-2.4217847969278394
-2.335622186617841
-2.255614048472826
-2.563337656722869
-2.495638462907845
-2.434093741257831
-2.4402482134228407
-2.391012436102846
-2.3540856031128428
-2.3540856031128428
-2.3110042979578305
-2.329467714452832
-2.347931130947833
-2.360240075277825
-2.323313242287821
-2.329467714452832
-2.261768520637808
-2.409475852597848
-2.4217847969278394
-2.3540856031128428
-2.4156303247628297
-2.471020574247862
-2.409475852597848
-2.372549019607845
-2.3848579639378364
-2.372549019607845
-2.391012436102846
-2.360240075277825
-2.391012436102846
-2.378703491772827
-2.1817603824928202
-1.824800996922753
-2.1817603824928202
-2.372549019607845
-2.3540856031128428
-2.3171587701228398
-2.335622186617841
-2.323313242287821
-2.4156303247628297
-2.3971669082678284
-2.403321380432838
-2.4156303247628297
-2.3971669082678284
-2.403321380432838
-2.526410823732866
-2.901833625797906
-2.6618092113628857
-2.4894839907428636
-2.4648661020828517
-2.4402482134228407
-2.434093741257831
-2.403321380432838
-2.4156303247628297
-2.378703491772827
-2.3848579639378364
-2.391012436102846
-2.3971669082678284
-2.4156303247628297
-2.347931130947833
-2.304849825792821
-2.1263701330077875
-2.378703491772827
-2.815671015487909
-2.501792935072855
-2.403321380432838
-2.409475852597848
-2.4587116299178424
-2.4525571577528327
-2.3971669082678284
-2.3540856031128428
-2.446402685587851
-2.4279392690928487
-2.335622186617841
-1.689402609292734
-1.7447928587777384
-2.2309961598128147
-2.261768520637808
-2.323313242287821
-2.3417766587828237
-2.323313242287821
-2.3540856031128428
-2.4156303247628297
-2.378703491772827
-2.372549019607845
-2.3971669082678284
-2.3540856031128428
-2.3848579639378364
-2.520256351567857
-2.483329518577854
-2.391012436102846
-2.372549019607845
-2.391012436102846
-2.360240075277825
-2.378703491772827
-2.4156303247628297
-2.409475852597848
-2.3848579639378364
-2.3848579639378364
-2.3540856031128428
-2.3971669082678284
-2.4587116299178424
-2.8525978484779113
-3.7142239515780546
-2.7848986546628876
-2.483329518577854
-2.4217847969278394
-2.372549019607845
-2.3663945474428347
-2.286386409297819
-2.347931130947833
-2.378703491772827
-2.3540856031128428
-2.372549019607845
-2.372549019607845
-2.286386409297819
-2.077134355687793
-1.7509473309427481
-2.120215660842805
-1.91096360723278
-0.7231504793875909
-2.1079067165127863
-2.249459576307816
-2.2371506319778245
-2.2802319371328093
-3.1049312072429505
-3.597288980443037
-2.618727906207874
-2.3663945474428347
-2.298695353627811
-2.298695353627811
-2.3417766587828237
-2.391012436102846
-2.378703491772827
-2.3971669082678284
-2.323313242287821
-2.329467714452832
-2.4156303247628297
-2.378703491772827
-2.3540856031128428
-2.4217847969278394
-2.3663945474428347
-2.4156303247628297
-2.372549019607845
-2.3171587701228398
-2.3110042979578305
-2.520256351567857
-2.391012436102846
-2.329467714452832
-2.391012436102846
-2.3663945474428347
-2.391012436102846
-2.3848579639378364
-2.347931130947833
-2.3971669082678284
-2.3663945474428347
-2.378703491772827
-2.3417766587828237
-2.304849825792821
-2.2802319371328093
-2.4648661020828517
-2.378703491772827
-2.372549019607845
-2.347931130947833
-2.378703491772827
-2.3171587701228398
-2.323313242287821
-2.3540856031128428
-2.3663945474428347
-2.360240075277825
-2.3663945474428347
-2.378703491772827
-2.347931130947833
-2.1632969659978185
-2.403321380432838
-2.4156303247628297
-2.3848579639378364
-2.3417766587828237
-2.3540856031128428
-2.391012436102846
-2.4156303247628297
-2.3540856031128428
-2.2802319371328093
-1.8863457185727683
-2.2371506319778245
-2.6987360443528896
-2.483329518577854
-2.3848579639378364
-2.471020574247862
-2.446402685587851
-2.403321380432838
-2.4156303247628297
-2.4217847969278394
-2.403321380432838
-2.409475852597848
-2.403321380432838
-2.3663945474428347
-2.372549019607845
-2.323313242287821
-2.360240075277825
-2.391012436102846
-2.372549019607845
-2.391012436102846
-2.4279392690928487
-2.3848579639378364
-2.409475852597848
-2.3663945474428347
-2.372549019607845
-2.4156303247628297
-2.3971669082678284
-2.409475852597848
-2.3971669082678284
-2.286386409297819
-2.403321380432838
-2.378703491772827
-2.255614048472826
-2.360240075277825
-2.538719768062857
-2.378703491772827
-2.335622186617841
-2.329467714452832
-2.3663945474428347
-2.335622186617841
-2.3171587701228398
-2.3540856031128428
-2.3417766587828237
-2.360240075277825
-2.329467714452832
-2.378703491772827
-2.323313242287821
-2.194069326822812
-2.446402685587851
-2.3663945474428347
-2.3171587701228398
-2.3171587701228398
-2.298695353627811
-2.286386409297819
-2.323313242287821
-2.335622186617841
-2.3540856031128428
-2.3848579639378364
-2.0340530505327803
-0.7662317845426038
-2.3971669082678284
-3.658833702093051
-3.018768596932925
-2.446402685587851
-2.3171587701228398
-2.3110042979578305
-2.378703491772827
-2.335622186617841
-2.052516467027782
-0.6062155082525723
-1.5663131659927332
-2.674118155692878
-2.575646601052861
-2.2433051041428067
-2.2802319371328093
-2.2433051041428067
-2.8279799598179
-3.837313394878056
-2.8402889041478923
-2.4587116299178424
-2.403321380432838
-2.3417766587828237
-2.304849825792821
-2.3540856031128428
-2.360240075277825
-2.391012436102846
-2.372549019607845
-2.3663945474428347
-2.304849825792821
-2.3663945474428347
-2.674118155692878
-2.495638462907845
-2.360240075277825
-2.4156303247628297
-2.372549019607845
-2.304849825792821
-2.360240075277825
-2.409475852597848
-2.304849825792821
-2.2802319371328093
-2.323313242287821
-2.372549019607845
-2.335622186617841
-2.249459576307816
-2.1448335495027893
-2.3171587701228398
-2.3540856031128428
-2.3540856031128428
-2.3848579639378364
-2.446402685587851
-2.446402685587851
-2.372549019607845
-2.3417766587828237
-2.360240075277825
-2.335622186617841
-2.347931130947833
-2.2740774649678275
-2.360240075277825
-2.3848579639378364
-2.563337656722869
-2.471020574247862
-2.4217847969278394
-2.4156303247628297
-2.409475852597848
-2.4217847969278394
-2.507947407237865
-2.471020574247862
-2.434093741257831
-2.4279392690928487
-2.4402482134228407
-2.4402482134228407
-2.3110042979578305
-1.2278171969176688
-1.7201749701177547
-2.68642710002287
-2.501792935072855
-2.378703491772827
-2.4217847969278394
-2.4156303247628297
-2.378703491772827
-2.391012436102846
-2.4279392690928487
-2.5325652958978484
-2.507947407237865
-2.477175046412844
-2.520256351567857
-2.7910531268278973
-2.7848986546628876
-2.544874240227868
-2.4587116299178424
-2.4648661020828517
-2.477175046412844
-2.4648661020828517
-2.4402482134228407
-2.403321380432838
-2.520256351567857
-2.4402482134228407
-2.3663945474428347
-2.4402482134228407
-2.409475852597848
-2.631036850537866
-2.932605986622927
-2.655654739197877
-2.477175046412844
-2.4279392690928487
-2.4402482134228407
-2.4402482134228407
-2.4279392690928487
-2.434093741257831
-2.4279392690928487
-2.4402482134228407
-2.434093741257831
-2.483329518577854
-2.4279392690928487
-2.2679229928028177
-2.150988021667799
-2.3663945474428347
-2.403321380432838
-2.3663945474428347
-2.3540856031128428
-2.0278985783677985
-0.7231504793875909
-2.1325246051727973
-2.391012436102846
-2.3540856031128428
-2.304849825792821
-2.3848579639378364
-3.357264566007989
-3.5911345082780266
-2.7910531268278973
-2.55718318455786
-2.4402482134228407
-2.403321380432838
-2.403321380432838
-2.3971669082678284
-2.378703491772827
-2.3971669082678284
-2.403321380432838
-2.391012436102846
-2.409475852597848
-2.3971669082678284
-2.4217847969278394
-2.2925408814628288
-1.8801912464077586
-2.1325246051727973
-2.347931130947833
-2.378703491772827
-2.403321380432838
-2.403321380432838
-2.409475852597848
-2.3971669082678284
-2.391012436102846
-2.4156303247628297
-2.391012436102846
-2.347931130947833
-2.4217847969278394
-2.446402685587851
-2.815671015487909
-2.858752320642893
-2.538719768062857
-2.446402685587851
-2.4587116299178424
-2.4525571577528327
-2.3971669082678284
-2.378703491772827
-2.4156303247628297
-2.4648661020828517
-2.477175046412844
-2.391012436102846
-2.3971669082678284
-2.3848579639378364
-2.249459576307816
-2.4587116299178424
-2.4217847969278394
-2.4525571577528327
-2.4156303247628297
-2.378703491772827
-2.434093741257831
-2.3848579639378364
-2.391012436102846
-2.4217847969278394
-2.409475852597848
-2.3848579639378364
-2.3417766587828237
-1.990971745377768
-2.212532743317813
-2.858752320642893
-2.618727906207874
-2.4156303247628297
-2.4217847969278394
-2.446402685587851
-2.4217847969278394
-2.4525571577528327
-2.477175046412844
-2.4402482134228407
-2.3663945474428347
-2.391012436102846
-2.378703491772827
-2.3663945474428347
-2.403321380432838
-2.477175046412844
-2.4217847969278394
-2.3663945474428347
-2.378703491772827
-2.378703491772827
-2.335622186617841
-2.3663945474428347
-2.378703491772827
-2.3171587701228398
-2.3110042979578305
-2.329467714452832
-2.323313242287821
-2.3848579639378364
-2.2740774649678275
-2.212532743317813
-2.403321380432838
-2.378703491772827
-2.378703491772827
-2.360240075277825
-2.3971669082678284
-2.403321380432838
-2.3663945474428347
-2.378703491772827
-2.4156303247628297
-2.3848579639378364
-2.323313242287821
-2.298695353627811
-2.3171587701228398
-2.3110042979578305
-2.501792935072855
-2.4156303247628297
-2.323313242287821
-2.323313242287821
-2.3663945474428347
-2.378703491772827
-2.360240075277825
-2.3540856031128428
-2.3971669082678284
-2.3417766587828237
-2.329467714452832
-2.3848579639378364
-2.360240075277825
-1.9601993845527748
-1.3570611123826792
-1.966353856717784
-2.587955545382853
-3.781923145393051
-2.877215737137895
-2.4648661020828517
-2.4279392690928487
-2.391012436102846
-2.3171587701228398
-2.298695353627811
-1.9294270237277809
-2.391012436102846
-2.667963683527869
-2.391012436102846
-2.760280766002876
-2.5141018794028467
-2.3417766587828237
-2.347931130947833
-2.391012436102846
-2.409475852597848
-2.3971669082678284
-2.378703491772827
-2.347931130947833
-2.335622186617841
-2.360240075277825
-2.477175046412844
-2.150988021667799
-2.089443300017785
-2.052516467027782
-2.2433051041428067
-2.304849825792821
-2.298695353627811
-2.3110042979578305
-2.323313242287821
-2.304849825792821
-2.329467714452832
-2.360240075277825
-2.323313242287821
-2.3110042979578305
-2.323313242287821
-2.3663945474428347
-2.298695353627811
-2.335622186617841
-2.3971669082678284
-2.329467714452832
-2.3663945474428347
-2.347931130947833
-2.323313242287821
-2.3417766587828237
-2.360240075277825
-2.3663945474428347
-2.403321380432838
-2.335622186617841
-2.3110042979578305
-2.335622186617841
-2.329467714452832
-2.372549019607845
-2.4894839907428636
-2.3540856031128428
-2.329467714452832
-2.378703491772827
-2.347931130947833
-2.323313242287821
-1.966353856717784
-2.335622186617841
-2.723353933012873
-2.526410823732866
-2.403321380432838
-2.3417766587828237
-2.347931130947833
-2.323313242287821
-2.4525571577528327
-2.360240075277825
-2.347931130947833
-2.360240075277825
-2.3417766587828237
-2.3540856031128428
-2.3848579639378364
-2.3110042979578305
-2.335622186617841
-2.3848579639378364
-2.1017522443478045
-0.7662317845426038
-1.9848172732127856
-2.200223798987821
-2.477175046412844
-2.403321380432838
-2.372549019607845
-2.372549019607845
-2.2371506319778245
-3.9480938938480934
-3.3326466773480057
-2.563337656722869
-2.446402685587851
-2.3540856031128428
-2.3417766587828237
-2.378703491772827
-2.335622186617841
-2.249459576307816
-2.4217847969278394
-2.3971669082678284
-2.391012436102846
-2.391012436102846
-2.403321380432838
-2.391012436102846
-2.347931130947833
-2.3848579639378364
-2.378703491772827
-2.3663945474428347
-2.378703491772827
-2.323313242287821
-2.304849825792821
-1.9232725515627715
-1.4863050278477177
-2.1632969659978185
-2.347931130947833
-2.2925408814628288
-2.2925408814628288
-2.372549019607845
-2.360240075277825
-2.335622186617841
-2.0217441062027888
-1.1478090587726528
-1.849418885582765
-2.175605910327811
-2.2925408814628288
-2.55718318455786
-3.369573510338009
-2.858752320642893
-3.560362147453033
-3.406500343328012
-2.631036850537866
-2.4648661020828517
-2.4156303247628297
-2.4279392690928487
-2.4279392690928487
-2.4217847969278394
-2.3971669082678284
-2.378703491772827
-2.4156303247628297
-2.3663945474428347
-2.2925408814628288
-2.520256351567857
-2.4525571577528327
-2.471020574247862
-2.4894839907428636
-2.434093741257831
-2.3971669082678284
-2.446402685587851
-2.4156303247628297
-2.378703491772827
-2.3971669082678284
-2.403321380432838
-2.403321380432838
-2.329467714452832
-2.3540856031128428
-2.575646601052861
-2.4525571577528327
-2.4156303247628297
-2.372549019607845
-2.4525571577528327
-2.4648661020828517
-2.4156303247628297
-2.4587116299178424
-2.4525571577528327
-2.4156303247628297
-2.4402482134228407
-2.434093741257831
-2.4156303247628297
-2.347931130947833
-2.600264489712873
-2.501792935072855
-2.495638462907845
-2.446402685587851
-2.4279392690928487
-2.4648661020828517
-2.372549019607845
-2.544874240227868
-2.507947407237865
-2.4587116299178424
-2.4894839907428636
-2.471020574247862
-2.4648661020828517
-2.3110042979578305
-2.471020574247862
-2.120215660842805
-2.4217847969278394
-2.7848986546628876
-2.55718318455786
-2.544874240227868
-2.4894839907428636
-2.495638462907845
-2.495638462907845
-2.483329518577854
-2.4648661020828517
-2.495638462907845
-2.391012436102846
-2.3663945474428347
-2.495638462907845
-2.4648661020828517
-2.391012436102846
-2.446402685587851
-2.4156303247628297
-2.391012436102846
-2.4279392690928487
-2.4587116299178424
-2.434093741257831
-2.4525571577528327
-2.4156303247628297
-2.446402685587851
-2.4217847969278394
-2.3663945474428347
-2.391012436102846
-2.5141018794028467
-2.4402482134228407
-2.483329518577854
-2.4587116299178424
-2.471020574247862
-2.4402482134228407
-2.434093741257831
-2.409475852597848
-2.4156303247628297
-2.4217847969278394
-2.4217847969278394
-2.378703491772827
-2.3417766587828237
-2.3540856031128428
-2.55718318455786
-2.4648661020828517
-2.4525571577528327
-2.483329518577854
-2.477175046412844
-2.4648661020828517
-2.434093741257831
-2.4525571577528327
-2.4525571577528327
-2.434093741257831
-2.446402685587851
-2.434093741257831
-2.4279392690928487
-2.3540856031128428
-2.520256351567857
-2.4279392690928487
-2.04020752269779
-0.8831667556776225
-2.2186872154828228
-2.3848579639378364
-2.907988097962916
-3.923476005188081
-2.883370209302905
-2.5141018794028467
-2.471020574247862
-2.4648661020828517
-2.4156303247628297
-2.323313242287821
-2.538719768062857
-2.4894839907428636
-2.483329518577854
-2.4217847969278394
-2.4402482134228407
-2.495638462907845
-2.4279392690928487
-2.4217847969278394
-2.4402482134228407
-2.495638462907845
-2.471020574247862
-2.4587116299178424
-2.403321380432838
-2.1632969659978185
-1.9232725515627715
-2.261768520637808
-2.372549019607845
-2.4525571577528327
-2.434093741257831
-2.434093741257831
-2.434093741257831
-2.3971669082678284
-2.434093741257831
-2.4217847969278394
-2.372549019607845
-2.434093741257831
-2.5325652958978484
-2.6925815721878803
-2.975687291777912
-2.618727906207874
-2.471020574247862
-2.4587116299178424
-2.4402482134228407
-2.4587116299178424
-2.471020574247862
-2.4648661020828517
-2.483329518577854
-2.434093741257831
-2.4525571577528327
-2.471020574247862
-2.4156303247628297
-2.372549019607845
-2.4525571577528327
-2.526410823732866
-2.446402685587851
-2.4587116299178424
-2.477175046412844
-2.4587116299178424
-2.4525571577528327
-2.495638462907845
-2.520256351567857
-2.4525571577528327
-2.015589634037779
-2.4279392690928487
-2.834134431982911
-2.5141018794028467
-2.335622186617841
-2.4894839907428636
-2.483329518577854
-2.4279392690928487
-2.4402482134228407
-2.4279392690928487
-2.409475852597848
-2.507947407237865
-2.501792935072855
-2.4279392690928487
-2.3971669082678284
-2.446402685587851
-2.4279392690928487
-2.360240075277825
-2.2802319371328093
-2.495638462907845
-2.471020574247862
-2.391012436102846
-2.3848579639378364
-2.403321380432838
-2.4402482134228407
-2.434093741257831
-2.403321380432838
-2.409475852597848
-2.477175046412844
-2.434093741257831
-2.3971669082678284
-2.372549019607845
-2.2802319371328093
-2.55718318455786
-2.4894839907428636
-2.446402685587851
-2.5141018794028467
-2.4648661020828517
-2.403321380432838
-2.3417766587828237
-2.391012436102846
-2.4279392690928487
-2.3971669082678284
-2.3540856031128428
-2.403321380432838
-2.3848579639378364
-2.304849825792821
-2.3848579639378364
-2.347931130947833
-2.347931130947833
-2.329467714452832
-2.298695353627811
-2.3417766587828237
-2.3540856031128428
-2.3663945474428347
-2.378703491772827
-2.409475852597848
-2.3540856031128428
-2.089443300017785
-1.2401261412476885
-1.7940286360977609
-2.194069326822812
-2.3663945474428347
-2.3417766587828237
-2.3540856031128428
-2.3171587701228398
-2.471020574247862
-3.6834515907530343
-3.1295490959029335
-2.4525571577528327
-2.3848579639378364
-2.3663945474428347
-2.360240075277825
-2.391012436102846
-2.3663945474428347
-2.391012436102846
-2.4402482134228407
-2.403321380432838
-2.347931130947833
-2.360240075277825
-2.360240075277825
-2.347931130947833
-2.3171587701228398
-2.360240075277825
-2.3417766587828237
-2.3663945474428347
-2.378703491772827
-2.3663945474428347
-2.329467714452832
-2.298695353627811
-2.2309961598128147
-0.6616057577376044
-1.590931054652717
-2.5941100175478624
-2.4894839907428636
-2.3663945474428347
-2.391012436102846
-2.3971669082678284
-2.96953281961293
-3.8803947000330687
-2.834134431982911
-2.55718318455786
-2.483329518577854
-2.409475852597848
-2.6371913227028756
-2.520256351567857
-2.4894839907428636
-2.507947407237865
-2.471020574247862
-2.477175046412844
-2.483329518577854
-2.4894839907428636
-2.477175046412844
-2.4217847969278394
-2.4525571577528327
-2.507947407237865
-2.446402685587851
-2.3971669082678284
-2.6987360443528896
-2.600264489712873
-2.501792935072855
-2.446402685587851
-2.4279392690928487
-2.4525571577528327
-2.4525571577528327
-2.4402482134228407
-2.409475852597848
-2.372549019607845
-2.360240075277825
-2.224841687647805
-2.2371506319778245
-2.2925408814628288
-2.200223798987821
-2.3110042979578305
-2.286386409297819
-2.360240075277825
-2.378703491772827
-2.3848579639378364
-2.403321380432838
-2.409475852597848
-2.4402482134228407
-2.4648661020828517
-2.471020574247862
-2.4156303247628297
-2.4217847969278394
-2.446402685587851
-2.5141018794028467
-2.4648661020828517
-2.434093741257831
-2.446402685587851
-2.4402482134228407
-2.434093741257831
-2.477175046412844
-2.483329518577854
-2.150988021667799
-2.434093741257831
-2.907988097962916
-2.575646601052861
-2.495638462907845
-2.4894839907428636
-2.4894839907428636
-2.5141018794028467
-2.526410823732866
-2.526410823732866
-2.507947407237865
-2.471020574247862
-2.483329518577854
-2.4894839907428636
-2.4587116299178424
-2.501792935072855
-2.501792935072855
-2.4587116299178424
-2.477175046412844
-2.483329518577854
-2.3848579639378364
-2.581801073217871
-2.520256351567857
-2.471020574247862
-2.507947407237865
-2.471020574247862
-2.0586709391927913
-0.901630172172624
-2.286386409297819
-2.372549019607845
-2.3663945474428347
-2.994150708272913
-3.7449963124030474
-2.754126293837894
-2.403321380432838
-2.5141018794028467
-2.4402482134228407
-2.446402685587851
-2.372549019607845
-2.3540856031128428
-2.3971669082678284
-2.409475852597848
-2.409475852597848
-2.3848579639378364
-2.378703491772827
-2.434093741257831
-2.409475852597848
-2.403321380432838
-2.3417766587828237
-2.446402685587851
-2.4525571577528327
-2.372549019607845
-2.403321380432838
-2.4279392690928487
-2.403321380432838
-2.4156303247628297
-2.4156303247628297
-2.4279392690928487
-2.4402482134228407
-2.4156303247628297
-2.446402685587851
-2.4402482134228407
-2.391012436102846
-2.477175046412844
-2.520256351567857
-2.477175046412844
-2.477175046412844
-2.5325652958978484
-2.563337656722869
-2.563337656722869
-2.575646601052861
-2.55102871239285
-2.4525571577528327
-2.471020574247862
-2.5141018794028467
-2.495638462907845
-2.4402482134228407
-2.667963683527869
-2.495638462907845
-2.4279392690928487
-2.4402482134228407
-2.471020574247862
-2.477175046412844
-2.483329518577854
-2.4402482134228407
-2.4525571577528327
-2.5141018794028467
-2.4525571577528327
-2.4525571577528327
-2.4587116299178424
-1.9294270237277809
-1.504768444342719
-2.261768520637808
-2.3848579639378364
-2.471020574247862
-2.3971669082678284
-2.4279392690928487
-2.446402685587851
-2.471020574247862
-2.4217847969278394
-2.4156303247628297
-2.4525571577528327
-2.4156303247628297
-2.544874240227868
-2.4587116299178424
-3.080313318582939
-3.160321456727955
-2.612573434042864
-2.4525571577528327
-2.4217847969278394
-2.4217847969278394
-2.5141018794028467
-2.4525571577528327
-2.4156303247628297
-2.434093741257831
-2.477175046412844
-2.4648661020828517
-2.4648661020828517
-2.4217847969278394
-2.372549019607845
-2.581801073217871
-2.538719768062857
-2.4587116299178424
-2.446402685587851
-2.483329518577854
-2.495638462907845
-2.4402482134228407
-2.4894839907428636
-2.446402685587851
-2.4156303247628297
-2.434093741257831
-2.4587116299178424
-2.391012436102846
-2.200223798987821
-2.372549019607845
-2.501792935072855
-2.409475852597848
-2.3663945474428347
-2.329467714452832
-2.347931130947833
-2.3971669082678284
-2.409475852597848
-2.3971669082678284
-2.434093741257831
-2.446402685587851
-2.4525571577528327
-2.4402482134228407
-2.372549019607845
-2.1571424938328088
-1.4924595000126994
-3.24648406703798
-2.9879962361079313
-2.471020574247862
-2.4279392690928487
-2.3848579639378364
-2.4648661020828517
-2.4525571577528327
-2.4402482134228407
-2.4279392690928487
-2.3848579639378364
-2.372549019607845
-2.378703491772827
-2.5141018794028467
-2.501792935072855
-2.4648661020828517
-2.4587116299178424
-2.4279392690928487
-2.391012436102846
-2.3663945474428347
-2.4156303247628297
-2.4402482134228407
-2.360240075277825
-2.304849825792821
-2.391012436102846
-2.391012436102846
-2.335622186617841
-2.150988021667799
-2.249459576307816
-2.3540856031128428
-2.3848579639378364
-2.372549019607845
-2.347931130947833
-2.378703491772827
-2.4156303247628297
-2.372549019607845
-2.360240075277825
-2.3663945474428347
-2.409475852597848
-2.446402685587851
-2.3848579639378364
-2.3971669082678284
-2.600264489712873
-2.507947407237865
-2.446402685587851
-2.4279392690928487
-2.483329518577854
-2.471020574247862
-2.409475852597848
-2.4894839907428636
-2.4894839907428636
-2.434093741257831
-2.4587116299178424
-2.446402685587851
-2.403321380432838
-2.298695353627811
-2.4525571577528327
-2.4648661020828517
-2.4525571577528327
-2.4525571577528327
-2.4402482134228407
-2.4279392690928487
-2.409475852597848
-2.0217441062027888
-2.4217847969278394
-2.754126293837894
-2.520256351567857
-2.4217847969278394
-2.403321380432838
-2.335622186617841
-2.3540856031128428
-2.4648661020828517
-2.4648661020828517
-2.409475852597848
-2.391012436102846
-2.372549019607845
-2.3540856031128428
-2.323313242287821
-2.3417766587828237
-2.378703491772827
-2.3417766587828237
-2.2925408814628288
-2.2186872154828228
-2.2925408814628288
-2.471020574247862
-2.391012436102846
-2.323313242287821
-2.304849825792821
-2.298695353627811
-2.3171587701228398
-2.347931130947833
-2.372549019607845
-2.403321380432838
-2.391012436102846
-2.403321380432838
-2.4402482134228407
-2.434093741257831
-2.3663945474428347
-2.4279392690928487
-2.5325652958978484
-2.434093741257831
-2.4217847969278394
-2.4587116299178424
-2.255614048472826
-1.2770529742376913
-1.7509473309427481
-2.175605910327811
-2.2740774649678275
-2.2802319371328093
-2.304849825792821
-2.304849825792821
-2.8095165433228986
-3.658833702093051
-2.9387604587879093
-2.446402685587851
-2.3540856031128428
-2.329467714452832
-2.347931130947833
-2.3663945474428347
-2.335622186617841
-2.4402482134228407
-2.1263701330077875
-0.8831667556776225
-2.249459576307816
-2.477175046412844
-2.4525571577528327
-2.298695353627811
-3.424963759823013
-3.812695506218072
-2.8279799598179
-2.563337656722869
-2.538719768062857
-2.538719768062857
-2.495638462907845
-2.5141018794028467
-2.507947407237865
-2.446402685587851
-2.434093741257831
-2.471020574247862
-2.3848579639378364
-2.2186872154828228
-2.360240075277825
-2.360240075277825
-2.304849825792821
-2.329467714452832
-2.2925408814628288
-2.304849825792821
-2.335622186617841
-2.298695353627811
-2.323313242287821
-2.391012436102846
-2.4279392690928487
-2.409475852597848
-2.3540856031128428
-2.360240075277825
-2.4648661020828517
-2.4587116299178424
-2.446402685587851
-2.391012436102846
-2.378703491772827
-2.360240075277825
-2.360240075277825
-2.403321380432838
-2.372549019607845
-2.329467714452832
-2.360240075277825
-2.391012436102846
-2.3663945474428347
-2.255614048472826
-2.329467714452832
-2.4587116299178424
-2.347931130947833
-2.3540856031128428
-2.335622186617841
-2.3540856031128428
-2.3663945474428347
-2.3110042979578305
-2.286386409297819
-2.3417766587828237
-2.3417766587828237
-2.2802319371328093
-2.3110042979578305
-2.372549019607845
-2.3171587701228398
-2.378703491772827
-1.9478904402227823
-2.1448335495027893
-2.723353933012873
-2.4402482134228407
-2.335622186617841
-2.2802319371328093
-2.360240075277825
-2.403321380432838
-2.3848579639378364
-2.409475852597848
-2.4402482134228407
-2.3848579639378364
-2.304849825792821
-2.526410823732866
-2.501792935072855
-2.477175046412844
-2.471020574247862
-2.403321380432838
-2.403321380432838
-2.4217847969278394
-2.3971669082678284
-2.347931130947833
-2.3663945474428347
-2.378703491772827
-2.3663945474428347
-2.323313242287821
-2.2371506319778245
-2.520256351567857
-2.4648661020828517
-2.347931130947833
-2.3110042979578305
-2.3540856031128428
-2.409475852597848
-2.3540856031128428
-2.3171587701228398
-2.3171587701228398
-2.3848579639378364
-2.3663945474428347
-2.335622186617841
-2.372549019607845
-2.360240075277825
-2.6064189618778553
-2.446402685587851
-2.4217847969278394
-2.471020574247862
-2.434093741257831
-2.434093741257831
-2.409475852597848
-2.4279392690928487
-2.4894839907428636
-2.4525571577528327
-2.4587116299178424
-2.507947407237865
-2.471020574247862
-2.360240075277825
-2.347931130947833
-2.501792935072855
-2.501792935072855
-2.187914854657802
-1.3201342793926762
-2.2186872154828228
-3.7449963124030474
-3.055695429922928
-2.55718318455786
-2.4648661020828517
-2.4525571577528327
-2.4156303247628297
-2.3417766587828237
-2.372549019607845
-2.3663945474428347
-2.409475852597848
-2.372549019607845
-2.347931130947833
-2.391012436102846
-2.3971669082678284
-2.4587116299178424
-1.9171180793977614
-2.4587116299178424
-2.7848986546628876
-2.4279392690928487
-2.3663945474428347
-2.403321380432838
-2.372549019607845
-2.323313242287821
-2.526410823732866
-2.434093741257831
-2.446402685587851
-2.372549019607845
-2.3848579639378364
-2.403321380432838
-2.347931130947833
-2.3663945474428347
-2.323313242287821
-2.378703491772827
-2.3663945474428347
-2.3663945474428347
-2.3417766587828237
-2.2186872154828228
-2.4894839907428636
-2.4279392690928487
-2.329467714452832
-2.409475852597848
-2.3848579639378364
-2.372549019607845
-2.4402482134228407
-2.4648661020828517
-2.4279392690928487
-2.4587116299178424
-2.495638462907845
-2.483329518577854
-2.3971669082678284
-2.2925408814628288
-2.55102871239285
-2.501792935072855
-2.4648661020828517
-2.4587116299178424
-2.4156303247628297
-2.378703491772827
-2.4156303247628297
-2.434093741257831
-2.378703491772827
-2.3171587701228398
-1.9294270237277809
-2.323313242287821
-2.723353933012873
-2.372549019607845
-2.409475852597848
-2.434093741257831
-2.434093741257831
-2.403321380432838
-2.372549019607845
-2.360240075277825
-2.3848579639378364
-2.347931130947833
-2.286386409297819
-2.3417766587828237
-2.3848579639378364
-2.298695353627811
-2.2925408814628288
-2.2186872154828228
-1.7632562752727399
-2.1632969659978185
-2.3110042979578305
-2.3110042979578305
-2.347931130947833
-2.3417766587828237
-2.360240075277825
-2.3663945474428347
-2.372549019607845
-2.3540856031128428
-2.335622186617841
-2.3540856031128428
-2.360240075277825
-2.3971669082678284
-2.9141425701278982
-1.4432237226927047
-2.5141018794028467
-3.449581648482997
-2.520256351567857
-2.409475852597848
-2.391012436102846
-2.391012436102846
-2.3663945474428347
-2.3540856031128428
-2.391012436102846
-2.3848579639378364
-2.378703491772827
-2.2740774649678275
-2.2925408814628288
-2.544874240227868
-2.3971669082678284
-2.403321380432838
-2.4402482134228407
-2.378703491772827
-2.3663945474428347
-2.4156303247628297
-2.378703491772827
-2.323313242287821
-2.347931130947833
-2.2802319371328093
-2.0586709391927913
-1.1170366979476598
-1.6586302484677409
-2.2740774649678275
-2.2740774649678275
-2.2433051041428067
-2.224841687647805
-3.2403295948729705
-3.375727982502991
-2.483329518577854
-2.3110042979578305
-2.304849825792821
-2.2679229928028177
-2.286386409297819
-2.3171587701228398
-2.2679229928028177
-2.175605910327811
-2.298695353627811
-2.3110042979578305
-2.2925408814628288
-2.298695353627811
-2.2679229928028177
-2.298695353627811
-2.2679229928028177
-2.3110042979578305
-2.323313242287821
-2.3171587701228398
-2.360240075277825
-2.3110042979578305
-2.2925408814628288
-2.261768520637808
-2.224841687647805
-2.372549019607845
-2.3417766587828237
-2.3540856031128428
-2.3971669082678284
-2.434093741257831
-2.391012436102846
-2.378703491772827
-2.378703491772827
-2.4156303247628297
-2.3971669082678284
-2.403321380432838
-2.4525571577528327
-2.4402482134228407
-2.55718318455786
-2.507947407237865
-2.403321380432838
-2.4217847969278394
-2.372549019607845
-2.3540856031128428
-2.3417766587828237
-2.335622186617841
-2.286386409297819
-1.9848172732127856
-0.6616057577376044
-1.7140204979527456
-2.631036850537866
-2.4648661020828517
-2.4156303247628297
-2.483329518577854
-2.409475852597848
-2.9387604587879093
-3.6711426464230414
-2.6987360443528896
-2.360240075277825
-2.2925408814628288
-2.3663945474428347
-2.360240075277825
-2.2740774649678275
-2.286386409297819
-2.378703491772827
-2.304849825792821
-2.224841687647805
-2.483329518577854
-2.4217847969278394
-2.544874240227868
-2.304849825792821
-2.304849825792821
-2.360240075277825
-2.360240075277825
-2.403321380432838
-2.4587116299178424
-2.4156303247628297
-2.403321380432838
-2.4217847969278394
-2.3663945474428347
-2.3971669082678284
-2.4402482134228407
-2.4279392690928487
-2.4587116299178424
-2.4217847969278394
-2.3417766587828237
-2.434093741257831
-2.495638462907845
-2.446402685587851
-2.3971669082678284
-2.446402685587851
-2.4217847969278394
-2.372549019607845
-2.3971669082678284
-2.323313242287821
-2.520256351567857
-2.495638462907845
-2.4648661020828517
-2.4217847969278394
-2.4217847969278394
-2.391012436102846
-2.3848579639378364
-2.409475852597848
-2.403321380432838
-2.391012436102846
-2.3971669082678284
-2.403321380432838
-2.4156303247628297
-2.3171587701228398
-2.175605910327811
-2.2925408814628288
-2.0278985783677985
-2.4648661020828517
-2.7418173495078744
-2.507947407237865
-2.0586709391927913
-0.7846952010376053
-2.255614048472826
-2.7910531268278973
-3.874240227868059
-2.9387604587879093
-2.544874240227868
-2.495638462907845
-3.154166984562973
-2.9264515144579173
-2.563337656722869
-2.477175046412844
-2.471020574247862
-2.477175046412844
-2.4525571577528327
-2.4525571577528327
-2.477175046412844
-2.477175046412844
-2.495638462907845
-2.4525571577528327
-2.4648661020828517
-2.335622186617841
-1.830955469087764
-2.255614048472826
-2.3848579639378364
-2.4279392690928487
-2.434093741257831
-2.378703491772827
-2.434093741257831
-2.3848579639378364
-2.4156303247628297
-2.4279392690928487
-2.403321380432838
-2.434093741257831
-2.446402685587851
-2.286386409297819
-2.2371506319778245
-2.483329518577854
-2.403321380432838
-2.4217847969278394
-2.391012436102846
-2.409475852597848
-2.4648661020828517
-2.434093741257831
-2.446402685587851
-2.434093741257831
-2.446402685587851
-2.4525571577528327
-2.3848579639378364
-2.391012436102846
-2.3663945474428347
-2.5694921288878514
-2.446402685587851
-2.3848579639378364
-2.4217847969278394
-2.4217847969278394
-2.372549019607845
-2.378703491772827
-2.403321380432838
-2.4217847969278394
-2.446402685587851
-2.3971669082678284
-2.3848579639378364
-2.347931130947833
-1.8124920525927626
-1.9417359680577726
-2.624882378372884
-2.391012436102846
-2.3663945474428347
-2.3663945474428347
-2.3540856031128428
-2.360240075277825
-2.360240075277825
-2.329467714452832
-2.372549019607845
-2.403321380432838
-2.3663945474428347
-2.304849825792821
-2.360240075277825
-2.8525978484779113
-2.6064189618778553
-2.391012436102846
-2.520256351567857
-2.4587116299178424
-2.3540856031128428
-2.403321380432838
-2.372549019607845
-2.3663945474428347
-2.347931130947833
-2.391012436102846
-2.3971669082678284
-2.3663945474428347
-2.2802319371328093
-1.830955469087764
-2.175605910327811
-2.3663945474428347
-2.3848579639378364
-2.4402482134228407
-2.403321380432838
-2.372549019607845
-2.3540856031128428
-2.446402685587851
-2.434093741257831
-2.360240075277825
-2.360240075277825
-2.4217847969278394
-2.403321380432838
-2.9202970422929075
-2.871061264972913
-2.5141018794028467
-2.4402482134228407
-2.403321380432838
-2.4156303247628297
-2.4279392690928487
-2.372549019607845
-2.477175046412844
-2.4156303247628297
-2.3848579639378364
-2.372549019607845
-2.4402482134228407
-2.3540856031128428
-2.1632969659978185
-2.089443300017785
-1.2770529742376913
-1.892500190737778
-2.2433051041428067
-2.347931130947833
-2.372549019607845
-2.2925408814628288
-2.434093741257831
-3.634215813433039
-3.344955621677997
-2.526410823732866
-2.4402482134228407
-2.3971669082678284
-2.255614048472826
-2.4525571577528327
-2.4587116299178424
-2.4156303247628297
-2.403321380432838
-2.391012436102846
-2.409475852597848
-2.403321380432838
-2.4279392690928487
-2.4587116299178424
-2.434093741257831
-2.477175046412844
-2.4525571577528327
-2.4156303247628297
-2.298695353627811
-2.391012436102846
-2.391012436102846
-2.372549019607845
-2.391012436102846
-2.3971669082678284
-2.3848579639378364
-2.391012436102846
-2.3663945474428347
-2.335622186617841
-2.3540856031128428
-2.3110042979578305
-2.403321380432838
-2.3540856031128428
-2.2802319371328093
-2.304849825792821
-2.378703491772827
-2.378703491772827
-2.3540856031128428
-2.378703491772827
-2.3417766587828237
-2.372549019607845
-2.378703491772827
-2.3971669082678284
-2.372549019607845
-2.347931130947833
-2.391012436102846
-2.3971669082678284
-2.304849825792821
-2.4648661020828517
-2.538719768062857
-2.4156303247628297
-2.4279392690928487
-2.3848579639378364
-2.378703491772827
-2.360240075277825
-2.360240075277825
-1.990971745377768
-2.3171587701228398
-2.766435238167886
-2.5325652958978484
-2.4217847969278394
-2.329467714452832
-2.2925408814628288
-2.544874240227868
-2.501792935072855
-2.4525571577528327
-2.391012436102846
-2.3663945474428347
-2.391012436102846
-2.372549019607845
-2.360240075277825
-2.403321380432838
-2.403321380432838
-2.391012436102846
-2.347931130947833
-2.3110042979578305
-2.261768520637808
-2.446402685587851
-2.3971669082678284
-2.3848579639378364
-2.378703491772827
-2.520256351567857
-2.286386409297819
-2.329467714452832
-2.372549019607845
-2.378703491772827
-2.391012436102846
-2.391012436102846
-2.3540856031128428
-2.335622186617841
-2.298695353627811
-2.520256351567857
-2.4648661020828517
-2.372549019607845
-2.391012436102846
-2.409475852597848
-2.378703491772827
-2.372549019607845
-2.3171587701228398
-2.347931130947833
-2.372549019607845
-2.3171587701228398
-2.298695353627811
-2.304849825792821
-2.120215660842805
-1.683248137127724
-2.1263701330077875
-2.298695353627811
-2.347931130947833
-2.3417766587828237
-2.409475852597848
-2.335622186617841
-2.329467714452832
-2.403321380432838
-2.089443300017785
-1.1724269474326645
-1.9355814958927628
-2.3171587701228398
-2.704890516517872
-3.080313318582939
-2.070979883522784
-2.649500267032867
-2.520256351567857
-2.3971669082678284
-2.3663945474428347
-2.372549019607845
-3.080313318582939
-3.738841840238039
-2.7171994608478913
-2.4587116299178424
-2.3971669082678284
-2.391012436102846
-2.3171587701228398
-2.3417766587828237
-2.446402685587851
-2.391012436102846
-2.335622186617841
-2.347931130947833
-2.329467714452832
-2.304849825792821
-2.3110042979578305
-2.3663945474428347
-2.3417766587828237
-2.347931130947833
-2.347931130947833
-2.372549019607845
-2.304849825792821
-2.347931130947833
-2.446402685587851
-2.3663945474428347
-2.3971669082678284
-2.4156303247628297
-2.372549019607845
-2.3663945474428347
-2.391012436102846
-2.409475852597848
-2.3663945474428347
-2.372549019607845
-2.4156303247628297
-2.3848579639378364
-2.3171587701228398
-2.224841687647805
-2.471020574247862
-2.4402482134228407
-2.434093741257831
-2.409475852597848
-2.391012436102846
-2.378703491772827
-2.3663945474428347
-2.360240075277825
-2.3971669082678284
-2.3971669082678284
-2.391012436102846
-2.409475852597848
-2.403321380432838
-2.329467714452832
-2.471020574247862
-2.4587116299178424
-2.391012436102846
-2.372549019607845
-2.4402482134228407
-2.3540856031128428
-1.9048091350677696
-2.4217847969278394
-2.766435238167886
-2.4894839907428636
-2.4402482134228407
-2.4156303247628297
-2.378703491772827
-2.335622186617841
-2.138679077337807
-2.3110042979578305
-2.409475852597848
-2.403321380432838
-2.347931130947833
-2.3663945474428347
-2.3540856031128428
-2.335622186617841
-2.4279392690928487
-2.391012436102846
-2.378703491772827
-2.3417766587828237
-2.3417766587828237
-2.409475852597848
-2.68642710002287
-2.55102871239285
-2.446402685587851
-2.4587116299178424
-2.434093741257831
-2.403321380432838
-2.403321380432838
-2.378703491772827
-2.360240075277825
-2.4156303247628297
-2.4217847969278394
-2.391012436102846
-2.4402482134228407
-2.329467714452832
-1.5663131659927332
-1.8740367742427766
-2.2371506319778245
-2.3663945474428347
-2.3971669082678284
-2.304849825792821
-2.329467714452832
-2.304849825792821
-2.2740774649678275
-2.261768520637808
-2.360240075277825
-2.347931130947833
-2.391012436102846
-2.391012436102846
-2.994150708272913
-2.96953281961293
-2.5141018794028467
-2.3971669082678284
-2.1632969659978185
-1.3447521680526875
-1.7140204979527456
-2.187914854657802
-2.347931130947833
-2.304849825792821
-2.323313242287821
-2.347931130947833
-2.507947407237865
-3.6834515907530343
-3.160321456727955
-2.667963683527869
-2.471020574247862
-2.391012436102846
-2.391012436102846
-2.4217847969278394
-2.3971669082678284
-2.378703491772827
-2.372549019607845
-2.3540856031128428
-2.3663945474428347
-2.323313242287821
-2.378703491772827
-2.335622186617841
-2.286386409297819
-2.2802319371328093
-2.323313242287821
-2.3848579639378364
-2.347931130947833
-2.347931130947833
-2.360240075277825
-2.3663945474428347
-2.4525571577528327
-2.378703491772827
-2.329467714452832
-2.391012436102846
-2.403321380432838
-2.403321380432838
-2.4156303247628297
-2.507947407237865
-2.4279392690928487
-2.3971669082678284
-2.360240075277825
-2.3417766587828237
-2.3540856031128428
-2.360240075277825
-2.391012436102846
-2.409475852597848
-2.347931130947833
-2.329467714452832
-2.304849825792821
-2.372549019607845
-2.323313242287821
-2.304849825792821
-2.4156303247628297
-2.3171587701228398
-2.298695353627811
-2.372549019607845
-2.3848579639378364
-2.378703491772827
-2.360240075277825
-2.3110042979578305
-2.323313242287821
-2.360240075277825
-1.9848172732127856
-2.2802319371328093
-2.711044988682881
-2.347931130947833
-2.501792935072855
-2.4217847969278394
-2.3971669082678284
-2.360240075277825
-2.391012436102846
-2.391012436102846
-2.3848579639378364
-2.4402482134228407
-2.409475852597848
-2.3663945474428347
-2.409475852597848
-2.391012436102846
-2.3971669082678284
-2.3971669082678284
-2.600264489712873
-2.4217847969278394
-2.4279392690928487
-2.446402685587851
-2.4156303247628297
-2.3848579639378364
-2.378703491772827
-2.4402482134228407
-2.360240075277825
-2.3663945474428347
-2.409475852597848
-2.4279392690928487
-2.4648661020828517
-2.2802319371328093
-2.4217847969278394
-2.4402482134228407
-2.403321380432838
-2.3971669082678284
-2.409475852597848
-2.507947407237865
-2.3171587701228398
-2.403321380432838
-2.409475852597848
-2.4279392690928487
-2.4217847969278394
-2.3971669082678284
-2.378703491772827
-2.4587116299178424
-2.821825487652891
-2.655654739197877
-2.434093741257831
-2.3848579639378364
-2.446402685587851
-2.4402482134228407
-2.372549019607845
-2.3848579639378364
-2.446402685587851
-2.360240075277825
-2.3663945474428347
-2.434093741257831
-1.9848172732127856
-0.6000610360875902
-1.7017115536227536
-2.2740774649678275
-2.3848579639378364
-3.055695429922928
-3.7080694794130453
-2.723353933012873
-2.471020574247862
-2.4156303247628297
-2.3663945474428347
-2.378703491772827
-2.403321380432838
-2.391012436102846
-2.409475852597848
-2.2925408814628288
-1.5416952773327224
-2.0217441062027888
-2.329467714452832
-2.372549019607845
-2.391012436102846
-2.3971669082678284
-2.483329518577854
-2.3971669082678284
-2.372549019607845
-2.372549019607845
-2.3540856031128428
-2.403321380432838
-2.4402482134228407
-2.4587116299178424
-3.301874316522985
-3.092622262912931
-2.55718318455786
-2.4587116299178424
-2.4156303247628297
-2.4402482134228407
-2.4279392690928487
-2.409475852597848
-2.526410823732866
-2.4587116299178424
-2.471020574247862
-2.507947407237865
-2.5141018794028467
-2.507947407237865
-1.7632562752727399
-1.7078660257877356
-2.3540856031128428
-2.434093741257831
-2.4525571577528327
-2.409475852597848
-2.4217847969278394
-2.4648661020828517
-2.391012436102846
-2.360240075277825
-2.409475852597848
-2.3848579639378364
-2.391012436102846
-2.347931130947833
-2.871061264972913
-3.3511100938430074
-2.624882378372884
-2.471020574247862
-2.403321380432838
-2.403321380432838
-1.9601993845527748
-2.335622186617841
-2.766435238167886
-2.4525571577528327
-2.446402685587851
-2.409475852597848
-2.3540856031128428
-2.360240075277825
-2.1448335495027893
-1.7447928587777384
-2.194069326822812
-2.335622186617841
-1.9848172732127856
-1.184735891762656
-1.8124920525927626
-2.1694514381628007
-2.2679229928028177
-2.261768520637808
-2.329467714452832
-2.3540856031128428
-2.9572238752829105
-3.6957605350830534
-2.7171994608478913
-2.5694921288878514
-2.4217847969278394
-2.335622186617841
-2.3540856031128428
-2.3663945474428347
-2.3417766587828237
-2.4279392690928487
-2.3540856031128428
-2.378703491772827
-2.403321380432838
-2.403321380432838
-2.391012436102846
-2.409475852597848
-2.403321380432838
-2.9202970422929075
-2.754126293837894
-2.434093741257831
-2.4587116299178424
-2.4648661020828517
-2.4217847969278394
-2.409475852597848
-2.4217847969278394
-2.4279392690928487
-2.4402482134228407
-2.477175046412844
-2.4156303247628297
-2.4279392690928487
-2.372549019607845
-2.403321380432838
-2.55718318455786
-2.4402482134228407
-2.4156303247628297
-2.3663945474428347
-2.3663945474428347
-2.3848579639378364
-2.0586709391927913
-1.2770529742376913
-3.24648406703798
-3.0249230690979347
-2.5141018794028467
-2.391012436102846
-2.3663945474428347
-2.2679229928028177
-2.434093741257831
-2.4156303247628297
-2.4217847969278394
-2.3663945474428347
-2.4217847969278394
-2.3971669082678284
-2.372549019607845
-2.3848579639378364
-2.391012436102846
-2.4525571577528327
-2.4217847969278394
-2.360240075277825
-2.372549019607845
-2.329467714452832
-2.471020574247862
-2.434093741257831
-2.409475852597848
-2.4587116299178424
-2.3971669082678284
-2.403321380432838
-2.3663945474428347
-2.409475852597848
-2.434093741257831
-2.347931130947833
-2.3971669082678284
-2.434093741257831
-2.391012436102846
-2.409475852597848
-2.772589710332896
-2.581801073217871
-2.446402685587851
-2.378703491772827
-2.3848579639378364
-2.403321380432838
-2.4156303247628297
-2.323313242287821
-2.360240075277825
-2.372549019607845
-2.347931130947833
-2.347931130947833
-2.329467714452832
-2.187914854657802
-1.9355814958927628
-2.1694514381628007
-2.286386409297819
-2.304849825792821
-2.3417766587828237
-2.3171587701228398
-2.3171587701228398
-2.323313242287821
-2.360240075277825
-2.378703491772827
-2.347931130947833
-2.3417766587828237
-2.329467714452832
-2.3540856031128428
-2.1571424938328088
-2.55102871239285
-2.7848986546628876
-2.507947407237865
-2.471020574247862
-2.4525571577528327
-2.4648661020828517
-2.4279392690928487
-2.378703491772827
-2.3171587701228398
-2.3540856031128428
-2.3417766587828237
-2.298695353627811
-2.2186872154828228
-1.8432644134177558
-2.0586709391927913
-2.2802319371328093
-2.261768520637808
-2.249459576307816
-2.323313242287821
-2.3110042979578305
-2.255614048472826
-2.286386409297819
-2.329467714452832
-2.3540856031128428
-2.323313242287821
-2.3110042979578305
-2.323313242287821
-2.520256351567857
-2.723353933012873
-2.4648661020828517
-2.391012436102846
-2.3848579639378364
-2.347931130947833
-2.3417766587828237
-2.3663945474428347
-2.360240075277825
-2.3171587701228398
-2.323313242287821
-2.403321380432838
-1.9294270237277809
-2.3663945474428347
-2.501792935072855
-2.434093741257831
-2.501792935072855
-2.3971669082678284
-2.335622186617841
-2.360240075277825
-2.3171587701228398
-2.391012436102846
-2.4156303247628297
-2.1632969659978185
-2.2063782711528033
-2.2679229928028177
-2.323313242287821
-2.2679229928028177
-2.2186872154828228
-2.323313242287821
-1.972508328882766
-0.7169960072226089
-2.0955977721827947
-2.2679229928028177
-2.2802319371328093
-2.2433051041428067
-3.172630401057975
-3.5849800361130173
-2.587955545382853
-2.3848579639378364
-2.323313242287821
-2.3110042979578305
-2.2371506319778245
-1.8432644134177558
-2.175605910327811
-2.403321380432838
-2.4156303247628297
-2.3540856031128428
-2.335622186617841
-2.403321380432838
-2.3663945474428347
-2.3663945474428347
-2.391012436102846
-2.4587116299178424
-2.4217847969278394
-2.4156303247628297
-2.372549019607845
-2.723353933012873
-2.723353933012873
-2.434093741257831
-2.391012436102846
-2.3540856031128428
-2.335622186617841
-2.3848579639378364
-2.329467714452832
-2.304849825792821
-2.3417766587828237
-2.372549019607845
-2.329467714452832
-2.372549019607845
-2.335622186617841
-2.298695353627811
-2.4279392690928487
-2.360240075277825
-2.3540856031128428
-2.3417766587828237
-2.286386409297819
-2.3110042979578305
-2.347931130947833
-2.2802319371328093
-2.2679229928028177
-2.261768520637808
-2.298695353627811
-2.378703491772827
-2.391012436102846
-2.2433051041428067
-2.403321380432838
-2.347931130947833
-2.360240075277825
-2.298695353627811
-2.2740774649678275
-1.7817196917677414
-2.298695353627811
-2.667963683527869
-1.9601993845527748
-2.2433051041428067
-2.655654739197877
-2.329467714452832
-2.255614048472826
-2.224841687647805
-2.2186872154828228
-2.304849825792821
-2.329467714452832
-2.360240075277825
-2.3110042979578305
-2.286386409297819
-2.3110042979578305
-2.3540856031128428
-2.360240075277825
-2.3110042979578305
-2.298695353627811
-2.2679229928028177
-2.3110042979578305
-2.3110042979578305
-2.3540856031128428
-2.3110042979578305
-2.347931130947833
-2.3110042979578305
-2.286386409297819
-2.335622186617841
-2.329467714452832
-2.329467714452832
-2.3663945474428347
-2.335622186617841
-2.335622186617841
-2.335622186617841
-2.2802319371328093
-2.200223798987821
-2.304849825792821
-2.446402685587851
-2.347931130947833
-2.3540856031128428
-2.3417766587828237
-2.3417766587828237
-2.2925408814628288
-2.261768520637808
-2.3110042979578305
-2.304849825792821
-2.2679229928028177
-2.150988021667799
-2.261768520637808
-2.194069326822812
-2.1325246051727973
-2.378703491772827
-2.304849825792821
-2.323313242287821
-2.323313242287821
-2.2925408814628288
-2.298695353627811
-2.2925408814628288
-2.286386409297819
-2.2433051041428067
-1.9786628010477763
-1.11088222578265
-2.003280689707787
-3.474199537143008
-2.766435238167886
-2.403321380432838
-2.298695353627811
-2.2433051041428067
-2.2802319371328093
-2.194069326822812
-2.187914854657802
-2.249459576307816
-2.1817603824928202
-2.2063782711528033
-2.2740774649678275
-2.3110042979578305
-2.249459576307816
-2.2433051041428067
-1.7940286360977609
-2.3848579639378364
-2.68642710002287
-2.372549019607845
-2.2740774649678275
-2.2925408814628288
-2.2925408814628288
-2.2802319371328093
-1.8063375804277528
-0.47697159278756174
-1.7017115536227536
-2.55718318455786
-2.391012436102846
-2.298695353627811
-2.1263701330077875
-2.003280689707787
-2.975687291777912
-3.652679229928041
-2.55718318455786
-2.255614048472826
-2.2679229928028177
-2.286386409297819
-2.212532743317813
-2.2063782711528033
-2.2802319371328093
-2.347931130947833
-2.255614048472826
-2.200223798987821
-2.2679229928028177
-2.563337656722869
-2.4894839907428636
-2.249459576307816
-2.138679077337807
-2.249459576307816
-2.255614048472826
-2.2186872154828228
-2.2186872154828228
-2.2433051041428067
-2.261768520637808
-2.2433051041428067
-2.175605910327811
-2.347931130947833
-2.2371506319778245
-2.1448335495027893
-2.3110042979578305
-2.3110042979578305
-2.3110042979578305
-2.3417766587828237
-2.304849825792821
-2.2925408814628288
-2.329467714452832
-2.3110042979578305
-2.2925408814628288
-2.2925408814628288
-2.329467714452832
-2.347931130947833
-2.255614048472826
-2.2063782711528033
-2.495638462907845
-2.4525571577528327
-2.378703491772827
-2.372549019607845
-2.4525571577528327
-2.5141018794028467
-2.477175046412844
-2.4587116299178424
-2.4587116299178424
-2.4587116299178424
-2.483329518577854
-2.4525571577528327
-2.4402482134228407
-2.378703491772827
-2.120215660842805
-2.501792935072855
-2.766435238167886
-2.5325652958978484
-2.4648661020828517
-2.372549019607845
-2.434093741257831
-2.3971669082678284
-2.4279392690928487
-2.378703491772827
-2.3848579639378364
-2.4156303247628297
-2.372549019607845
-2.3540856031128428
-2.4217847969278394
-2.403321380432838
-2.4894839907428636
-2.4217847969278394
-2.403321380432838
-2.391012436102846
-2.4279392690928487
-2.4525571577528327
-2.391012436102846
-2.403321380432838
-2.4525571577528327
-2.4402482134228407
-2.4156303247628297
-2.4402482134228407
-2.711044988682881
-2.563337656722869
-2.446402685587851
-2.372549019607845
-2.187914854657802
-1.3016708628976748
-1.9601993845527748
-2.255614048472826
-2.391012436102846
-2.4587116299178424
-2.600264489712873
-3.38803692683301
-3.4988174258030194
-2.520256351567857
-2.360240075277825
-2.6433457948678853
-2.483329518577854
-2.495638462907845
-2.501792935072855
-2.4894839907428636
-2.507947407237865
-2.526410823732866
-2.4587116299178424
-2.3971669082678284
-2.4279392690928487
-2.4525571577528327
-2.403321380432838
-2.3110042979578305
-2.1632969659978185
-2.403321380432838
-2.4156303247628297
-2.391012436102846
-2.391012436102846
-2.378703491772827
-2.391012436102846
-2.372549019607845
-2.3971669082678284
-2.434093741257831
-2.4587116299178424
-2.4156303247628297
-2.4156303247628297
-2.446402685587851
-2.378703491772827
-2.495638462907845
-2.403321380432838
-2.3540856031128428
-2.378703491772827
-2.378703491772827
-2.3663945474428347
-2.3848579639378364
-2.4402482134228407
-2.409475852597848
-2.372549019607845
-2.3971669082678284
-2.3971669082678284
-2.403321380432838
-2.2063782711528033
-2.446402685587851
-2.495638462907845
-2.4279392690928487
-2.409475852597848
-2.378703491772827
-2.4217847969278394
-2.4587116299178424
-2.4156303247628297
-2.409475852597848
-2.4587116299178424
-2.434093741257831
-2.015589634037779
-2.3110042979578305
-2.6987360443528896
-2.5694921288878514
-2.446402685587851
-2.3971669082678284
-2.4525571577528327
-2.4279392690928487
-2.372549019607845
-2.3171587701228398
-2.3663945474428347
-2.4279392690928487
-2.4402482134228407
-2.378703491772827
-2.3848579639378364
-2.446402685587851
-2.403321380432838
-2.526410823732866
-2.520256351567857
-2.4648661020828517
-2.4648661020828517
-2.391012436102846
-2.3417766587828237
-2.483329518577854
-2.434093741257831
-2.4217847969278394
-2.4402482134228407
-2.434093741257831
-2.434093741257831
-2.4217847969278394
-2.378703491772827
-2.3417766587828237
-2.471020574247862
-2.4217847969278394
-2.403321380432838
-2.360240075277825
-2.372549019607845
-2.3848579639378364
-2.329467714452832
-2.391012436102846
-2.335622186617841
-2.3848579639378364
-2.360240075277825
-2.298695353627811
-2.2802319371328093
-2.261768520637808
-2.409475852597848
-2.372549019607845
-2.3971669082678284
-2.372549019607845
-2.378703491772827
-2.372549019607845
-2.403321380432838
-2.3971669082678284
-2.3540856031128428
-2.2802319371328093
-2.3110042979578305
-2.3417766587828237
-1.972508328882766
-0.7169960072226089
-2.175605910327811
-2.6371913227028756
-3.7511507845680576
-2.797207598992907
-2.360240075277825
-2.3540856031128428
-2.347931130947833
-2.3171587701228398
-2.329467714452832
-2.378703491772827
-2.4525571577528327
-2.378703491772827
-2.3110042979578305
-2.200223798987821
-2.4525571577528327
-2.409475852597848
-2.3417766587828237
-2.323313242287821
-2.3663945474428347
-2.298695353627811
-2.329467714452832
-2.3110042979578305
-2.298695353627811
-2.329467714452832
-2.2802319371328093
-2.224841687647805
-2.286386409297819
-2.1694514381628007
-2.0217441062027888
-2.200223798987821
-2.286386409297819
-2.2433051041428067
-2.298695353627811
-2.2802319371328093
-2.335622186617841
-2.3540856031128428
-2.329467714452832
-2.329467714452832
-2.3171587701228398
-2.347931130947833
-2.3171587701228398
-2.286386409297819
-2.6371913227028756
-2.483329518577854
-2.360240075277825
-2.3171587701228398
-2.3417766587828237
-2.3971669082678284
-2.3417766587828237
-2.286386409297819
-2.3663945474428347
-2.329467714452832
-2.323313242287821
-2.329467714452832
-2.298695353627811
-2.175605910327811
-2.2371506319778245
-2.298695353627811
-2.212532743317813
-2.2371506319778245
-2.249459576307816
-2.2309961598128147
-1.8001831082627426
-2.1632969659978185
-2.5941100175478624
-2.261768520637808
-2.1694514381628007
-2.224841687647805
-2.1632969659978185
-2.150988021667799
-2.120215660842805
-2.323313242287821
-2.249459576307816
-2.2309961598128147
-2.261768520637808
-2.2740774649678275
-2.2740774649678275
-2.3110042979578305
-2.2802319371328093
-2.286386409297819
-2.378703491772827
-2.3848579639378364
-2.2925408814628288
-2.347931130947833
-2.335622186617841
-2.6064189618778553
-2.495638462907845
-2.3971669082678284
-2.4587116299178424
-2.501792935072855
-2.4648661020828517
-2.3848579639378364
-2.434093741257831
-2.4894839907428636
-2.4279392690928487
-2.403321380432838
-2.0278985783677985
-1.178581419597674
-1.855573357747775
-2.372549019607845
-2.391012436102846
-2.3540856031128428
-2.347931130947833
-2.360240075277825
-3.0864677907479487
-3.7080694794130453
-2.667963683527869
-2.3540856031128428
-2.329467714452832
-2.3171587701228398
-2.304849825792821
-2.298695353627811
-2.0463619948628
-1.7509473309427481
-2.1817603824928202
-2.249459576307816
-2.2186872154828228
-2.329467714452832
-2.304849825792821
-2.3171587701228398
-2.064825411357801
-1.104727753617668
-1.8801912464077586
-2.212532743317813
-2.3171587701228398
-2.3663945474428347
-2.434093741257831
-2.96953281961293
-3.8188499783830547
-3.338801149512988
-2.55102871239285
-2.4402482134228407
-2.409475852597848
-2.403321380432838
-2.409475852597848
-2.3848579639378364
-2.3417766587828237
-2.4156303247628297
-2.4217847969278394
-2.4156303247628297
-2.4894839907428636
-2.1632969659978185
-2.335622186617841
-2.4156303247628297
-2.3663945474428347
-2.3171587701228398
-2.323313242287821
-2.3540856031128428
-2.372549019607845
-2.378703491772827
-2.403321380432838
-2.3417766587828237
-2.409475852597848
-2.3540856031128428
-2.2679229928028177
-1.8124920525927626
-1.9294270237277809
-2.249459576307816
-2.329467714452832
-2.403321380432838
-2.3417766587828237
-2.255614048472826
-2.335622186617841
-2.3848579639378364
-2.4587116299178424
-2.3848579639378364
-2.329467714452832
-2.391012436102846
-2.3848579639378364
-2.766435238167886
-2.9141425701278982
-2.507947407237865
-2.4279392690928487
-2.403321380432838
-2.403321380432838
-2.3848579639378364
-2.446402685587851
-2.4279392690928487
-2.4156303247628297
-2.409475852597848
-2.3971669082678284
-2.403321380432838
-2.403321380432838
-2.323313242287821
-2.070979883522784
-2.3417766587828237
-2.760280766002876
-2.483329518577854
-2.434093741257831
-2.391012436102846
-2.403321380432838
-2.4587116299178424
-2.477175046412844
-2.477175046412844
-2.477175046412844
-2.4217847969278394
-2.4156303247628297
-2.2802319371328093
-2.009435161872797
-2.2679229928028177
-2.378703491772827
-2.409475852597848
-2.3540856031128428
-2.360240075277825
-2.391012436102846
-2.3971669082678284
-2.3540856031128428
-2.3663945474428347
-2.4156303247628297
-2.446402685587851
-2.3971669082678284
-2.378703491772827
-2.7848986546628876
-2.5325652958978484
-2.403321380432838
-2.4156303247628297
-2.3663945474428347
-2.378703491772827
-2.3540856031128428
-2.3663945474428347
-2.335622186617841
-2.3540856031128428
-2.2925408814628288
-2.3171587701228398
-2.335622186617841
-2.298695353627811
-2.224841687647805
-2.372549019607845
-2.3540856031128428
-2.3663945474428347
-2.3848579639378364
-2.3848579639378364
-2.391012436102846
-2.391012436102846
-2.4279392690928487
-2.3848579639378364
-2.3417766587828237
-2.3540856031128428
-2.483329518577854
-2.403321380432838
-2.2186872154828228
-2.4525571577528327
-2.0463619948628
-0.7416138958825924
-2.2309961598128147
-2.347931130947833
-2.901833625797906
-3.8311589227130733
-2.7848986546628876
-2.4156303247628297
-2.391012436102846
-2.3848579639378364
-2.3663945474428347
-2.3417766587828237
-2.4894839907428636
-2.735662877342893
-2.477175046412844
-2.3417766587828237
-2.3417766587828237
-2.4279392690928487
-2.3848579639378364
-2.378703491772827
-2.286386409297819
-2.403321380432838
-2.3971669082678284
-2.378703491772827
-2.347931130947833
-2.2740774649678275
-2.064825411357801
-2.1448335495027893
-2.2740774649678275
-2.286386409297819
-2.3540856031128428
-2.3540856031128428
-2.3540856031128428
-2.360240075277825
-2.3417766587828237
-2.360240075277825
-2.335622186617841
-2.360240075277825
-2.378703491772827
-2.372549019607845
-2.323313242287821
-2.347931130947833
-2.4217847969278394
-2.391012436102846
-2.298695353627811
-2.304849825792821
-2.3417766587828237
-2.3540856031128428
-2.360240075277825
-2.3171587701228398
-2.335622186617841
-2.3540856031128428
-2.286386409297819
-2.286386409297819
-2.2309961598128147
-2.200223798987821
-2.409475852597848
-2.3417766587828237
-2.2925408814628288
-2.329467714452832
-2.372549019607845
-2.3110042979578305
-2.298695353627811
-2.2679229928028177
-1.9355814958927628
-2.360240075277825
-2.704890516517872
-2.434093741257831
-2.3540856031128428
-2.3110042979578305
-2.471020574247862
-2.4648661020828517
-2.4156303247628297
-2.3971669082678284
-2.4217847969278394
-2.4525571577528327
-2.4156303247628297
-2.378703491772827
-2.360240075277825
-2.3417766587828237
-2.360240075277825
-2.3417766587828237
-2.3663945474428347
-2.434093741257831
-2.624882378372884
-2.495638462907845
-2.3848579639378364
-2.372549019607845
-2.4402482134228407
-2.4279392690928487
-2.378703491772827
-2.391012436102846
-2.4156303247628297
-2.3971669082678284
-2.446402685587851
-2.3971669082678284
-2.3540856031128428
-2.249459576307816
-2.4156303247628297
-2.4156303247628297
-2.471020574247862
-2.4156303247628297
-2.378703491772827
-2.378703491772827
-2.360240075277825
-2.360240075277825
-2.409475852597848
-2.403321380432838
-2.446402685587851
-2.3971669082678284
-2.378703491772827
-2.2802319371328093
-2.4156303247628297
-2.4402482134228407
-2.3663945474428347
-2.391012436102846
-2.3971669082678284
-2.391012436102846
-2.3540856031128428
-2.3417766587828237
-2.360240075277825
-2.391012436102846
-2.194069326822812
-1.3385976958876775
-1.683248137127724
-2.150988021667799
-2.3540856031128428
-2.372549019607845
-2.360240075277825
-2.329467714452832
-2.5141018794028467
-3.75730525673304
-3.2095572340479768
-2.526410823732866
-2.378703491772827
-2.3663945474428347
-2.3848579639378364
-2.360240075277825
-2.360240075277825
-2.261768520637808
-2.255614048472826
-2.4402482134228407
-2.391012436102846
-2.378703491772827
-2.372549019607845
-2.360240075277825
-2.360240075277825
-2.3417766587828237
-2.3417766587828237
-2.347931130947833
-2.347931130947833
-2.323313242287821
-2.3848579639378364
-2.298695353627811
-2.298695353627811
-2.600264489712873
-2.261768520637808
-2.3417766587828237
-2.360240075277825
-2.3971669082678284
-2.378703491772827
-2.4156303247628297
-2.3971669082678284
-2.3848579639378364
-2.403321380432838
-2.3971669082678284
-2.3971669082678284
-2.329467714452832
-2.335622186617841
-2.507947407237865
-2.003280689707787
-1.0924188092876486
-1.5293863330027024
-2.600264489712873
-2.501792935072855
-2.391012436102846
-2.4217847969278394
-2.378703491772827
-3.172630401057975
-3.6219068691030203
-2.6371913227028756
-2.4402482134228407
-2.304849825792821
-2.434093741257831
-2.4525571577528327
-2.403321380432838
-2.3110042979578305
-2.446402685587851
-2.4217847969278394
-2.4648661020828517
-2.3663945474428347
-2.329467714452832
-2.329467714452832
-2.378703491772827
-2.372549019607845
-2.323313242287821
-2.187914854657802
-2.138679077337807
-2.335622186617841
-2.335622186617841
-2.329467714452832
-2.3848579639378364
-2.3848579639378364
-2.3848579639378364
-2.3417766587828237
-2.335622186617841
-2.3540856031128428
-2.378703491772827
-2.372549019607845
-2.372549019607845
-2.409475852597848
-2.624882378372884
-2.507947407237865
-2.378703491772827
-2.3848579639378364
-2.409475852597848
-2.3848579639378364
-2.378703491772827
-2.4402482134228407
-2.378703491772827
-2.3663945474428347
-2.391012436102846
-2.3663945474428347
-2.323313242287821
-2.2925408814628288
-2.2802319371328093
-2.4525571577528327
-2.3417766587828237
-2.329467714452832
-2.3663945474428347
-2.329467714452832
-2.3417766587828237
-2.347931130947833
-2.2925408814628288
-1.91096360723278
-2.434093741257831
-2.649500267032867
-2.372549019607845
-2.3417766587828237
-2.360240075277825
-2.483329518577854
-2.3971669082678284
-2.3848579639378364
-2.360240075277825
-1.9601993845527748
-0.7108415350575992
-2.2063782711528033
-2.298695353627811
-2.347931130947833
-3.0003051804379233
-3.7080694794130453
-2.729508405177883
-2.3663945474428347
-2.1571424938328088
-2.4648661020828517
-2.434093741257831
-2.3971669082678284
-2.298695353627811
-2.3971669082678284
-2.372549019607845
-2.3848579639378364
-2.3663945474428347
-2.335622186617841
-2.3663945474428347
-2.372549019607845
-2.304849825792821
-2.372549019607845
-2.2740774649678275
-2.4217847969278394
-2.4156303247628297
-2.391012436102846
-2.3848579639378364
-2.3848579639378364
-2.335622186617841
-2.329467714452832
-2.3971669082678284
-2.3540856031128428
-2.3663945474428347
-2.403321380432838
-2.378703491772827
-2.3417766587828237
-2.255614048472826
-2.4587116299178424
-2.4217847969278394
-2.3171587701228398
-2.323313242287821
-2.2740774649678275
-2.329467714452832
-2.3417766587828237
-2.3171587701228398
-2.286386409297819
-2.3110042979578305
-2.3110042979578305
-2.329467714452832
-2.3171587701228398
-2.1694514381628007
-2.286386409297819
-2.4525571577528327
-2.335622186617841
-2.298695353627811
-2.2925408814628288
-2.3540856031128428
-2.323313242287821
-2.2679229928028177
-2.2802319371328093
-2.3663945474428347
-2.372549019607845
-2.3540856031128428
-1.9355814958927628
-2.187914854657802
-1.990971745377768
-2.089443300017785
-2.391012436102846
-2.3848579639378364
-2.335622186617841
-2.403321380432838
-2.347931130947833
-2.378703491772827
-2.3663945474428347
-2.323313242287821
-2.4402482134228407
-2.446402685587851
-2.378703491772827
-2.323313242287821
-2.778744182497905
-2.877215737137895
-2.4525571577528327
-2.3540856031128428
-2.3417766587828237
-2.3848579639378364
-2.378703491772827
-2.360240075277825
-2.409475852597848
-2.323313242287821
-2.3171587701228398
-2.372549019607845
-2.378703491772827
-2.391012436102846
-2.378703491772827
-2.6371913227028756
-2.471020574247862
-2.4217847969278394
-2.4402482134228407
-2.403321380432838
-2.3540856031128428
-2.347931130947833
-2.3971669082678284
-2.409475852597848
-2.335622186617841
-2.3110042979578305
-2.347931130947833
-2.329467714452832
-2.064825411357801
-2.083288827852803
-2.2802319371328093
-2.329467714452832
-2.335622186617841
-2.2925408814628288
-2.323313242287821
-2.347931130947833
-2.3171587701228398
-2.2740774649678275
-2.2925408814628288
-2.3417766587828237
-2.3417766587828237
-2.298695353627811
-1.9786628010477763
-1.2708985020726815
-3.2095572340479768
-2.981841763942921
-2.434093741257831
-2.378703491772827
-2.323313242287821
-2.3171587701228398
-2.3848579639378364
-2.3971669082678284
-2.3663945474428347
-2.378703491772827
-2.335622186617841
-2.347931130947833
-2.347931130947833
-2.4648661020828517
-2.4402482134228407
-2.360240075277825
-2.403321380432838
-2.372549019607845
-2.372549019607845
-2.3971669082678284
-2.3848579639378364
-2.391012436102846
-2.3971669082678284
-2.4279392690928487
-2.3663945474428347
-2.2925408814628288
-2.2802319371328093
-2.255614048472826
-2.3971669082678284
-2.378703491772827
-2.360240075277825
-2.3417766587828237
-2.372549019607845
-2.3971669082678284
-2.360240075277825
-2.304849825792821
-2.335622186617841
-2.347931130947833
-2.372549019607845
-2.323313242287821
-2.378703491772827
-2.3540856031128428
-2.6371913227028756
-2.391012436102846
-2.434093741257831
-2.3110042979578305
-2.3171587701228398
-2.2925408814628288
-2.3171587701228398
-2.304849825792821
-2.360240075277825
-2.323313242287821
-2.2925408814628288
-2.3110042979578305
-2.3171587701228398
-1.7263294422827367
-1.3755245288776807
-2.120215660842805
-2.3417766587828237
-2.329467714452832
-2.360240075277825
-2.304849825792821
-1.9171180793977614
-2.3540856031128428
-2.7171994608478913
-2.4156303247628297
-2.335622186617841
-2.372549019607845
-2.3848579639378364
-2.68642710002287
-3.178784873222984
-2.5325652958978484
-2.378703491772827
-2.3971669082678284
-2.3663945474428347
-2.391012436102846
-2.3663945474428347
-2.323313242287821
-2.391012436102846
-2.403321380432838
-2.3848579639378364
-2.347931130947833
-2.360240075277825
-2.286386409297819
-2.434093741257831
-2.471020574247862
-2.3848579639378364
-2.4156303247628297
-2.391012436102846
-2.372549019607845
-2.323313242287821
-2.323313242287821
-2.347931130947833
-2.335622186617841
-2.3848579639378364
-2.3417766587828237
-2.323313242287821
-2.3110042979578305
-2.347931130947833
-2.4402482134228407
-2.378703491772827
-2.3540856031128428
-2.409475852597848
-2.3417766587828237
-2.304849825792821
-2.298695353627811
-2.249459576307816
-2.3171587701228398
-2.378703491772827
-2.360240075277825
-2.2925408814628288
-2.2679229928028177
-2.249459576307816
-2.4279392690928487
-2.3540856031128428
-2.335622186617841
-2.372549019607845
-2.3971669082678284
-1.9232725515627715
-1.2401261412476885
-1.6463213041377216
-1.954044912387765
-2.901833625797906
-2.409475852597848
-2.3417766587828237
-2.261768520637808
-2.858752320642893
-3.344955621677997
-2.587955545382853
-2.3417766587828237
-2.2679229928028177
-2.286386409297819
-2.298695353627811
-2.2925408814628288
-2.2740774649678275
-2.261768520637808
-2.2740774649678275
-2.298695353627811
-2.323313242287821
-2.2740774649678275
-1.966353856717784
-1.7017115536227536
-2.1325246051727973
-2.3848579639378364
-2.329467714452832
-2.329467714452832
-2.360240075277825
-2.3663945474428347
-2.3663945474428347
-2.3540856031128428
-2.2802319371328093
-2.434093741257831
-2.3971669082678284
-2.3540856031128428
-2.754126293837894
-3.492662953638009
-2.7418173495078744
-2.434093741257831
-2.360240075277825
-2.4279392690928487
-2.3848579639378364
-2.403321380432838
-2.391012436102846
-2.3848579639378364
-2.372549019607845
-2.329467714452832
-2.3540856031128428
-2.3417766587828237
-2.2186872154828228
-2.2063782711528033
-2.4156303247628297
-2.360240075277825
-2.347931130947833
-2.3540856031128428
-2.3663945474428347
-2.323313242287821
-2.329467714452832
-2.329467714452832
-2.3110042979578305
-2.3540856031128428
-2.3417766587828237
-2.3110042979578305
-2.2679229928028177
-1.8863457185727683
-1.7940286360977609
-2.255614048472826
-2.68642710002287
-2.4217847969278394
-2.3848579639378364
-2.2925408814628288
-2.329467714452832
-2.347931130947833
-2.329467714452832
-2.3848579639378364
-2.378703491772827
-2.3663945474428347
-2.360240075277825
-2.5694921288878514
-2.6064189618778553
-2.4279392690928487
-2.434093741257831
-2.409475852597848
-2.372549019607845
-2.3540856031128428
-2.347931130947833
-2.3110042979578305
-2.3971669082678284
-2.391012436102846
-2.4156303247628297
-2.3848579639378364
-2.3171587701228398
-2.2309961598128147
-2.378703491772827
-2.391012436102846
-2.391012436102846
-2.3663945474428347
-2.3663945474428347
-2.378703491772827
-2.3971669082678284
-2.3417766587828237
-2.3540856031128428
-2.3417766587828237
-2.3417766587828237
-2.335622186617841
-2.3417766587828237
-2.335622186617841
-2.4894839907428636
-2.4156303247628297
-2.347931130947833
-2.335622186617841
-2.335622186617841
-2.360240075277825
-2.3540856031128428
-2.3417766587828237
-2.335622186617841
-2.3171587701228398
-2.335622186617841
-2.3848579639378364
-2.360240075277825
-2.335622186617841
-2.4402482134228407
-2.3971669082678284
-1.966353856717784
-0.6985325907276074
-2.4525571577528327
-3.75730525673304
-3.0003051804379233
-2.477175046412844
-2.378703491772827
-2.4156303247628297
-2.3848579639378364
-2.3663945474428347
-2.3417766587828237
-2.261768520637808
-2.286386409297819
-2.391012436102846
-2.3848579639378364
-2.409475852597848
-2.3663945474428347
-2.3663945474428347
-2.403321380432838
-2.3848579639378364
-2.3663945474428347
-2.403321380432838
-2.335622186617841
-2.329467714452832
-2.2802319371328093
-2.255614048472826
-2.2925408814628288
-2.4648661020828517
-2.391012436102846
-2.3540856031128428
-2.3663945474428347
-2.3848579639378364
-2.347931130947833
-2.347931130947833
-2.3110042979578305
-2.2925408814628288
-2.347931130947833
-2.304849825792821
-2.2679229928028177
-2.2371506319778245
-2.194069326822812
-2.4217847969278394
-2.347931130947833
-2.335622186617841
-2.3171587701228398
-2.3110042979578305
-2.304849825792821
-2.304849825792821
-2.2925408814628288
-2.335622186617841
-2.3171587701228398
-2.304849825792821
-2.2802319371328093
-2.286386409297819
-2.249459576307816
-2.446402685587851
-2.3663945474428347
-2.3417766587828237
-2.4156303247628297
-2.2679229928028177
-2.2371506319778245
-2.286386409297819
-2.3417766587828237
-2.2802319371328093
-1.8371099412527454
-2.2309961598128147
-2.704890516517872
-2.360240075277825
-2.175605910327811
-2.3417766587828237
-2.2679229928028177
-2.2371506319778245
-2.3110042979578305
-2.347931130947833
-2.3417766587828237
-2.323313242287821
-2.304849825792821
-2.2679229928028177
-2.286386409297819
-2.2740774649678275
-2.2802319371328093
-2.2679229928028177
-2.1817603824928202
-2.064825411357801
-2.2740774649678275
-2.286386409297819
-2.3110042979578305
-2.2925408814628288
-2.3110042979578305
-2.3110042979578305
-2.372549019607845
-2.329467714452832
-2.335622186617841
-2.261768520637808
-2.286386409297819
-2.3417766587828237
-2.329467714452832
-2.064825411357801
-2.501792935072855
-2.680272627857888
-2.3971669082678284
-2.323313242287821
-2.304849825792821
-2.329467714452832
-2.347931130947833
-2.298695353627811
-2.3171587701228398
-2.3417766587828237
-2.3110042979578305
-2.329467714452832
-2.2371506319778245
-2.200223798987821
-2.4648661020828517
-2.3663945474428347
-2.304849825792821
-2.255614048472826
-2.304849825792821
-2.286386409297819
-2.323313242287821
-2.304849825792821
-2.323313242287821
-2.3110042979578305
-2.0463619948628
-1.1355001144426613
-1.7694107474377496
-2.083288827852803
-2.4525571577528327
-2.372549019607845
-2.372549019607845
-3.369573510338009
-3.4803540093080176
-2.563337656722869
-2.403321380432838
-2.378703491772827
-2.347931130947833
-2.360240075277825
-2.3110042979578305
-2.323313242287821
-2.360240075277825
-2.1632969659978185
-2.360240075277825
-2.360240075277825
-2.347931130947833
-2.3171587701228398
-2.261768520637808
-2.286386409297819
-2.298695353627811
-2.249459576307816
-2.261768520637808
-2.2802319371328093
-2.304849825792821
-2.2925408814628288
-2.286386409297819
-2.2063782711528033
-2.3417766587828237
-2.3663945474428347
-2.304849825792821
-2.335622186617841
-2.323313242287821
-2.2433051041428067
-2.2679229928028177
-2.323313242287821
-2.2925408814628288
-2.3110042979578305
-2.2679229928028177
-2.286386409297819
-2.255614048472826
-2.255614048472826
-2.3663945474428347
-2.335622186617841
-2.2433051041428067
-2.187914854657802
-2.200223798987821
-2.2186872154828228
-2.2063782711528033
-2.2063782711528033
-1.7078660257877356
-2.224841687647805
-2.55718318455786
-2.2186872154828228
-2.1571424938328088
-2.064825411357801
-1.9848172732127856
-2.2433051041428067
-2.175605910327811
-2.077134355687793
-1.7078660257877356
-2.120215660842805
-2.5325652958978484
-2.194069326822812
-2.187914854657802
-2.150988021667799
-1.6647847206327224
-1.0370285598026439
-1.7324839144477464
-1.954044912387765
-2.0340530505327803
-2.2679229928028177
-2.2371506319778245
-2.261768520637808
-3.0987767350779407
-3.424963759823013
-2.4648661020828517
-2.2679229928028177
-2.224841687647805
-2.224841687647805
-2.2063782711528033
-2.187914854657802
-2.175605910327811
-2.194069326822812
-2.2063782711528033
-2.304849825792821
-2.2186872154828228
-2.187914854657802
-2.175605910327811
-2.1017522443478045
-2.1017522443478045
-2.114061188677796
-2.1079067165127863
-2.120215660842805
-2.150988021667799
-2.175605910327811
-2.150988021667799
-2.1448335495027893
-2.1079067165127863
-2.255614048472826
-2.249459576307816
-2.150988021667799
-2.114061188677796
-2.150988021667799
-2.1694514381628007
-2.1263701330077875
-2.1632969659978185
-2.1694514381628007
-2.224841687647805
-2.224841687647805
-2.2309961598128147
-2.2063782711528033
-1.9848172732127856
-1.6463213041377216
-2.064825411357801
-2.298695353627811
-2.304849825792821
-2.249459576307816
-1.9355814958927628
-1.1170366979476598
-1.830955469087764
-2.471020574247862
-3.7080694794130453
-2.8033620711578893
-2.4156303247628297
-2.360240075277825
-2.3971669082678284
-2.8402889041478923
-2.600264489712873
-1.7509473309427481
-2.372549019607845
-2.821825487652891
-2.4525571577528327
-2.347931130947833
-2.2925408814628288
-2.378703491772827
-2.403321380432838
-2.3171587701228398
-2.3171587701228398
-2.3540856031128428
-2.329467714452832
-2.372549019607845
-2.507947407237865
-2.409475852597848
-2.347931130947833
-2.335622186617841
-2.372549019607845
-2.360240075277825
-2.347931130947833
-2.372549019607845
-2.3848579639378364
-2.335622186617841
-2.360240075277825
-2.3540856031128428
-2.4525571577528327
-2.360240075277825
-2.391012436102846
-2.347931130947833
-2.347931130947833
-2.3417766587828237
-2.378703491772827
-2.3971669082678284
-2.3663945474428347
-2.372549019607845
-2.3848579639378364
-2.372549019607845
-2.403321380432838
-2.434093741257831
-2.4156303247628297
-2.3540856031128428
-2.483329518577854
-2.4279392690928487
-2.434093741257831
-2.471020574247862
-2.471020574247862
-2.4402482134228407
-2.4402482134228407
-2.3971669082678284
-2.434093741257831
-2.495638462907845
-2.507947407237865
-2.4279392690928487
-2.0463619948628
-2.3848579639378364
-2.8033620711578893
-2.55718318455786
-2.471020574247862
-2.477175046412844
-2.4402482134228407
-2.5325652958978484
-2.520256351567857
-2.335622186617841
-2.409475852597848
-2.3848579639378364
-2.4217847969278394
-2.4217847969278394
-2.3540856031128428
-2.077134355687793
-1.4555326670226965
-2.083288827852803
-2.3110042979578305
-2.391012436102846
-2.372549019607845
-2.3971669082678284
-2.4156303247628297
-2.403321380432838
-2.347931130947833
-2.3848579639378364
-1.9417359680577726
-2.4525571577528327
-2.766435238167886
-2.5325652958978484
-3.178784873222984
-2.7910531268278973
-2.477175046412844
-2.3848579639378364
-2.3540856031128428
-2.4402482134228407
-2.347931130947833
-2.323313242287821
-2.3848579639378364
-2.3848579639378364
-2.3540856031128428
-2.3540856031128428
-2.347931130947833
-2.335622186617841
-2.3848579639378364
-2.624882378372884
-2.4525571577528327
-2.3971669082678284
-2.360240075277825
-2.3663945474428347
-2.323313242287821
-2.4402482134228407
-2.378703491772827
-2.347931130947833
-2.391012436102846
-2.347931130947833
-2.329467714452832
-2.286386409297819
-1.473996083517698
-0.427735815467567
-2.1263701330077875
-2.224841687647805
-2.2309961598128147
-2.2740774649678275
-2.298695353627811
-2.360240075277825
-3.4865084814730274
-3.381882454668
-2.495638462907845
-2.372549019607845
-2.360240075277825
-2.3848579639378364
-2.754126293837894
-3.006459652602933
-2.538719768062857
-2.4156303247628297
-2.391012436102846
-2.335622186617841
-2.347931130947833
-2.3663945474428347
-2.323313242287821
-2.304849825792821
-2.255614048472826
-2.3540856031128428
-2.3971669082678284
-2.329467714452832
-2.175605910327811
-2.2925408814628288
-2.391012436102846
-2.335622186617841
-2.335622186617841
-2.3848579639378364
-2.378703491772827
-2.378703491772827
-2.3540856031128428
-2.347931130947833
-2.360240075277825
-2.360240075277825
-2.378703491772827
-2.329467714452832
-2.2679229928028177
-2.372549019607845
-2.4217847969278394
-2.3663945474428347
-2.391012436102846
-1.89865466290276
-2.360240075277825
-2.735662877342893
-2.4156303247628297
