-0.26156506701252585
-0.23079270618753256
-0.17540245670252808
-0.18771140103251985
-0.26771953917753555
0.05846748556750937
-0.3108008443325483
-0.6923781185625978
-0.4708171206225797
-0.42158134330255725
-0.35388214948756086
-0.2800284835075273
-0.18155692886753785
0.360036621652543
0.02769512474251612
-0.23079270618753256
0.10770326288750408
0.15693904020752658
-0.003077236082504875
-0.02769512474251612
-0.02769512474251612
-0.06462195773251911
-0.2184837618575408
-0.3292642608275498
-0.34772767732255133
-0.390808982477564
-0.3723455659825625
-0.31695531649755804
-0.26771953917753555
-0.18155692886753785
-0.23079270618753256
-0.26771953917753555
-0.2061748175275213
-0.15693904020752658
-0.31695531649755804
-0.42158134330255725
-0.45850817629256013
-0.42158134330255725
-0.4708171206225797
-0.433890287632549
-0.3846545103125543
-0.36619109381755277
-0.34772767732255133
-0.360036621652543
-0.33541873299255964
-0.29233742783754685
-0.40311792680755576
-0.45850817629256013
-0.4892805371175811
-0.4831260649525715
-0.396963454642546
-0.30464637216753854
-0.23079270618753256
-0.1261666793825056
-0.15078456804251686
-0.13232115154751534
-0.14463009587750708
-0.2061748175275213
-0.30464637216753854
-0.3723455659825625
-0.390808982477564
-0.26771953917753555
-0.3846545103125543
0.13232115154751534
1.6647847206327224
0.01538618041249662
-0.07693090206251085
-0.01538618041249662
0.01538618041249662
-0.6000610360875902
-1.363215584547689
-0.29233742783754685
0.003077236082504875
0.05231301340249961
0.02154065257750637
-0.02769512474251612
-0.1015487907225221
-0.0707764298975011
-0.1938658731975296
-0.396963454642546
-0.3846545103125543
-0.360036621652543
-0.3108008443325483
-0.2184837618575408
-0.08308537422752059
0.15693904020752658
0.1384756237125251
0.26156506701252585
0.36619109381755277
0.3846545103125543
0.34772767732255133
0.29233742783754685
0.1384756237125251
-0.08308537422752059
-0.1692479845375183
-0.14463009587750708
-0.14463009587750708
-0.11385773505251384
-0.09539431855751236
-0.02769512474251612
0.003077236082504875
0.11385773505251384
-0.06462195773251911
0.003077236082504875
-0.003077236082504875
-0.003077236082504875
0.05846748556750937
0.2184837618575408
0.7477683680476023
0.5262073701075842
0.2984919000025288
0.3415732051575415
0.35388214948756086
0.31695531649755804
0.21232928969253104
0.14463009587750708
0.01538618041249662
-0.02154065257750637
-0.2184837618575408
-0.2246382340225228
-0.1938658731975296
-0.1384756237125251
-0.3415732051575415
-0.9139391165026156
-0.5569797309325777
-0.2800284835075273
-0.3415732051575415
0.1384756237125251
-0.26156506701252585
-0.5200528979425745
-0.1938658731975296
-0.1015487907225221
-0.05231301340249961
-0.01538618041249662
-0.07693090206251085
-0.08308537422752059
-0.05231301340249961
0.009231708247514623
-0.04615854123751762
-0.09539431855751236
-0.02769512474251612
0.05231301340249961
-0.05846748556750937
-0.01538618041249662
-0.003077236082504875
-0.009231708247514623
-0.04615854123751762
-0.08923984639250257
-0.1015487907225221
-0.04615854123751762
-0.12001220721752358
-0.1015487907225221
-0.003077236082504875
-0.06462195773251911
-0.1692479845375183
-0.07693090206251085
-0.009231708247514623
0.02154065257750637
-0.1015487907225221
-0.08923984639250257
-0.06462195773251911
-0.07693090206251085
-0.12001220721752358
-0.14463009587750708
-0.06462195773251911
1.0554919762976458
0.9877927824826491
0.42158134330255725
0.5446707866025856
0.26156506701252585
0.12001220721752358
0.1261666793825056
0.07693090206251085
-1.0678009206276373
-0.9508659494926462
-0.01538618041249662
0.1692479845375183
0.21232928969253104
0.23079270618753256
0.21232928969253104
0.17540245670252808
0.1938658731975296
-0.0707764298975011
-0.5508252587675677
-0.2246382340225228
0.2738740113425453
1.3693700567126987
0.4708171206225797
0.02154065257750637
-1.326288751557686
-1.1231911701126696
-0.28618295567253704
-0.15693904020752658
-0.12001220721752358
-0.07693090206251085
-0.05231301340249961
-0.003077236082504875
0.08308537422752059
-0.05846748556750937
-0.05846748556750937
-0.003077236082504875
0.04000406907250786
0.04615854123751762
-0.003077236082504875
0.05846748556750937
0.07693090206251085
-0.003077236082504875
0.003077236082504875
-0.04000406907250786
-0.07693090206251085
-0.1015487907225221
-0.0707764298975011
-0.07693090206251085
-0.1692479845375183
-0.2246382340225228
-0.2184837618575408
-0.26771953917753555
-0.2431016505175243
-0.2800284835075273
-0.2800284835075273
-0.2554105948475438
-0.2369471783525424
-0.30464637216753854
-0.2061748175275213
-0.15078456804251686
-0.1015487907225221
-0.05231301340249961
-0.033849596907498114
-0.14463009587750708
-0.01538618041249662
0.01538618041249662
0.0707764298975011
0.09539431855751236
-0.033849596907498114
0.08923984639250257
0.02154065257750637
-0.02154065257750637
-0.01538618041249662
-0.1015487907225221
-0.06462195773251911
-0.1261666793825056
-0.1261666793825056
-0.11385773505251384
-0.2984919000025288
-0.24925612268253405
-0.17540245670252808
-0.1384756237125251
-0.10770326288750408
-0.02769512474251612
0.433890287632549
-0.01538618041249662
-0.29233742783754685
0.003077236082504875
0.08308537422752059
0.009231708247514623
0.05231301340249961
0.13232115154751534
0.2554105948475438
0.3292642608275498
0.1015487907225221
0.1261666793825056
0.1015487907225221
0.009231708247514623
0.02154065257750637
0.02769512474251612
0.02769512474251612
0.003077236082504875
-0.08308537422752059
-0.1938658731975296
-0.2800284835075273
-0.37850003814754446
-0.36619109381755277
-0.30464637216753854
-0.32310978866254003
-0.49543500928256323
-0.5138984257775646
-0.47697159278756174
-0.4523537041275505
-0.42158134330255725
-0.360036621652543
-0.2984919000025288
-0.2369471783525424
-0.15078456804251686
-0.05231301340249961
0.05231301340249961
0.12001220721752358
0.26771953917753555
0.5200528979425745
0.7970041453676248
0.6677602299025862
0.7723862567076134
0.9077846443376336
1.0370285598026439
1.2401261412476885
1.4555326670226965
1.590931054652717
1.689402609292734
1.818646524757745
1.966353856717784
1.9971262175427773
1.8432644134177558
1.824800996922753
1.677093664962742
1.6524757763027313
1.5601586938277234
1.3570611123826792
1.215508252587677
1.4863050278477177
2.2802319371328093
-0.6185244525825918
-0.02154065257750637
0.3292642608275498
0.2000203453625393
0.003077236082504875
-0.11385773505251384
-0.23079270618753256
-0.2984919000025288
-0.2246382340225228
-0.2369471783525424
0.14463009587750708
0.4523537041275505
0.6739147020675963
0.8647033391826209
1.0493375041326358
1.7140204979527456
1.1601180031026725
0.7231504793875909
0.9631748938226381
0.8277765061926179
0.575443147427579
0.2554105948475438
0.009231708247514623
-0.23079270618753256
-0.5446707866025856
-0.6985325907276074
-0.7908496732026148
-0.8585488670176111
-0.8277765061926179
-0.7723862567076134
-0.6800691742326057
-0.5446707866025856
-0.5446707866025856
-0.5323618422725662
-0.4831260649525715
-0.44619923196256844
-0.49543500928256323
-0.5569797309325777
-0.6616057577376044
-0.7970041453676248
-0.8831667556776225
-0.9508659494926462
-1.0370285598026439
-1.1231911701126696
-1.1970448360926755
-1.3201342793926762
-1.3878334732077002
-1.4247603061977032
-1.5170773886727107
-1.4986139721777092
-1.4247603061977032
-1.4186058340326935
-1.3816790010426905
-1.1170366979476598
-0.7785407288726233
-0.9200935886676254
-0.9385570051626267
-0.8277765061926179
-0.7293049515526008
-0.6246789247476012
-0.5692886752625692
-0.37850003814754446
0.10770326288750408
-0.2369471783525424
-0.5569797309325777
-0.2184837618575408
-0.06462195773251911
-0.003077236082504875
-0.009231708247514623
0.01538618041249662
0.06462195773251911
0.1692479845375183
0.08923984639250257
0.09539431855751236
0.1015487907225221
0.033849596907498114
0.02154065257750637
-0.05846748556750937
-0.09539431855751236
-0.09539431855751236
-0.14463009587750708
-0.1692479845375183
-0.1692479845375183
-0.396963454642546
-0.8585488670176111
-0.46466264845757
-0.2800284835075273
-0.17540245670252808
-0.26156506701252585
-0.18771140103251985
-0.10770326288750408
-0.06462195773251911
0.003077236082504875
0.009231708247514623
-0.01538618041249662
0.04615854123751762
-0.009231708247514623
-0.003077236082504875
0.09539431855751236
-0.16309351237253633
-0.26771953917753555
-0.23079270618753256
-0.24925612268253405
-0.2369471783525424
-0.3723455659825625
-0.396963454642546
-0.4154268711375475
-0.4154268711375475
-0.390808982477564
-0.427735815467567
-0.4400447597975588
-0.36619109381755277
-0.36619109381755277
-0.2000203453625393
-0.2800284835075273
-0.2369471783525424
-0.13232115154751534
-0.12001220721752358
-0.08308537422752059
-0.02769512474251612
0.33541873299255964
1.7755652196027594
0.15693904020752658
0.009231708247514623
-0.009231708247514623
0.02154065257750637
0.02769512474251612
-0.889321227842632
-1.3139798072276945
-0.396963454642546
-0.2061748175275213
-0.2000203453625393
-0.2061748175275213
-0.2000203453625393
-0.1384756237125251
0.07693090206251085
-0.02769512474251612
0.04000406907250786
0.05846748556750937
0.0707764298975011
0.05846748556750937
0.04000406907250786
0.01538618041249662
0.13232115154751534
-0.04615854123751762
-0.2431016505175243
-0.2800284835075273
-0.33541873299255964
-0.3723455659825625
-0.33541873299255964
-0.2738740113425453
-0.23079270618753256
-0.3415732051575415
-0.28618295567253704
-0.2369471783525424
-0.2554105948475438
-0.21232928969253104
-0.2800284835075273
-0.33541873299255964
-0.575443147427579
-0.6985325907276074
-0.6185244525825918
-0.6246789247476012
-0.6985325907276074
-0.7416138958825924
-0.7908496732026148
-0.8031586175326066
-0.7354594237176102
-0.6923781185625978
-0.5569797309325777
-0.427735815467567
-0.3723455659825625
-0.29233742783754685
-0.003077236082504875
-0.02154065257750637
1.4801505556827075
1.4432237226927047
0.08308537422752059
-0.18155692886753785
0.05846748556750937
-0.04000406907250786
0.08308537422752059
-0.06462195773251911
-1.3509066402176972
-1.326288751557686
-0.5508252587675677
-0.5138984257775646
-0.5200528979425745
-0.6431423412426027
-0.8339309783576276
-0.7600773123775938
-0.7169960072226089
-0.8093130896976164
-0.7231504793875909
-0.6677602299025862
-0.6369878690775933
-0.5508252587675677
-0.4400447597975588
-0.2984919000025288
-0.1938658731975296
-0.24925612268253405
-0.13232115154751534
-0.033849596907498114
0.15078456804251686
0.2000203453625393
0.09539431855751236
0.0707764298975011
0.05231301340249961
-0.05846748556750937
-0.08308537422752059
-0.1384756237125251
-0.24925612268253405
-0.37850003814754446
-0.45850817629256013
-0.5015894814475731
-0.5446707866025856
-0.6677602299025862
-0.6431423412426027
-0.5815976195925888
-0.575443147427579
-0.6369878690775933
-0.6000610360875902
-0.538516314437576
-0.433890287632549
-0.433890287632549
-0.33541873299255964
-0.26771953917753555
-0.24925612268253405
-0.2431016505175243
-0.26771953917753555
-0.26771953917753555
-0.28618295567253704
-0.3292642608275498
-0.34772767732255133
-0.427735815467567
-0.3415732051575415
-0.3292642608275498
-0.32310978866254003
-0.02154065257750637
0.1015487907225221
-0.5815976195925888
-0.3292642608275498
0.30464637216753854
1.824800996922753
0.2431016505175243
0.1015487907225221
-0.10770326288750408
-1.3385976958876775
-0.5631342030975872
0.033849596907498114
0.15078456804251686
0.2369471783525424
0.2738740113425453
0.2800284835075273
0.32310978866254003
0.2738740113425453
0.15078456804251686
0.13232115154751534
0.009231708247514623
-0.08308537422752059
-0.15078456804251686
-0.17540245670252808
-0.09539431855751236
-0.06462195773251911
-0.2184837618575408
-0.01538618041249662
0.1015487907225221
0.1938658731975296
0.2431016505175243
0.26156506701252585
0.2554105948475438
0.21232928969253104
0.09539431855751236
0.009231708247514623
-0.14463009587750708
-0.26771953917753555
-0.360036621652543
-0.44619923196256844
-0.44619923196256844
-0.6923781185625978
-0.8216220340276081
-0.8093130896976164
-0.8154675618626261
-0.7723862567076134
-0.6800691742326057
-0.5262073701075842
-0.30464637216753854
-0.05846748556750937
0.18155692886753785
0.49543500928256323
0.7723862567076134
1.0247196154726523
1.2093537804226673
1.3016708628976748
0.9816383103176396
1.0678009206276373
1.0862643371226666
0.9262480608326351
0.7108415350575992
0.47697159278756174
0.2738740113425453
0.05846748556750937
-0.17540245670252808
-0.34772767732255133
-0.538516314437576
-0.6492968134075847
-0.4400447597975588
-0.9693293659876481
-1.178581419597674
-0.9939472546476313
-0.9939472546476313
-0.7785407288726233
-0.6123699804175823
-0.46466264845757
-0.34772767732255133
-0.2431016505175243
-0.2184837618575408
-0.17540245670252808
-0.18771140103251985
-0.12001220721752358
-0.1015487907225221
-0.1692479845375183
-0.2431016505175243
-0.1015487907225221
-0.2369471783525424
-0.5262073701075842
-0.5815976195925888
-0.7231504793875909
-0.6800691742326057
-0.7293049515526008
-0.7970041453676248
-0.6800691742326057
-0.47697159278756174
-0.2184837618575408
0.08308537422752059
0.360036621652543
0.7108415350575992
0.9816383103176396
1.0801098649576568
1.000101726812641
1.3693700567126987
1.5724676381577152
1.7078660257877356
1.6647847206327224
1.7263294422827367
1.683248137127724
1.4986139721777092
1.437069250527695
1.3139798072276945
1.104727753617668
0.9754838381526297
0.6739147020675963
0.5077439536125827
0.3415732051575415
0.1015487907225221
-0.0707764298975011
-0.18155692886753785
-0.28618295567253704
-0.40927239897256545
-0.6739147020675963
-0.8154675618626261
-0.8339309783576276
-0.8339309783576276
-0.7970041453676248
-0.4154268711375475
0.7046870628925892
-0.7723862567076134
-1.9786628010477763
-0.9447114773276367
-0.538516314437576
-0.4400447597975588
-0.2800284835075273
-0.3292642608275498
-0.30464637216753854
-0.04615854123751762
-0.02769512474251612
-0.009231708247514623
0.1015487907225221
0.12001220721752358
0.1015487907225221
0.08923984639250257
0.08308537422752059
0.08308537422752059
-0.11385773505251384
-0.18155692886753785
-0.2061748175275213
-0.2984919000025288
-0.360036621652543
-0.4400447597975588
-0.538516314437576
-0.5631342030975872
-0.7723862567076134
-0.7908496732026148
-0.7662317845426038
-0.7539228402126119
-0.6862236463975879
-0.6862236463975879
-0.5939065639225805
-0.3292642608275498
-0.3846545103125543
-0.360036621652543
-0.24925612268253405
-0.15078456804251686
-0.08308537422752059
-0.01538618041249662
0.01538618041249662
0.05846748556750937
-0.02154065257750637
-0.04615854123751762
-0.05231301340249961
-0.1261666793825056
-0.1692479845375183
-0.2369471783525424
-0.427735815467567
-0.7169960072226089
-0.5815976195925888
-0.5446707866025856
-0.5508252587675677
-0.5508252587675677
-0.5508252587675677
-0.5262073701075842
-0.47697159278756174
-0.360036621652543
-0.31695531649755804
-0.15078456804251686
0.02154065257750637
0.12001220721752358
0.2431016505175243
1.3693700567126987
1.0493375041326358
0.06462195773251911
0.05846748556750937
0.02769512474251612
-0.15693904020752658
-0.2738740113425453
-0.4154268711375475
-0.4523537041275505
-0.5138984257775646
-0.396963454642546
-0.396963454642546
-0.42158134330255725
-0.360036621652543
-0.2800284835075273
-0.6985325907276074
-0.8523943948526291
-0.35388214948756086
-0.2000203453625393
-0.2369471783525424
-0.18155692886753785
-0.11385773505251384
-0.0707764298975011
-0.04615854123751762
-0.02154065257750637
0.02154065257750637
-0.009231708247514623
-0.04615854123751762
-0.0707764298975011
-0.05231301340249961
-0.009231708247514623
-0.2000203453625393
-0.1261666793825056
-0.07693090206251085
-0.05846748556750937
-0.10770326288750408
-0.1015487907225221
-0.1384756237125251
-0.09539431855751236
-0.08308537422752059
-0.07693090206251085
-0.0707764298975011
-0.06462195773251911
-0.08308537422752059
0.009231708247514623
0.15693904020752658
0.04615854123751762
0.11385773505251384
0.1938658731975296
0.1938658731975296
0.2061748175275213
0.15078456804251686
0.16309351237253633
0.1384756237125251
0.09539431855751236
0.04615854123751762
0.01538618041249662
-0.033849596907498114
0.40311792680755576
1.689402609292734
0.009231708247514623
-0.21232928969253104
-0.1938658731975296
-0.2184837618575408
-0.1938658731975296
-0.29233742783754685
-0.3415732051575415
0.08308537422752059
-0.13232115154751534
-0.40311792680755576
-0.18155692886753785
-0.1015487907225221
-0.0707764298975011
-0.08923984639250257
-1.25243508557768
-0.8031586175326066
-0.0707764298975011
0.1938658731975296
0.35388214948756086
0.47697159278756174
0.5508252587675677
0.6246789247476012
0.6492968134075847
0.5631342030975872
0.5138984257775646
0.4892805371175811
0.433890287632549
0.3292642608275498
0.2369471783525424
0.29233742783754685
0.2431016505175243
-0.05846748556750937
0.01538618041249662
0.02154065257750637
0.01538618041249662
0.01538618041249662
0.01538618041249662
0.02769512474251612
0.01538618041249662
0.02154065257750637
0.04615854123751762
0.05231301340249961
-0.009231708247514623
-0.033849596907498114
0.08923984639250257
0.21232928969253104
-0.06462195773251911
-0.1261666793825056
-0.09539431855751236
-0.17540245670252808
-0.2184837618575408
-0.26771953917753555
-0.3415732051575415
-0.35388214948756086
-0.396963454642546
-0.49543500928256323
-0.4708171206225797
-0.4523537041275505
-0.45850817629256013
-0.4154268711375475
-0.26156506701252585
-0.35388214948756086
-0.3108008443325483
-0.2984919000025288
-0.2369471783525424
-0.2061748175275213
-0.2000203453625393
-0.18155692886753785
-0.1692479845375183
0.12001220721752358
0.08923984639250257
-0.5569797309325777
-0.2738740113425453
-0.12001220721752358
-0.10770326288750408
-0.09539431855751236
-0.13232115154751534
-0.09539431855751236
-0.1384756237125251
-0.28618295567253704
-0.26771953917753555
-0.28618295567253704
-0.3108008443325483
-0.360036621652543
-0.40927239897256545
-0.3846545103125543
-0.4400447597975588
-0.5015894814475731
-0.4523537041275505
-0.3846545103125543
-0.42158134330255725
-0.5138984257775646
-0.40311792680755576
-0.2984919000025288
-0.2800284835075273
-0.35388214948756086
-0.33541873299255964
-0.33541873299255964
-0.390808982477564
-0.40927239897256545
-0.4523537041275505
-0.44619923196256844
-0.4400447597975588
-0.42158134330255725
-0.3846545103125543
-0.3292642608275498
-0.3723455659825625
-0.36619109381755277
-0.3723455659825625
-0.390808982477564
-0.35388214948756086
-0.3292642608275498
-0.2738740113425453
-0.2246382340225228
-0.2246382340225228
-0.2738740113425453
-0.2738740113425453
-0.3292642608275498
-0.26156506701252585
-0.21232928969253104
0.0707764298975011
1.1662724752676545
0.2984919000025288
-0.05846748556750937
-0.1384756237125251
-0.5015894814475731
-1.683248137127724
-0.8093130896976164
-0.2984919000025288
-0.21232928969253104
-0.1692479845375183
-0.17540245670252808
-0.16309351237253633
-0.2246382340225228
-0.15078456804251686
-0.1692479845375183
-0.2061748175275213
-0.11385773505251384
-0.1015487907225221
-0.10770326288750408
-0.1261666793825056
0.5200528979425745
-0.2061748175275213
-0.6800691742326057
-0.23079270618753256
-0.16309351237253633
-0.12001220721752358
-0.1261666793825056
-0.11385773505251384
-0.0707764298975011
-0.08308537422752059
-0.1015487907225221
-0.07693090206251085
-0.08308537422752059
-0.0707764298975011
-0.11385773505251384
-0.15693904020752658
-0.14463009587750708
-0.2246382340225228
-0.2431016505175243
-0.23079270618753256
-0.2184837618575408
-0.2184837618575408
-0.2184837618575408
-0.1692479845375183
-0.10770326288750408
-0.2369471783525424
-0.2369471783525424
-0.1692479845375183
-0.1692479845375183
-0.16309351237253633
-0.15078456804251686
-0.15078456804251686
-0.10770326288750408
-0.11385773505251384
-0.1261666793825056
-0.1015487907225221
-0.08308537422752059
-0.06462195773251911
-0.0707764298975011
0.06462195773251911
-0.02769512474251612
-0.1384756237125251
-0.06462195773251911
0.3723455659825625
-0.05846748556750937
-0.35388214948756086
-0.0707764298975011
0.009231708247514623
0.02769512474251612
-0.033849596907498114
-0.003077236082504875
0.04000406907250786
0.04615854123751762
0.07693090206251085
0.49543500928256323
0.32310978866254003
0.0707764298975011
-0.05231301340249961
-0.13232115154751534
-0.16309351237253633
-0.16309351237253633
-0.18771140103251985
-0.21232928969253104
-0.18771140103251985
-0.1384756237125251
-0.16309351237253633
-0.2061748175275213
-0.05231301340249961
-0.07693090206251085
-0.7354594237176102
-0.5877520917575707
-0.18155692886753785
-0.04000406907250786
-0.09539431855751236
-0.05231301340249961
-0.04000406907250786
-0.033849596907498114
-0.05846748556750937
-0.033849596907498114
-0.02154065257750637
-0.009231708247514623
-0.1015487907225221
-0.07693090206251085
-0.05846748556750937
-0.01538618041249662
-0.12001220721752358
-0.18155692886753785
-0.18771140103251985
-0.12001220721752358
-0.29233742783754685
-0.28618295567253704
-0.23079270618753256
-0.2061748175275213
-0.2061748175275213
-0.17540245670252808
-0.1384756237125251
-0.10770326288750408
-0.14463009587750708
-0.10770326288750408
-0.11385773505251384
-0.14463009587750708
0.26771953917753555
1.3816790010426905
0.42158134330255725
-0.8831667556776225
-1.39398794537271
-0.37850003814754446
-0.16309351237253633
-0.12001220721752358
-0.07693090206251085
-0.0707764298975011
-0.06462195773251911
-0.01538618041249662
-0.18155692886753785
-0.2000203453625393
-0.18771140103251985
-0.16309351237253633
-0.11385773505251384
-0.10770326288750408
-0.05231301340249961
-0.05846748556750937
-0.10770326288750408
-0.09539431855751236
-0.08923984639250257
-0.09539431855751236
-0.08923984639250257
-0.07693090206251085
-0.04615854123751762
-0.02154065257750637
-0.08923984639250257
-0.18155692886753785
-0.21232928969253104
-0.2431016505175243
-0.2800284835075273
-0.2738740113425453
-0.2246382340225228
-0.07693090206251085
-0.2184837618575408
-0.1692479845375183
-0.15078456804251686
-0.15693904020752658
-0.11385773505251384
-0.0707764298975011
-0.05231301340249961
-0.0707764298975011
-0.18771140103251985
-0.1015487907225221
-0.05846748556750937
-0.08923984639250257
-0.10770326288750408
-0.10770326288750408
-0.0707764298975011
-0.05846748556750937
-0.09539431855751236
-0.08308537422752059
-0.09539431855751236
-0.10770326288750408
-0.10770326288750408
-0.10770326288750408
-0.08308537422752059
-0.07693090206251085
-0.2554105948475438
-0.2369471783525424
-0.21232928969253104
-0.17540245670252808
0.2061748175275213
-0.2554105948475438
-0.5200528979425745
-0.24925612268253405
-0.2184837618575408
-0.1384756237125251
-0.15078456804251686
-0.1384756237125251
-0.12001220721752358
-0.09539431855751236
-0.15693904020752658
-0.1261666793825056
-0.26771953917753555
-0.23079270618753256
-0.2431016505175243
-0.23079270618753256
-0.2431016505175243
-0.2369471783525424
-0.17540245670252808
0.9508659494926462
0.6739147020675963
0.1938658731975296
-0.05846748556750937
-0.14463009587750708
-0.2000203453625393
-0.18771140103251985
-0.2369471783525424
-1.510922916507701
-1.1539635309376628
-0.3415732051575415
-0.1938658731975296
-0.16309351237253633
-0.18155692886753785
-0.15693904020752658
-0.13232115154751534
-0.14463009587750708
-0.15693904020752658
-0.08923984639250257
-0.10770326288750408
-0.14463009587750708
-0.14463009587750708
-0.10770326288750408
-0.08308537422752059
-0.06462195773251911
-0.17540245670252808
-0.1384756237125251
-0.16309351237253633
-0.18771140103251985
-0.21232928969253104
-0.1938658731975296
-0.18771140103251985
-0.18771140103251985
-0.2554105948475438
-0.17540245670252808
-0.13232115154751534
-0.24925612268253405
-0.24925612268253405
-0.2431016505175243
0.04000406907250786
1.0185651433076426
0.6616057577376044
0.1015487907225221
-0.04000406907250786
-0.1015487907225221
-0.1261666793825056
-0.13232115154751534
-0.28618295567253704
-1.5355408051677124
-0.8770122835126126
0.18771140103251985
0.05846748556750937
-0.08308537422752059
-0.08308537422752059
-0.08308537422752059
-0.02769512474251612
-0.05231301340249961
-0.18771140103251985
-0.1384756237125251
-0.1261666793825056
-0.1015487907225221
-0.1015487907225221
-0.10770326288750408
-0.08923984639250257
-0.1692479845375183
-0.7416138958825924
-0.5138984257775646
-0.2000203453625393
-0.16309351237253633
-0.15693904020752658
-0.14463009587750708
-0.07693090206251085
-0.05231301340249961
-0.15693904020752658
-0.14463009587750708
-0.13232115154751534
-0.1384756237125251
-0.14463009587750708
-0.1015487907225221
-0.05846748556750937
-0.10770326288750408
-0.18155692886753785
-0.1261666793825056
-0.1015487907225221
-0.07693090206251085
-0.06462195773251911
-0.08923984639250257
-0.1015487907225221
-0.11385773505251384
-0.12001220721752358
-0.13232115154751534
-0.12001220721752358
-0.12001220721752358
-0.09539431855751236
-0.05231301340249961
0.05231301340249961
-0.07693090206251085
-0.10770326288750408
-0.06462195773251911
-0.04000406907250786
-0.02154065257750637
-0.01538618041249662
0.033849596907498114
0.35388214948756086
-0.06462195773251911
-0.3292642608275498
-0.13232115154751534
-0.08308537422752059
-0.04615854123751762
-0.07693090206251085
-0.23079270618753256
-0.18155692886753785
-0.02769512474251612
-0.01538618041249662
-0.04000406907250786
-0.04000406907250786
-0.06462195773251911
-0.05231301340249961
-0.04000406907250786
-0.05846748556750937
-0.01538618041249662
-0.01538618041249662
-0.01538618041249662
0.02154065257750637
0.009231708247514623
0.04615854123751762
-0.04615854123751762
0.46466264845757
-0.1384756237125251
-0.5692886752625692
-0.2061748175275213
-0.1384756237125251
-0.14463009587750708
-0.15693904020752658
-0.1692479845375183
-0.15078456804251686
-0.2369471783525424
-0.07693090206251085
-0.1015487907225221
-0.10770326288750408
-0.1261666793825056
-0.14463009587750708
-0.1015487907225221
-0.04615854123751762
-0.1261666793825056
-0.14463009587750708
-0.08923984639250257
-0.08923984639250257
-0.0707764298975011
-0.05231301340249961
-0.033849596907498114
0.02154065257750637
-0.0707764298975011
-0.04615854123751762
-0.003077236082504875
-0.02769512474251612
-0.06462195773251911
-0.08308537422752059
-0.10770326288750408
-0.01538618041249662
-0.11385773505251384
0.31695531649755804
1.8063375804277528
0.11385773505251384
-0.05231301340249961
-0.02769512474251612
0.02769512474251612
-0.6554512855725947
-1.5416952773327224
-0.44619923196256844
-0.15078456804251686
-0.15693904020752658
-0.1384756237125251
-0.14463009587750708
-0.1261666793825056
-0.07693090206251085
-0.12001220721752358
-0.10770326288750408
-0.09539431855751236
-0.08308537422752059
-0.0707764298975011
-0.08308537422752059
-0.06462195773251911
-0.009231708247514623
-0.05846748556750937
-0.08923984639250257
-0.1692479845375183
-0.12001220721752358
-0.08923984639250257
-0.08923984639250257
-0.09539431855751236
-0.07693090206251085
-0.2061748175275213
-0.2184837618575408
-0.18771140103251985
-0.18155692886753785
-0.1938658731975296
-0.1938658731975296
-0.11385773505251384
-0.08923984639250257
-0.1938658731975296
-0.2000203453625393
-0.17540245670252808
-0.1261666793825056
-0.15078456804251686
-0.14463009587750708
-0.1015487907225221
-0.07693090206251085
-0.1015487907225221
-0.10770326288750408
-0.1015487907225221
-0.07693090206251085
-0.06462195773251911
-0.033849596907498114
0.01538618041249662
0.06462195773251911
-0.1692479845375183
-0.11385773505251384
-0.07693090206251085
-0.0707764298975011
-0.05231301340249961
-0.05231301340249961
-0.01538618041249662
0.033849596907498114
-0.1015487907225221
0.3292642608275498
-0.1261666793825056
-0.40311792680755576
-0.12001220721752358
-0.003077236082504875
-0.05846748556750937
-0.009231708247514623
-0.06462195773251911
-0.04000406907250786
-0.003077236082504875
-0.01538618041249662
-0.02769512474251612
-0.02154065257750637
-0.04000406907250786
-0.009231708247514623
-0.05846748556750937
-0.0707764298975011
-0.08308537422752059
-0.033849596907498114
0.01538618041249662
-0.09539431855751236
-0.13232115154751534
-0.01538618041249662
-0.15078456804251686
-0.11385773505251384
-0.0707764298975011
-0.05846748556750937
-0.0707764298975011
-0.05846748556750937
-0.04000406907250786
0.003077236082504875
-0.1015487907225221
-0.0707764298975011
-0.02154065257750637
0.0707764298975011
0.04000406907250786
-0.13232115154751534
-0.06462195773251911
-0.02154065257750637
-0.06462195773251911
-0.009231708247514623
-0.009231708247514623
0.003077236082504875
-0.003077236082504875
0.003077236082504875
-0.009231708247514623
-0.009231708247514623
-0.15078456804251686
-0.1015487907225221
-0.15693904020752658
-0.427735815467567
-0.2800284835075273
-0.17540245670252808
-0.11385773505251384
-0.09539431855751236
-0.11385773505251384
-0.09539431855751236
-0.08923984639250257
0.3415732051575415
1.861727829912757
0.12001220721752358
-0.10770326288750408
-1.2708985020726815
-1.0801098649576568
-0.1384756237125251
0.15078456804251686
0.003077236082504875
-0.02769512474251612
-0.04000406907250786
-0.01538618041249662
-0.02154065257750637
-0.10770326288750408
-0.05846748556750937
-0.06462195773251911
-0.05846748556750937
-0.033849596907498114
-0.05231301340249961
-0.08308537422752059
-0.02769512474251612
-0.04615854123751762
-0.2554105948475438
-0.1692479845375183
-0.04000406907250786
-0.02154065257750637
-0.003077236082504875
0.02769512474251612
0.02769512474251612
-0.05846748556750937
-0.02154065257750637
0.033849596907498114
0.02769512474251612
0.04615854123751762
0.05231301340249961
0.18155692886753785
1.4863050278477177
1.7755652196027594
0.5138984257775646
-0.09539431855751236
0.13232115154751534
0.1692479845375183
0.1692479845375183
0.02769512474251612
-1.2093537804226673
-0.7970041453676248
-0.02154065257750637
0.13232115154751534
0.12001220721752358
0.13232115154751534
0.16309351237253633
0.13232115154751534
-0.14463009587750708
-0.003077236082504875
0.14463009587750708
0.16309351237253633
0.2184837618575408
0.26156506701252585
0.26156506701252585
0.2800284835075273
0.28618295567253704
0.2061748175275213
0.21232928969253104
0.23079270618753256
0.23079270618753256
0.21232928969253104
0.2738740113425453
0.427735815467567
0.1938658731975296
0.04000406907250786
0.06462195773251911
0.05846748556750937
0.0707764298975011
0.06462195773251911
0.05846748556750937
0.0707764298975011
0.12001220721752358
0.12001220721752358
0.1261666793825056
0.15078456804251686
0.2061748175275213
0.2184837618575408
0.2369471783525424
0.1384756237125251
0.11385773505251384
0.09539431855751236
0.10770326288750408
0.1015487907225221
0.05846748556750937
0.10770326288750408
0.12001220721752358
0.1384756237125251
0.07693090206251085
0.033849596907498114
0.14463009587750708
0.1692479845375183
0.17540245670252808
0.2369471783525424
0.16309351237253633
0.427735815467567
0.33541873299255964
-0.36619109381755277
-0.0707764298975011
-0.003077236082504875
0.003077236082504875
0.02154065257750637
0.003077236082504875
0.01538618041249662
-0.04615854123751762
-0.05846748556750937
0.13232115154751534
-0.05846748556750937
-0.2369471783525424
-0.07693090206251085
-0.02769512474251612
-0.01538618041249662
0.003077236082504875
-0.009231708247514623
-0.02769512474251612
-0.033849596907498114
-0.07693090206251085
-0.0707764298975011
0.3415732051575415
1.3693700567126987
-1.363215584547689
-0.6677602299025862
-0.2000203453625393
-0.2000203453625393
-0.15078456804251686
-0.12001220721752358
-0.11385773505251384
-0.17540245670252808
-0.1384756237125251
-0.11385773505251384
-0.15078456804251686
-0.2061748175275213
-0.2369471783525424
-0.2000203453625393
-0.15078456804251686
-0.23079270618753256
-0.15693904020752658
-0.12001220721752358
-0.18771140103251985
-0.15078456804251686
-0.16309351237253633
-0.1384756237125251
-0.15693904020752658
1.0247196154726523
-0.17540245670252808
-1.1293456422776516
-0.35388214948756086
-0.2000203453625393
-0.15693904020752658
-0.1261666793825056
-0.1261666793825056
-0.06462195773251911
-0.24925612268253405
-0.575443147427579
-0.3108008443325483
-0.1938658731975296
-0.18155692886753785
-0.1938658731975296
-0.1384756237125251
-0.11385773505251384
-0.2061748175275213
-0.2246382340225228
-0.1692479845375183
-0.17540245670252808
-0.1384756237125251
-0.13232115154751534
-0.17540245670252808
-0.08308537422752059
-0.2061748175275213
-0.2554105948475438
-0.2000203453625393
-0.2000203453625393
-0.1938658731975296
-0.1938658731975296
-0.1692479845375183
-0.16309351237253633
-0.23079270618753256
-0.1938658731975296
-0.18155692886753785
-0.2369471783525424
-0.26156506701252585
-0.17540245670252808
0.2984919000025288
-0.15078456804251686
-0.6431423412426027
-0.360036621652543
-0.24925612268253405
-0.23079270618753256
-0.23079270618753256
-0.1938658731975296
-0.1938658731975296
-0.15693904020752658
-0.2061748175275213
-0.1692479845375183
-0.18155692886753785
-0.2061748175275213
-0.1692479845375183
-0.08308537422752059
-0.08308537422752059
-0.10770326288750408
-0.2061748175275213
-0.1938658731975296
-0.1692479845375183
-0.17540245670252808
-0.17540245670252808
-0.2184837618575408
-0.2061748175275213
-0.1261666793825056
-0.26771953917753555
-0.26771953917753555
-0.21232928969253104
-0.2061748175275213
-0.2246382340225228
-0.42158134330255725
-0.35388214948756086
-0.2800284835075273
-0.3292642608275498
-0.30464637216753854
-0.2800284835075273
-0.2738740113425453
-0.26156506701252585
-0.2554105948475438
-0.2431016505175243
-0.18771140103251985
-0.2554105948475438
-0.2184837618575408
-0.15078456804251686
-0.10770326288750408
-0.21232928969253104
-0.2431016505175243
-0.2184837618575408
-0.2061748175275213
-0.26156506701252585
-0.28618295567253704
-0.29233742783754685
-0.3108008443325483
-0.35388214948756086
-0.3415732051575415
-0.2984919000025288
-0.26156506701252585
0.08923984639250257
1.221662724752659
0.31695531649755804
-0.06462195773251911
-0.14463009587750708
-0.14463009587750708
-0.15693904020752658
-1.1170366979476598
-1.473996083517698
-0.46466264845757
-0.2738740113425453
-0.24925612268253405
-0.2246382340225228
-0.2184837618575408
-0.23079270618753256
-0.12001220721752358
-0.2431016505175243
-0.13232115154751534
-0.2061748175275213
-0.28618295567253704
-0.28618295567253704
-0.2184837618575408
-0.2246382340225228
-0.14463009587750708
-0.2431016505175243
-0.1938658731975296
-0.2061748175275213
-0.1938658731975296
-0.18155692886753785
-0.1384756237125251
-0.12001220721752358
-0.033849596907498114
-0.15693904020752658
-0.17540245670252808
-0.15693904020752658
-0.1384756237125251
-0.14463009587750708
-0.17540245670252808
-0.15693904020752658
-0.14463009587750708
-0.2061748175275213
-0.2061748175275213
-0.1692479845375183
-0.14463009587750708
-0.13232115154751534
-0.15078456804251686
-0.17540245670252808
-0.1261666793825056
-0.2800284835075273
-0.28618295567253704
-0.26771953917753555
-0.2554105948475438
-0.2369471783525424
-0.2431016505175243
-0.2554105948475438
-0.2246382340225228
-0.2984919000025288
-0.2800284835075273
-0.26771953917753555
-0.24925612268253405
-0.23079270618753256
-0.18155692886753785
-0.18155692886753785
-0.18155692886753785
0.1261666793825056
-0.2061748175275213
-0.5262073701075842
-0.2431016505175243
-0.15078456804251686
-0.11385773505251384
-0.05846748556750937
-0.009231708247514623
-0.1384756237125251
-0.1261666793825056
-0.11385773505251384
-0.12001220721752358
-0.13232115154751534
-0.16309351237253633
-0.26156506701252585
-0.2738740113425453
-0.396963454642546
-0.3108008443325483
-0.28618295567253704
-0.26771953917753555
-0.26156506701252585
-0.2369471783525424
-0.2431016505175243
-0.2246382340225228
-0.2554105948475438
-0.26771953917753555
-0.2431016505175243
-0.17540245670252808
-0.05846748556750937
-0.2800284835075273
-0.2554105948475438
-0.17540245670252808
-0.28618295567253704
-0.2554105948475438
-0.2369471783525424
-0.2554105948475438
-0.24925612268253405
-0.26156506701252585
-0.2184837618575408
-0.2184837618575408
-0.2431016505175243
-0.21232928969253104
-0.2000203453625393
-0.08923984639250257
-0.26156506701252585
-0.21232928969253104
-0.05846748556750937
1.5170773886727107
0.5262073701075842
-0.06462195773251911
-0.10770326288750408
-0.1384756237125251
-0.1938658731975296
-0.21232928969253104
-0.433890287632549
-1.7201749701177547
-1.3385976958876775
-0.5200528979425745
0.1384756237125251
1.4493781948577145
-0.2984919000025288
-0.3846545103125543
-0.4892805371175811
-1.7263294422827367
-1.0985732814526583
-0.3723455659825625
-0.2738740113425453
-0.24925612268253405
-0.26771953917753555
-0.2554105948475438
-0.2431016505175243
-0.2554105948475438
-0.2554105948475438
-0.18155692886753785
-0.36619109381755277
-0.33541873299255964
-0.29233742783754685
-0.2800284835075273
-0.29233742783754685
-0.3108008443325483
-0.396963454642546
-0.35388214948756086
-0.36619109381755277
-0.396963454642546
-0.396963454642546
-0.427735815467567
-0.40927239897256545
-0.47697159278756174
-0.4154268711375475
-0.3723455659825625
-0.3415732051575415
-0.3415732051575415
-0.3108008443325483
-0.29233742783754685
-0.2738740113425453
-0.29233742783754685
-0.29233742783754685
-0.2431016505175243
-0.2554105948475438
-0.2246382340225228
-0.2061748175275213
-0.18771140103251985
-0.1261666793825056
-0.15693904020752658
-0.15078456804251686
-0.15078456804251686
-0.16309351237253633
-0.15693904020752658
-0.16309351237253633
-0.15078456804251686
-0.1261666793825056
-0.14463009587750708
-0.2000203453625393
-0.21232928969253104
-0.2184837618575408
-0.2554105948475438
-0.2738740113425453
-0.26771953917753555
-0.2369471783525424
-0.30464637216753854
-0.3846545103125543
-0.3415732051575415
0.02154065257750637
-0.4708171206225797
-0.8216220340276081
-0.6492968134075847
-0.6800691742326057
-0.7293049515526008
-0.7477683680476023
-0.8339309783576276
-0.8831667556776225
-0.8400854505226096
-0.7846952010376053
-0.7785407288726233
-0.7846952010376053
-0.6123699804175823
-0.5262073701075842
-0.427735815467567
-0.390808982477564
-0.29233742783754685
-0.2369471783525424
-0.2184837618575408
-0.2369471783525424
-0.18771140103251985
-0.14463009587750708
-0.10770326288750408
-0.08923984639250257
-0.0707764298975011
-0.04000406907250786
-0.2554105948475438
0.35388214948756086
-0.16309351237253633
-0.6123699804175823
-0.2246382340225228
-0.17540245670252808
-0.18155692886753785
-0.21232928969253104
-0.23079270618753256
-0.2184837618575408
-0.31695531649755804
-0.33541873299255964
-0.33541873299255964
-0.3292642608275498
-0.14463009587750708
-0.009231708247514623
-0.2369471783525424
-0.24925612268253405
-0.34772767732255133
-0.3723455659825625
-0.29233742783754685
-0.2184837618575408
-0.2431016505175243
-0.21232928969253104
-0.21232928969253104
-0.17540245670252808
-0.17540245670252808
-0.15078456804251686
-0.15693904020752658
-0.40927239897256545
-0.6062155082525723
0.009231708247514623
1.104727753617668
-0.47697159278756174
-1.7017115536227536
-0.7908496732026148
-0.5323618422725662
-0.5508252587675677
-0.6246789247476012
-0.7354594237176102
-0.8154675618626261
-0.8523943948526291
-0.9200935886676254
-0.9939472546476313
-0.8216220340276081
-1.0493375041326358
-1.11088222578265
-1.0124106711426328
-0.9200935886676254
-0.7723862567076134
-0.9385570051626267
-0.9631748938226381
-0.9139391165026156
-0.889321227842632
-0.8523943948526291
-0.8216220340276081
-0.8277765061926179
-0.8831667556776225
-1.0124106711426328
-1.073955392792647
-1.141654586607671
-1.2093537804226673
-1.2093537804226673
-1.1908903639276658
-1.1970448360926755
-1.1170366979476598
-1.1170366979476598
-0.9508659494926462
-0.8585488670176111
-0.7046870628925892
-0.5939065639225805
-0.575443147427579
-0.5262073701075842
-0.3415732051575415
-0.35388214948756086
-0.5015894814475731
-0.4708171206225797
-0.46466264845757
-0.5508252587675677
-0.6739147020675963
-0.6492968134075847
-0.6431423412426027
-0.6923781185625978
-0.6862236463975879
-0.7108415350575992
-0.6616057577376044
-0.6062155082525723
-0.5939065639225805
-0.5323618422725662
-0.47697159278756174
-0.6062155082525723
-0.47697159278756174
-0.427735815467567
-0.40927239897256545
-0.360036621652543
0.01538618041249662
-0.427735815467567
-0.7908496732026148
-0.6677602299025862
-0.5939065639225805
-0.6123699804175823
-0.6677602299025862
-0.6800691742326057
-0.6616057577376044
-0.6185244525825918
-0.4892805371175811
-0.5631342030975872
-0.42158134330255725
-0.24925612268253405
-0.15078456804251686
-0.0707764298975011
-0.02154065257750637
0.04000406907250786
0.12001220721752358
0.08923984639250257
0.12001220721752358
0.1261666793825056
0.1015487907225221
0.04000406907250786
-0.04615854123751762
-0.2000203453625393
-0.2246382340225228
-0.433890287632549
-0.45850817629256013
-0.5200528979425745
-0.5939065639225805
-0.6800691742326057
-0.7477683680476023
-0.8031586175326066
-0.8154675618626261
-1.0616464484626553
-1.0185651433076426
-0.9754838381526297
-0.9877927824826491
-0.9077846443376336
-1.0985732814526583
-0.9877927824826491
-0.889321227842632
-0.9077846443376336
-0.8523943948526291
-0.8093130896976164
-0.7354594237176102
-0.6739147020675963
-0.5815976195925888
-0.5569797309325777
-0.5569797309325777
-0.6062155082525723
-0.6308333969125834
-0.7231504793875909
-0.7539228402126119
-0.8708578113476306
-0.9262480608326351
-0.901630172172624
-0.5200528979425745
0.42158134330255725
-0.396963454642546
-0.7169960072226089
-0.7477683680476023
-0.6492968134075847
-0.5508252587675677
-0.4708171206225797
-1.467841611352716
-1.2647440299076718
-0.23079270618753256
-0.15078456804251686
-0.09539431855751236
-0.2431016505175243
-0.14463009587750708
-0.05231301340249961
-0.08308537422752059
-0.3108008443325483
-0.3292642608275498
-0.4400447597975588
-0.5138984257775646
-0.5508252587675677
-0.6554512855725947
-0.7108415350575992
-0.7539228402126119
-0.7600773123775938
-0.538516314437576
-0.6554512855725947
-0.6308333969125834
-0.5446707866025856
-0.4892805371175811
-0.42158134330255725
-0.30464637216753854
-0.3415732051575415
-0.32310978866254003
-0.26156506701252585
-0.2184837618575408
-0.2369471783525424
-0.24925612268253405
-0.18771140103251985
-0.23079270618753256
-0.2800284835075273
-0.4892805371175811
-0.35388214948756086
-0.2800284835075273
-0.24925612268253405
-0.23079270618753256
-0.1692479845375183
-0.15693904020752658
-0.2554105948475438
-0.2061748175275213
-0.21232928969253104
-0.1938658731975296
-0.18155692886753785
-0.1692479845375183
-0.1384756237125251
-0.16309351237253633
-0.26771953917753555
-0.2000203453625393
-0.18771140103251985
-0.1692479845375183
-0.15693904020752658
-0.15078456804251686
0.003077236082504875
1.89865466290276
0.7908496732026148
-0.40311792680755576
-0.40927239897256545
-0.2000203453625393
-0.15078456804251686
-0.10770326288750408
-0.31695531649755804
-1.6586302484677409
-1.0062561989776508
-0.3292642608275498
-0.2061748175275213
-0.15078456804251686
-0.16309351237253633
-0.16309351237253633
-0.16309351237253633
-0.16309351237253633
-0.2431016505175243
-0.2554105948475438
-0.2554105948475438
-0.2738740113425453
-0.2184837618575408
-0.12001220721752358
-0.2184837618575408
-0.18155692886753785
-0.18155692886753785
-0.1015487907225221
-0.06462195773251911
-0.05231301340249961
-0.003077236082504875
0.04615854123751762
0.09539431855751236
0.07693090206251085
0.02154065257750637
0.0707764298975011
0.05846748556750937
0.07693090206251085
0.08923984639250257
-0.14463009587750708
-0.033849596907498114
-0.003077236082504875
-0.003077236082504875
0.033849596907498114
0.08923984639250257
0.0707764298975011
0.05231301340249961
0.07693090206251085
0.12001220721752358
0.1015487907225221
0.05231301340249961
0.1015487907225221
0.10770326288750408
0.17540245670252808
0.01538618041249662
0.04615854123751762
0.12001220721752358
0.18771140103251985
0.1261666793825056
0.5569797309325777
2.0586709391927913
0.360036621652543
0.28618295567253704
0.3723455659825625
0.003077236082504875
-1.1539635309376628
-0.21232928969253104
0.23079270618753256
0.2246382340225228
0.1692479845375183
0.17540245670252808
0.16309351237253633
0.04000406907250786
0.04000406907250786
0.04000406907250786
0.003077236082504875
-0.02154065257750637
-0.06462195773251911
-0.10770326288750408
-0.13232115154751534
-0.2000203453625393
-0.16309351237253633
-0.09539431855751236
-0.05846748556750937
-0.2554105948475438
-0.1692479845375183
-0.0707764298975011
-0.02769512474251612
0.003077236082504875
0.07693090206251085
0.13232115154751534
0.16309351237253633
0.18155692886753785
0.2369471783525424
0.3108008443325483
0.34772767732255133
0.9447114773276367
0.433890287632549
0.06462195773251911
0.29233742783754685
0.4400447597975588
0.3723455659825625
0.390808982477564
0.33541873299255964
0.31695531649755804
0.26771953917753555
0.2554105948475438
0.2431016505175243
0.18771140103251985
0.14463009587750708
0.10770326288750408
0.06462195773251911
0.09539431855751236
0.05231301340249961
-0.2000203453625393
-0.15078456804251686
-0.18155692886753785
-0.26156506701252585
-0.35388214948756086
-0.360036621652543
-0.2800284835075273
-0.396963454642546
-0.427735815467567
0.033849596907498114
-0.34772767732255133
-0.6616057577376044
-0.3723455659825625
-0.2061748175275213
0.23079270618753256
0.21232928969253104
-0.033849596907498114
-0.05231301340249961
-0.01538618041249662
0.01538618041249662
0.05231301340249961
0.06462195773251911
0.08923984639250257
-0.003077236082504875
-0.009231708247514623
0.033849596907498114
0.033849596907498114
0.04615854123751762
0.06462195773251911
-0.28618295567253704
-0.390808982477564
-0.1261666793825056
-0.08308537422752059
-0.15078456804251686
-0.1692479845375183
-0.2000203453625393
-0.2184837618575408
-0.18155692886753785
-0.12001220721752358
-0.21232928969253104
-0.2000203453625393
-0.13232115154751534
-0.08923984639250257
-0.01538618041249662
0.36619109381755277
0.3292642608275498
0.24925612268253405
0.18771140103251985
0.26771953917753555
0.360036621652543
0.3846545103125543
0.4831260649525715
0.4892805371175811
0.4831260649525715
0.538516314437576
0.29233742783754685
0.2246382340225228
0.15078456804251686
0.009231708247514623
-0.3723455659825625
-0.5569797309325777
-0.35388214948756086
-0.30464637216753854
-0.47697159278756174
-0.49543500928256323
-0.5015894814475731
-0.4708171206225797
-0.05846748556750937
1.4124513618677115
-0.10770326288750408
-1.1601180031026725
-1.6217034154777374
-0.47697159278756174
-0.1692479845375183
-0.01538618041249662
-0.08308537422752059
0.04000406907250786
0.14463009587750708
0.2184837618575408
0.2369471783525424
0.2984919000025288
0.32310978866254003
0.3108008443325483
0.28618295567253704
0.2061748175275213
0.1938658731975296
0.18155692886753785
0.01538618041249662
0.009231708247514623
-0.01538618041249662
-0.21232928969253104
-0.30464637216753854
-0.31695531649755804
-0.23079270618753256
-0.2554105948475438
-0.3415732051575415
-0.31695531649755804
-0.2800284835075273
-0.2184837618575408
-0.2061748175275213
-0.1692479845375183
-0.12001220721752358
-0.02154065257750637
-0.13232115154751534
-0.04000406907250786
-0.17540245670252808
-0.05231301340249961
-0.003077236082504875
0.04615854123751762
0.033849596907498114
0.08923984639250257
-0.05846748556750937
-0.05231301340249961
-0.06462195773251911
-0.07693090206251085
-0.1261666793825056
-0.1261666793825056
-0.09539431855751236
-0.033849596907498114
-0.1938658731975296
-0.21232928969253104
-0.17540245670252808
-0.14463009587750708
-0.10770326288750408
-0.1015487907225221
-0.09539431855751236
-0.05846748556750937
-0.14463009587750708
-0.08923984639250257
-0.033849596907498114
0.009231708247514623
0.34772767732255133
-0.1015487907225221
-0.3846545103125543
-0.18155692886753785
-0.34772767732255133
-0.1692479845375183
-0.13232115154751534
-0.1384756237125251
-0.15078456804251686
-0.15693904020752658
-0.15693904020752658
-0.08923984639250257
-0.2184837618575408
-0.15078456804251686
-0.08308537422752059
0.003077236082504875
0.1015487907225221
0.2246382340225228
0.2738740113425453
0.29233742783754685
0.3415732051575415
0.4708171206225797
0.5508252587675677
0.6000610360875902
0.6308333969125834
0.7046870628925892
0.7539228402126119
0.7785407288726233
0.7293049515526008
0.7416138958825924
0.7723862567076134
0.7785407288726233
0.8154675618626261
0.9262480608326351
0.7416138958825924
0.7231504793875909
0.5877520917575707
0.5262073701075842
0.396963454642546
0.29233742783754685
0.40927239897256545
0.40927239897256545
0.29233742783754685
0.1938658731975296
0.04000406907250786
0.009231708247514623
0.02769512474251612
0.01538618041249662
-0.06462195773251911
-0.10770326288750408
-0.06462195773251911
-0.06462195773251911
-0.14463009587750708
-0.08923984639250257
-0.009231708247514623
0.01538618041249662
-0.009231708247514623
0.0707764298975011
0.30464637216753854
1.3324432237226955
0.8647033391826209
0.4154268711375475
0.3292642608275498
0.32310978866254003
0.36619109381755277
0.396963454642546
0.26771953917753555
-1.0247196154726523
-0.4523537041275505
0.2000203453625393
0.26156506701252585
0.2554105948475438
0.2184837618575408
0.1384756237125251
0.2431016505175243
1.8740367742427766
1.0801098649576568
-0.11385773505251384
-0.26156506701252585
-0.11385773505251384
-0.10770326288750408
-0.08308537422752059
-0.2738740113425453
-1.5663131659927332
-0.901630172172624
-0.21232928969253104
-0.1015487907225221
-0.11385773505251384
-0.0707764298975011
-0.0707764298975011
-0.01538618041249662
-0.01538618041249662
0.02769512474251612
0.06462195773251911
-0.13232115154751534
-0.033849596907498114
0.003077236082504875
0.009231708247514623
0.1261666793825056
0.08923984639250257
-0.04615854123751762
0.009231708247514623
0.01538618041249662
0.04000406907250786
0.1015487907225221
0.05846748556750937
0.033849596907498114
0.02769512474251612
-0.003077236082504875
-0.08308537422752059
-0.09539431855751236
-0.09539431855751236
-0.15693904020752658
-0.18771140103251985
-0.1938658731975296
-0.2246382340225228
-0.2061748175275213
-0.2184837618575408
-0.2246382340225228
-0.2369471783525424
-0.1938658731975296
-0.1692479845375183
-0.13232115154751534
-0.033849596907498114
-0.17540245670252808
-0.11385773505251384
-0.05231301340249961
-0.02769512474251612
-0.01538618041249662
-0.003077236082504875
-0.01538618041249662
-0.003077236082504875
-0.009231708247514623
-0.02769512474251612
-0.04000406907250786
-0.08308537422752059
-0.07693090206251085
-0.04615854123751762
0.13232115154751534
-0.09539431855751236
-0.5631342030975872
-0.33541873299255964
-0.23079270618753256
-0.2369471783525424
-0.26771953917753555
-0.2431016505175243
-0.3108008443325483
-0.35388214948756086
-0.31695531649755804
-0.3415732051575415
-0.2984919000025288
-0.3108008443325483
-0.2738740113425453
-0.12001220721752358
0.2800284835075273
-0.23079270618753256
-0.5939065639225805
-0.26156506701252585
-0.2246382340225228
-0.23079270618753256
-0.2431016505175243
-0.1938658731975296
-0.10770326288750408
-0.15078456804251686
-0.26156506701252585
-0.21232928969253104
-0.16309351237253633
-0.1692479845375183
-0.3292642608275498
-0.32310978866254003
-0.2369471783525424
-0.28618295567253704
-0.30464637216753854
-0.3108008443325483
-0.35388214948756086
-0.396963454642546
-0.40927239897256545
-0.44619923196256844
-0.390808982477564
-0.44619923196256844
-0.04000406907250786
1.4616871391877062
-0.1384756237125251
-0.3415732051575415
-0.3292642608275498
-0.29233742783754685
-0.8770122835126126
-1.8001831082627426
-0.7231504793875909
-0.34772767732255133
-0.3292642608275498
-0.30464637216753854
-0.2738740113425453
-0.28618295567253704
-0.26771953917753555
-0.31695531649755804
-0.3292642608275498
-0.26771953917753555
-0.29233742783754685
-0.35388214948756086
-0.3108008443325483
-0.29233742783754685
-0.24925612268253405
-0.32310978866254003
-0.32310978866254003
-0.2984919000025288
-0.3292642608275498
-0.31695531649755804
-0.31695531649755804
-0.29233742783754685
-0.21232928969253104
-0.2800284835075273
-0.28618295567253704
-0.2246382340225228
-0.26771953917753555
-0.2800284835075273
-0.26156506701252585
-0.29233742783754685
-0.35388214948756086
-0.24925612268253405
-0.32310978866254003
-0.36619109381755277
-0.3723455659825625
-0.3846545103125543
-0.40311792680755576
-0.390808982477564
-0.3415732051575415
-0.37850003814754446
-0.3846545103125543
-0.40927239897256545
-0.3846545103125543
-0.34772767732255133
-0.33541873299255964
-0.3292642608275498
-0.2554105948475438
-0.3846545103125543
-0.34772767732255133
-0.3108008443325483
-0.33541873299255964
-0.37850003814754446
-0.40311792680755576
-0.4154268711375475
-0.3723455659825625
-0.45850817629256013
-0.11385773505251384
-0.5323618422725662
-0.8339309783576276
-0.5631342030975872
-0.5323618422725662
-0.49543500928256323
-0.46466264845757
-0.5262073701075842
-0.5015894814475731
-0.49543500928256323
-0.5077439536125827
-0.5015894814475731
-0.4831260649525715
-0.5077439536125827
-0.433890287632549
-0.5692886752625692
-0.6123699804175823
-0.6000610360875902
-0.6369878690775933
-0.6492968134075847
-0.6492968134075847
-0.6554512855725947
-0.5569797309325777
-0.6677602299025862
-0.6308333969125834
-0.5631342030975872
-0.5138984257775646
-0.433890287632549
-0.34772767732255133
-0.3723455659825625
-0.427735815467567
-0.37850003814754446
-0.2738740113425453
-0.21232928969253104
-0.18771140103251985
-0.23079270618753256
-0.23079270618753256
-0.21232928969253104
-0.1938658731975296
-0.2369471783525424
-0.2431016505175243
-0.2369471783525424
-0.2000203453625393
-0.2184837618575408
-0.28618295567253704
-0.28618295567253704
-0.15693904020752658
-0.28618295567253704
-0.26771953917753555
-0.26156506701252585
-0.2369471783525424
-0.2184837618575408
-0.1938658731975296
-0.1692479845375183
-0.13232115154751534
-0.1938658731975296
-0.14463009587750708
-0.1015487907225221
0.3415732051575415
1.8678823020777668
-0.003077236082504875
-0.18771140103251985
-1.289361918567683
-1.363215584547689
-0.4523537041275505
-0.2554105948475438
-0.2246382340225228
-0.2369471783525424
-0.2554105948475438
-0.2369471783525424
-0.2061748175275213
-0.40927239897256545
-0.32310978866254003
-0.2554105948475438
0.02769512474251612
-0.15078456804251686
-0.21232928969253104
-0.16309351237253633
-0.09539431855751236
-0.2061748175275213
-0.10770326288750408
-0.05231301340249961
0.009231708247514623
0.033849596907498114
0.02769512474251612
0.009231708247514623
0.06462195773251911
-0.033849596907498114
0.04615854123751762
-0.26156506701252585
-0.1261666793825056
0.1015487907225221
0.1692479845375183
0.1938658731975296
0.2369471783525424
0.05846748556750937
0.0707764298975011
0.033849596907498114
-0.01538618041249662
-0.06462195773251911
-0.08923984639250257
-0.1261666793825056
-0.09539431855751236
-0.18771140103251985
-0.08923984639250257
-0.26156506701252585
-0.3108008443325483
-0.29233742783754685
-0.33541873299255964
-0.34772767732255133
-0.36619109381755277
-0.5200528979425745
-0.5077439536125827
-0.5015894814475731
-0.5077439536125827
-0.4831260649525715
-0.47697159278756174
-0.4523537041275505
-0.4154268711375475
-0.34772767732255133
-0.37850003814754446
-0.3415732051575415
0.02769512474251612
-0.390808982477564
-0.6554512855725947
-0.3415732051575415
-0.2246382340225228
-0.2431016505175243
-0.15078456804251686
-0.1261666793825056
-0.09539431855751236
-0.08308537422752059
-0.04000406907250786
-0.033849596907498114
-0.08308537422752059
-0.1261666793825056
-0.04000406907250786
0.003077236082504875
0.06462195773251911
0.08923984639250257
0.11385773505251384
0.14463009587750708
0.1692479845375183
0.18771140103251985
0.2369471783525424
0.31695531649755804
0.2800284835075273
0.3108008443325483
0.33541873299255964
0.32310978866254003
1.4186058340326935
1.0247196154726523
0.4831260649525715
0.2984919000025288
0.2000203453625393
0.15078456804251686
0.07693090206251085
-0.1938658731975296
-1.5293863330027024
-0.8523943948526291
-0.2061748175275213
-0.18155692886753785
-0.17540245670252808
-0.14463009587750708
-0.2246382340225228
-0.3415732051575415
-0.30464637216753854
-0.33541873299255964
-0.28618295567253704
-0.2800284835075273
-0.26771953917753555
-0.23079270618753256
-0.2246382340225228
-0.17540245670252808
-0.1938658731975296
-0.2431016505175243
-0.2246382340225228
-0.2000203453625393
-0.1384756237125251
-0.2431016505175243
0.04000406907250786
0.889321227842632
-1.2093537804226673
-0.7169960072226089
-0.3108008443325483
-0.26771953917753555
-0.2554105948475438
-0.2369471783525424
-0.2246382340225228
-0.17540245670252808
-0.26771953917753555
-0.30464637216753854
-0.2369471783525424
-0.15693904020752658
-0.05231301340249961
-0.2061748175275213
-0.18155692886753785
-0.13232115154751534
-0.10770326288750408
-0.15693904020752658
-0.13232115154751534
-0.11385773505251384
-0.08308537422752059
-0.05231301340249961
0.009231708247514623
0.01538618041249662
0.08923984639250257
0.13232115154751534
0.12001220721752358
0.06462195773251911
0.05846748556750937
0.1015487907225221
0.08308537422752059
-0.033849596907498114
0.033849596907498114
0.08923984639250257
0.02769512474251612
0.009231708247514623
0.02154065257750637
0.04615854123751762
0.07693090206251085
1.2955163907326928
0.14463009587750708
-0.7354594237176102
0.02769512474251612
0.033849596907498114
0.16309351237253633
0.21232928969253104
0.26156506701252585
0.3108008443325483
0.2431016505175243
0.28618295567253704
0.3846545103125543
0.30464637216753854
0.31695531649755804
0.3108008443325483
0.29233742783754685
0.32310978866254003
0.29233742783754685
0.26771953917753555
0.2184837618575408
0.24925612268253405
0.2369471783525424
0.1692479845375183
0.5446707866025856
0.15693904020752658
-0.2984919000025288
-0.1261666793825056
-0.06462195773251911
-0.13232115154751534
-0.2246382340225228
-0.2800284835075273
-0.36619109381755277
-0.33541873299255964
-0.06462195773251911
-0.3723455659825625
-0.5077439536125827
-0.5015894814475731
-0.5200528979425745
-0.5200528979425745
-0.4523537041275505
-0.29233742783754685
-0.33541873299255964
-0.2800284835075273
-0.14463009587750708
-0.05846748556750937
-0.04000406907250786
0.06462195773251911
0.04615854123751762
-0.34772767732255133
-0.1692479845375183
0.04615854123751762
0.1015487907225221
0.0707764298975011
0.009231708247514623
-0.02154065257750637
-0.033849596907498114
-0.02154065257750637
-0.1692479845375183
-0.1938658731975296
-0.18155692886753785
-0.1938658731975296
-0.1384756237125251
-0.09539431855751236
-0.05231301340249961
-0.04000406907250786
-0.06462195773251911
0.01538618041249662
0.11385773505251384
0.1692479845375183
0.2061748175275213
0.2246382340225228
0.26156506701252585
0.3108008443325483
0.2369471783525424
0.2431016505175243
0.2000203453625393
0.1938658731975296
0.2246382340225228
0.6000610360875902
0.18771140103251985
-0.08308537422752059
0.08923984639250257
1.0185651433076426
0.15693904020752658
-0.3415732051575415
-0.538516314437576
-0.6308333969125834
-0.6923781185625978
-1.5724676381577152
-2.1448335495027893
-1.0616464484626553
-0.7600773123775938
-0.7354594237176102
-1.1601180031026725
-0.7231504793875909
-0.3292642608275498
-0.1261666793825056
-0.0707764298975011
0.02154065257750637
0.11385773505251384
0.14463009587750708
0.17540245670252808
0.18771140103251985
0.2184837618575408
0.23079270618753256
0.05231301340249961
0.02769512474251612
-0.01538618041249662
-0.15693904020752658
-0.21232928969253104
-0.24925612268253405
-0.29233742783754685
-0.2984919000025288
-0.42158134330255725
-0.4154268711375475
-0.40927239897256545
-0.40311792680755576
-0.37850003814754446
-0.360036621652543
-0.3292642608275498
-0.21232928969253104
-0.2431016505175243
-0.07693090206251085
-0.02769512474251612
-0.08923984639250257
-0.02154065257750637
0.02154065257750637
0.08308537422752059
0.13232115154751534
-0.04000406907250786
-0.033849596907498114
-0.02154065257750637
-0.05846748556750937
-0.07693090206251085
-0.11385773505251384
-0.15078456804251686
-0.15693904020752658
-0.2431016505175243
-0.2554105948475438
-0.3415732051575415
-0.3292642608275498
-0.33541873299255964
-0.3292642608275498
-0.2738740113425453
-0.1384756237125251
0.15693904020752658
-0.2061748175275213
-0.4708171206225797
-0.13232115154751534
-0.02769512474251612
0.02769512474251612
0.15078456804251686
0.24925612268253405
0.033849596907498114
0.15693904020752658
0.3292642608275498
0.40927239897256545
0.4523537041275505
0.42158134330255725
0.42158134330255725
0.45850817629256013
0.23079270618753256
0.2369471783525424
0.1938658731975296
0.13232115154751534
0.08923984639250257
0.05846748556750937
0.1261666793825056
0.08923984639250257
-0.1261666793825056
-0.0707764298975011
-0.05231301340249961
-0.05846748556750937
-0.033849596907498114
-0.07693090206251085
-0.15693904020752658
-0.1384756237125251
-0.23079270618753256
-0.2431016505175243
-0.2431016505175243
-0.2554105948475438
-0.21232928969253104
-0.2431016505175243
-0.3723455659825625
-0.2984919000025288
-0.40311792680755576
-0.35388214948756086
-0.42158134330255725
-0.4892805371175811
-0.49543500928256323
-0.47697159278756174
-0.4400447597975588
-0.3846545103125543
-0.433890287632549
-0.3108008443325483
-0.2369471783525424
-0.2000203453625393
-0.11385773505251384
-0.15693904020752658
-0.1015487907225221
-0.003077236082504875
0.01538618041249662
0.04615854123751762
0.49543500928256323
1.91096360723278
0.2369471783525424
0.06462195773251911
-0.08923984639250257
-1.39398794537271
-1.0678009206276373
-0.31695531649755804
-0.2000203453625393
-0.06462195773251911
-0.15078456804251686
-0.29233742783754685
-0.18771140103251985
-0.1938658731975296
-0.30464637216753854
-0.2800284835075273
-0.26771953917753555
-0.26156506701252585
-0.2738740113425453
-0.26156506701252585
-0.2184837618575408
-0.2000203453625393
-0.26156506701252585
-0.1692479845375183
-0.07693090206251085
0.0707764298975011
0.009231708247514623
0.05231301340249961
0.15693904020752658
0.1692479845375183
0.15078456804251686
0.2554105948475438
0.28618295567253704
0.2800284835075273
0.26156506701252585
0.26156506701252585
0.2984919000025288
0.26771953917753555
0.18155692886753785
0.2246382340225228
0.21232928969253104
0.07693090206251085
0.02154065257750637
-0.003077236082504875
0.18771140103251985
1.818646524757745
0.8523943948526291
-0.3108008443325483
-0.2984919000025288
-0.1384756237125251
-0.08923984639250257
-0.08923984639250257
-0.3108008443325483
-1.5355408051677124
-0.8585488670176111
-0.433890287632549
-0.1692479845375183
-0.04000406907250786
-0.009231708247514623
0.02154065257750637
0.10770326288750408
0.12001220721752358
-0.04000406907250786
0.08308537422752059
0.05846748556750937
0.02769512474251612
0.009231708247514623
-0.009231708247514623
-0.033849596907498114
0.04615854123751762
0.24925612268253405
-0.009231708247514623
-0.11385773505251384
-0.14463009587750708
-0.1692479845375183
-0.16309351237253633
-0.1692479845375183
-0.14463009587750708
-0.12001220721752358
-0.13232115154751534
-0.10770326288750408
-0.12001220721752358
-0.13232115154751534
-0.04000406907250786
-0.15693904020752658
-0.17540245670252808
-0.09539431855751236
-0.08308537422752059
-0.05231301340249961
-0.04615854123751762
-0.01538618041249662
0.04000406907250786
0.02769512474251612
0.10770326288750408
0.15693904020752658
0.13232115154751534
0.09539431855751236
0.08308537422752059
0.10770326288750408
0.04000406907250786
-0.30464637216753854
-0.07693090206251085
0.08923984639250257
0.04000406907250786
0.009231708247514623
0.003077236082504875
0.009231708247514623
0.04615854123751762
0.8154675618626261
0.06462195773251911
-0.7477683680476023
-0.16309351237253633
-0.04615854123751762
-0.02154065257750637
0.01538618041249662
0.09539431855751236
-0.02154065257750637
-0.05231301340249961
-0.04615854123751762
-0.009231708247514623
-0.003077236082504875
-0.003077236082504875
0.35388214948756086
1.4124513618677115
0.033849596907498114
-1.5355408051677124
-0.6246789247476012
-0.2800284835075273
-0.26771953917753555
-0.28618295567253704
-0.24925612268253405
-0.2246382340225228
-0.1692479845375183
-0.2246382340225228
-0.2000203453625393
-0.13232115154751534
-0.1015487907225221
-0.1015487907225221
-0.0707764298975011
-0.05846748556750937
0.07693090206251085
-0.09539431855751236
-0.11385773505251384
-0.01538618041249662
0.08308537422752059
0.26771953917753555
0.01538618041249662
-0.07693090206251085
-0.05231301340249961
-0.11385773505251384
-0.14463009587750708
-0.18155692886753785
-0.2000203453625393
-0.1938658731975296
-0.2000203453625393
-0.2369471783525424
-0.13232115154751534
-0.23079270618753256
-0.2246382340225228
-0.34772767732255133
-0.7354594237176102
-0.40927239897256545
-0.2431016505175243
-0.1938658731975296
-0.16309351237253633
-0.2061748175275213
-0.18155692886753785
-0.2000203453625393
-0.15693904020752658
-0.1261666793825056
-0.1261666793825056
-0.09539431855751236
-0.04615854123751762
-0.12001220721752358
-0.12001220721752358
-0.23079270618753256
-0.15693904020752658
-0.0707764298975011
-0.05846748556750937
-0.02154065257750637
-0.02154065257750637
-0.0707764298975011
-0.05846748556750937
-0.033849596907498114
-0.05231301340249961
-0.033849596907498114
0.3723455659825625
-0.07693090206251085
-0.3108008443325483
-0.033849596907498114
-0.02154065257750637
-0.04000406907250786
-0.06462195773251911
-0.12001220721752358
-0.15078456804251686
-0.18155692886753785
-0.13232115154751534
-0.2246382340225228
-0.2061748175275213
-0.21232928969253104
-0.2369471783525424
-0.2369471783525424
-0.23079270618753256
-0.2246382340225228
-0.16309351237253633
-0.36619109381755277
-0.32310978866254003
-0.24925612268253405
-0.18155692886753785
-0.13232115154751534
-0.13232115154751534
-0.09539431855751236
0.07693090206251085
-0.08308537422752059
-0.05846748556750937
0.003077236082504875
0.01538618041249662
-0.02769512474251612
-0.033849596907498114
-0.02154065257750637
0.04615854123751762
-0.10770326288750408
-0.11385773505251384
-0.04615854123751762
-0.033849596907498114
-0.05846748556750937
-0.05846748556750937
-0.003077236082504875
0.033849596907498114
0.04615854123751762
0.05231301340249961
0.02154065257750637
0.009231708247514623
-0.04615854123751762
-0.05231301340249961
-0.16309351237253633
-0.16309351237253633
-0.2431016505175243
-0.2738740113425453
-0.2554105948475438
-0.2369471783525424
-0.2246382340225228
-0.2061748175275213
-0.18155692886753785
0.2369471783525424
1.3139798072276945
0.427735815467567
0.05231301340249961
-0.0707764298975011
0.02769512474251612
-0.1692479845375183
-0.2000203453625393
-1.2462806134126705
-1.326288751557686
-0.40927239897256545
-0.24925612268253405
-0.26156506701252585
-0.26156506701252585
-0.2738740113425453
-0.2738740113425453
-0.23079270618753256
-0.37850003814754446
-0.30464637216753854
-0.2369471783525424
-0.1384756237125251
-0.2800284835075273
-0.24925612268253405
-0.21232928969253104
-0.2184837618575408
-0.24925612268253405
-0.2246382340225228
-0.2184837618575408
-0.2061748175275213
-0.1692479845375183
-0.11385773505251384
-0.06462195773251911
-0.0707764298975011
-0.16309351237253633
-0.0707764298975011
-0.01538618041249662
-0.07693090206251085
-0.16309351237253633
-0.15078456804251686
-0.15693904020752658
-0.12001220721752358
-0.2246382340225228
-0.17540245670252808
-0.1692479845375183
-0.18155692886753785
-0.2061748175275213
-0.17540245670252808
-0.08923984639250257
-0.07693090206251085
-0.09539431855751236
0.21232928969253104
0.427735815467567
0.003077236082504875
-0.1015487907225221
-0.15078456804251686
-0.17540245670252808
-0.2000203453625393
-0.2184837618575408
-0.2061748175275213
-0.2000203453625393
-0.18771140103251985
-0.18771140103251985
-0.1692479845375183
-0.1261666793825056
0.26156506701252585
-0.5200528979425745
-1.2093537804226673
-0.46466264845757
-0.2246382340225228
-0.17540245670252808
-0.2061748175275213
-0.14463009587750708
-0.10770326288750408
-0.1015487907225221
-0.0707764298975011
-0.16309351237253633
-0.009231708247514623
-0.033849596907498114
-0.05846748556750937
-0.04000406907250786
-0.009231708247514623
-0.13232115154751534
-0.10770326288750408
-0.10770326288750408
-0.11385773505251384
-0.08923984639250257
-0.08308537422752059
-0.05231301340249961
-0.05231301340249961
-0.08308537422752059
-0.10770326288750408
-0.11385773505251384
-0.07693090206251085
-0.08923984639250257
-0.08923984639250257
-0.009231708247514623
-0.1938658731975296
-0.18771140103251985
-0.1384756237125251
-0.13232115154751534
-0.13232115154751534
-0.15078456804251686
-0.17540245670252808
-0.15693904020752658
-0.18155692886753785
-0.21232928969253104
-0.2184837618575408
-0.2369471783525424
-0.26771953917753555
-0.23079270618753256
-0.14463009587750708
-0.2738740113425453
-0.2800284835075273
-0.24925612268253405
-0.2184837618575408
-0.2246382340225228
-0.2184837618575408
-0.18155692886753785
-0.18155692886753785
0.02769512474251612
1.0985732814526583
0.5015894814475731
0.26156506701252585
-0.009231708247514623
-0.37850003814754446
0.01538618041249662
-0.1261666793825056
-0.433890287632549
-1.683248137127724
-0.8339309783576276
-0.2431016505175243
-0.16309351237253633
-0.14463009587750708
-0.14463009587750708
-0.1261666793825056
-0.08923984639250257
-0.10770326288750408
-0.11385773505251384
-0.13232115154751534
-0.1261666793825056
-0.13232115154751534
-0.18155692886753785
-0.1384756237125251
-0.1384756237125251
-0.15693904020752658
-0.15078456804251686
-0.14463009587750708
-0.14463009587750708
-0.1384756237125251
-0.1261666793825056
-0.16309351237253633
-0.18771140103251985
-0.15693904020752658
-0.16309351237253633
-0.1384756237125251
-0.009231708247514623
-0.11385773505251384
-0.16309351237253633
-0.10770326288750408
-0.15693904020752658
-0.1015487907225221
-0.1015487907225221
-0.13232115154751534
-0.15693904020752658
-0.1692479845375183
-0.14463009587750708
-0.15693904020752658
-0.18771140103251985
-0.1692479845375183
-0.15078456804251686
-0.2061748175275213
-0.2554105948475438
-0.16309351237253633
-0.15078456804251686
-0.13232115154751534
-0.18155692886753785
-0.11385773505251384
-0.08308537422752059
-0.08923984639250257
-0.08923984639250257
-0.1261666793825056
-0.13232115154751534
-0.12001220721752358
-0.13232115154751534
-0.1261666793825056
-0.05846748556750937
0.28618295567253704
-0.1261666793825056
-0.44619923196256844
-0.16309351237253633
-0.10770326288750408
-0.0707764298975011
-0.10770326288750408
-0.1384756237125251
-0.12001220721752358
-0.12001220721752358
-0.13232115154751534
-0.14463009587750708
-0.15078456804251686
-0.0707764298975011
-0.18155692886753785
-0.2554105948475438
-0.18771140103251985
-0.17540245670252808
-0.15078456804251686
-0.1261666793825056
-0.1384756237125251
-0.08923984639250257
-0.16309351237253633
-0.15693904020752658
-0.17540245670252808
-0.2000203453625393
-0.18155692886753785
-0.1692479845375183
-0.14463009587750708
-0.05846748556750937
-0.2738740113425453
-0.21232928969253104
-0.14463009587750708
-0.13232115154751534
-0.15078456804251686
-0.1384756237125251
-0.10770326288750408
-0.04615854123751762
-0.18155692886753785
-0.2000203453625393
-0.1692479845375183
-0.18155692886753785
-0.2000203453625393
-0.18155692886753785
-0.17540245670252808
-0.17540245670252808
-0.24925612268253405
-0.23079270618753256
-0.2061748175275213
-0.18771140103251985
-0.2184837618575408
-0.2061748175275213
-0.16309351237253633
-0.10770326288750408
-0.14463009587750708
-0.15078456804251686
-0.13232115154751534
-0.11385773505251384
0.37850003814754446
2.286386409297819
0.6308333969125834
-0.6492968134075847
-1.4493781948577145
-0.34772767732255133
-0.04000406907250786
-0.033849596907498114
-0.02154065257750637
-0.01538618041249662
-0.05231301340249961
0.02769512474251612
-0.05231301340249961
-0.10770326288750408
-0.05231301340249961
-0.04615854123751762
-0.5262073701075842
-0.6062155082525723
-0.23079270618753256
-0.16309351237253633
-0.26156506701252585
-0.23079270618753256
-0.17540245670252808
-0.21232928969253104
-0.21232928969253104
-0.15078456804251686
-0.2000203453625393
-0.10770326288750408
-0.24925612268253405
-0.18771140103251985
-0.09539431855751236
-0.05231301340249961
-0.2184837618575408
-0.13232115154751534
-0.08308537422752059
-0.02154065257750637
-0.08308537422752059
-0.08308537422752059
-0.08923984639250257
-0.10770326288750408
-0.1015487907225221
-0.09539431855751236
-0.10770326288750408
-0.08308537422752059
-0.14463009587750708
-0.0707764298975011
-0.04000406907250786
-0.11385773505251384
-0.1384756237125251
-0.11385773505251384
-0.08923984639250257
-0.04000406907250786
-0.14463009587750708
-0.10770326288750408
-0.1384756237125251
-0.10770326288750408
-0.09539431855751236
-0.12001220721752358
-0.14463009587750708
-0.09539431855751236
-0.14463009587750708
-0.07693090206251085
-0.18155692886753785
-0.11385773505251384
0.31695531649755804
-0.12001220721752358
-0.433890287632549
-0.1261666793825056
-0.10770326288750408
-0.07693090206251085
-0.04615854123751762
-0.033849596907498114
-0.04615854123751762
-0.02769512474251612
-0.003077236082504875
0.009231708247514623
-0.11385773505251384
-0.17540245670252808
-0.13232115154751534
-0.13232115154751534
-0.13232115154751534
-0.16309351237253633
-0.1938658731975296
-0.17540245670252808
-0.26771953917753555
-0.24925612268253405
-0.2369471783525424
-0.2061748175275213
-0.24925612268253405
-0.16309351237253633
-0.05846748556750937
-0.01538618041249662
-0.2431016505175243
-0.21232928969253104
-0.21232928969253104
-0.2061748175275213
-0.2000203453625393
-0.17540245670252808
-0.1384756237125251
-0.08923984639250257
-0.21232928969253104
-0.1692479845375183
-0.11385773505251384
-0.1015487907225221
-0.12001220721752358
-0.08308537422752059
0.02769512474251612
-0.10770326288750408
-0.21232928969253104
-0.1938658731975296
-0.2000203453625393
-0.2000203453625393
-0.2000203453625393
-0.2000203453625393
-0.15693904020752658
-0.14463009587750708
-0.2369471783525424
-0.18155692886753785
-0.16309351237253633
-0.1261666793825056
-0.10770326288750408
-0.16309351237253633
-0.01538618041249662
1.1293456422776516
0.5631342030975872
0.08308537422752059
-0.009231708247514623
-0.05231301340249961
-0.0707764298975011
-0.05846748556750937
-0.16309351237253633
-1.4124513618677115
-1.0616464484626553
-0.2800284835075273
-0.18771140103251985
-0.08923984639250257
-0.0707764298975011
-0.24925612268253405
-0.17540245670252808
-0.14463009587750708
-0.2738740113425453
-0.2431016505175243
-0.2554105948475438
-0.2800284835075273
-0.26156506701252585
-0.24925612268253405
-0.2000203453625393
-0.1692479845375183
-0.2738740113425453
-0.1938658731975296
-0.16309351237253633
-0.07693090206251085
-0.2431016505175243
-0.2184837618575408
-0.15693904020752658
-0.09539431855751236
-0.17540245670252808
-0.1261666793825056
-0.12001220721752358
-0.1384756237125251
-0.13232115154751534
-0.06462195773251911
-0.10770326288750408
-0.14463009587750708
-0.12001220721752358
-0.0707764298975011
-0.08308537422752059
-0.16309351237253633
-0.08923984639250257
-0.06462195773251911
-0.08308537422752059
-0.10770326288750408
-0.15693904020752658
-0.16309351237253633
-0.18155692886753785
-0.18155692886753785
-0.2000203453625393
-0.2061748175275213
-0.2000203453625393
-0.2061748175275213
-0.2246382340225228
-0.21232928969253104
-0.24925612268253405
-0.24925612268253405
-0.18771140103251985
-0.17540245670252808
0.21232928969253104
-0.17540245670252808
-0.5569797309325777
-0.26771953917753555
-0.1938658731975296
-0.1692479845375183
-0.1692479845375183
-0.18155692886753785
0.07693090206251085
1.5355408051677124
0.18155692886753785
-0.2738740113425453
-0.2246382340225228
-0.15693904020752658
-0.2000203453625393
-0.2184837618575408
-0.5262073701075842
-1.7509473309427481
-0.8708578113476306
-0.31695531649755804
-0.2061748175275213
-0.18771140103251985
-0.15693904020752658
-0.13232115154751534
-0.06462195773251911
-0.06462195773251911
-0.1692479845375183
-0.13232115154751534
-0.14463009587750708
-0.1261666793825056
-0.14463009587750708
-0.15078456804251686
-0.15693904020752658
-0.1015487907225221
-0.12001220721752358
-0.12001220721752358
-0.11385773505251384
-0.11385773505251384
-0.07693090206251085
-0.0707764298975011
-0.1384756237125251
-0.08308537422752059
-0.05231301340249961
-0.10770326288750408
-0.08308537422752059
-0.06462195773251911
-0.0707764298975011
-0.0707764298975011
-0.1384756237125251
-0.06462195773251911
-0.01538618041249662
-0.05846748556750937
-0.06462195773251911
-0.0707764298975011
-0.06462195773251911
0.033849596907498114
0.35388214948756086
-0.15078456804251686
-0.0707764298975011
1.677093664962742
0.033849596907498114
-0.13232115154751534
-0.09539431855751236
-0.10770326288750408
-0.6554512855725947
-1.7386383866127564
-0.6739147020675963
-0.2984919000025288
-0.18771140103251985
-0.14463009587750708
-0.15693904020752658
-0.2000203453625393
-0.10770326288750408
-0.13232115154751534
-0.13232115154751534
-0.11385773505251384
-0.12001220721752358
-0.15693904020752658
-0.1384756237125251
-0.1384756237125251
-0.09539431855751236
-0.1938658731975296
-0.17540245670252808
-0.12001220721752358
-0.08308537422752059
0.3723455659825625
0.26771953917753555
-0.05846748556750937
-0.12001220721752358
-0.1692479845375183
-0.16309351237253633
-0.15693904020752658
-0.15078456804251686
-0.17540245670252808
-0.16309351237253633
-0.17540245670252808
-0.06462195773251911
-0.1261666793825056
-0.1384756237125251
-0.13232115154751534
-0.6862236463975879
-0.6862236463975879
-0.2984919000025288
-0.2431016505175243
-0.1384756237125251
-0.2369471783525424
-0.2431016505175243
-0.2369471783525424
-0.2184837618575408
-0.2431016505175243
-0.2246382340225228
-0.18155692886753785
-0.10770326288750408
-0.16309351237253633
-0.1015487907225221
-0.05846748556750937
-0.11385773505251384
-0.10770326288750408
-0.07693090206251085
-0.09539431855751236
-0.05231301340249961
-0.09539431855751236
0.32310978866254003
-0.08923984639250257
-0.4831260649525715
-0.1938658731975296
-0.15693904020752658
-0.17540245670252808
-0.09539431855751236
-0.1938658731975296
-0.11385773505251384
-0.1938658731975296
-0.18771140103251985
-0.1938658731975296
-0.2000203453625393
-0.1938658731975296
-0.1692479845375183
-0.2431016505175243
-0.1938658731975296
-0.1938658731975296
-0.2061748175275213
-0.2184837618575408
-0.2246382340225228
-0.21232928969253104
-0.1692479845375183
-0.2800284835075273
-0.2738740113425453
-0.2000203453625393
-0.18771140103251985
-0.1692479845375183
-0.1384756237125251
-0.13232115154751534
-0.09539431855751236
-0.1384756237125251
-0.13232115154751534
-0.08308537422752059
-0.08923984639250257
-0.08308537422752059
-0.04000406907250786
-0.10770326288750408
-0.02154065257750637
-0.09539431855751236
-0.12001220721752358
-0.13232115154751534
-0.13232115154751534
-0.13232115154751534
-0.13232115154751534
-0.10770326288750408
-0.0707764298975011
-0.1261666793825056
-0.1015487907225221
-0.1015487907225221
-0.08923984639250257
-0.05846748556750937
-0.0707764298975011
-0.12001220721752358
-0.05846748556750937
-0.09539431855751236
-0.05846748556750937
-0.07693090206251085
0.30464637216753854
1.400142417537692
0.45850817629256013
0.08923984639250257
-1.0924188092876486
-1.3016708628976748
-0.3292642608275498
-0.11385773505251384
-0.06462195773251911
-0.0707764298975011
-0.09539431855751236
-0.12001220721752358
-0.02154065257750637
-0.13232115154751534
-0.1384756237125251
-0.0707764298975011
-0.08308537422752059
-0.0707764298975011
-0.0707764298975011
-0.07693090206251085
-0.07693090206251085
-0.10770326288750408
-0.1015487907225221
-0.1015487907225221
-0.05231301340249961
-0.02769512474251612
-0.24925612268253405
-0.12001220721752358
-0.04615854123751762
-0.18771140103251985
-0.11385773505251384
-0.08308537422752059
-0.05846748556750937
-0.06462195773251911
-0.04615854123751762
-0.003077236082504875
0.04000406907250786
-0.08923984639250257
-0.10770326288750408
-0.08923984639250257
-0.13232115154751534
-0.1692479845375183
-0.13232115154751534
-0.09539431855751236
-0.05231301340249961
-0.1261666793825056
-0.08923984639250257
-0.09539431855751236
-0.09539431855751236
-0.08308537422752059
-0.10770326288750408
-0.10770326288750408
-0.08923984639250257
-0.23079270618753256
-0.1692479845375183
-0.15693904020752658
-0.2369471783525424
-0.2000203453625393
-0.1938658731975296
-0.15693904020752658
-0.10770326288750408
-0.1692479845375183
-0.15693904020752658
-0.08308537422752059
0.31695531649755804
-0.12001220721752358
-0.4708171206225797
-0.15078456804251686
-0.033849596907498114
-0.1015487907225221
-0.05231301340249961
-0.18771140103251985
-0.1261666793825056
-0.07693090206251085
-0.10770326288750408
-0.09539431855751236
-0.10770326288750408
-0.18155692886753785
-0.17540245670252808
-0.16309351237253633
-0.15693904020752658
-0.2061748175275213
-0.21232928969253104
-0.17540245670252808
-0.1384756237125251
-0.15693904020752658
-0.29233742783754685
-0.15078456804251686
-0.15078456804251686
-0.15078456804251686
-0.1261666793825056
-0.13232115154751534
-0.14463009587750708
-0.2000203453625393
-0.15078456804251686
-0.1015487907225221
-0.11385773505251384
-0.11385773505251384
-0.11385773505251384
-0.07693090206251085
-0.0707764298975011
-0.23079270618753256
-0.14463009587750708
-0.12001220721752358
-0.11385773505251384
-0.1261666793825056
-0.1015487907225221
-0.08923984639250257
-0.09539431855751236
-0.13232115154751534
-0.07693090206251085
-0.12001220721752358
-0.11385773505251384
-0.08923984639250257
-0.0707764298975011
-0.02769512474251612
-0.1015487907225221
-0.18771140103251985
-0.1692479845375183
-0.18155692886753785
-0.15693904020752658
-0.18771140103251985
0.23079270618753256
1.4924595000126994
-1.5540042216627135
-0.9077846443376336
-0.32310978866254003
-0.2246382340225228
-0.15693904020752658
-0.10770326288750408
-0.15078456804251686
-0.13232115154751534
-0.1261666793825056
-0.18771140103251985
-0.15078456804251686
-0.14463009587750708
-0.12001220721752358
-0.1015487907225221
-0.10770326288750408
-0.07693090206251085
-0.0707764298975011
-0.09539431855751236
-0.08308537422752059
-0.05846748556750937
-0.04615854123751762
-0.0707764298975011
-0.10770326288750408
0.18155692886753785
1.830955469087764
0.7723862567076134
-0.3108008443325483
-0.29233742783754685
-0.10770326288750408
-0.10770326288750408
-0.10770326288750408
-0.42158134330255725
-1.6340123598077294
-0.7846952010376053
-0.2554105948475438
-0.1384756237125251
-0.18771140103251985
-0.2800284835075273
-0.18771140103251985
-0.1938658731975296
-0.16309351237253633
-0.11385773505251384
-0.13232115154751534
-0.13232115154751534
-0.14463009587750708
-0.13232115154751534
-0.11385773505251384
-0.15078456804251686
-0.05846748556750937
-0.02154065257750637
-0.07693090206251085
-0.07693090206251085
-0.0707764298975011
-0.05231301340249961
-0.08308537422752059
-0.08923984639250257
-0.04000406907250786
-0.0707764298975011
-0.0707764298975011
-0.0707764298975011
-0.10770326288750408
-0.11385773505251384
-0.11385773505251384
1.1908903639276658
-0.10770326288750408
-1.11088222578265
0.009231708247514623
0.033849596907498114
-0.06462195773251911
-0.07693090206251085
-0.08923984639250257
-0.12001220721752358
-0.18771140103251985
-0.24925612268253405
-0.2061748175275213
-0.18155692886753785
-0.15078456804251686
-0.1015487907225221
-0.08308537422752059
-0.033849596907498114
-0.15078456804251686
-0.5262073701075842
-0.42158134330255725
-0.1938658731975296
-0.1692479845375183
-0.18155692886753785
-0.1692479845375183
0.2000203453625393
-0.2246382340225228
-0.5262073701075842
-0.23079270618753256
-0.17540245670252808
-0.12001220721752358
-0.10770326288750408
-0.08923984639250257
0.04000406907250786
-0.05846748556750937
-0.21232928969253104
-0.11385773505251384
-0.1261666793825056
-0.1384756237125251
-0.1261666793825056
-0.12001220721752358
-0.07693090206251085
-0.15693904020752658
-0.1692479845375183
-0.15078456804251686
-0.1261666793825056
-0.12001220721752358
-0.1384756237125251
-0.1384756237125251
-0.04615854123751762
-0.18771140103251985
-0.2431016505175243
-0.1938658731975296
-0.11385773505251384
-0.15693904020752658
-0.16309351237253633
-0.1692479845375183
-0.1261666793825056
0.2061748175275213
1.3447521680526875
0.360036621652543
-0.003077236082504875
-0.0707764298975011
-0.12001220721752358
-0.427735815467567
-1.0801098649576568
-1.6093944711477182
-0.5015894814475731
-0.2061748175275213
-0.15693904020752658
-0.14463009587750708
-0.12001220721752358
-0.10770326288750408
-0.05231301340249961
-0.15693904020752658
-0.14463009587750708
-0.1384756237125251
-0.10770326288750408
-0.02769512474251612
0.17540245670252808
-0.02154065257750637
-0.003077236082504875
-0.08308537422752059
-0.04000406907250786
-0.09539431855751236
-0.08308537422752059
-0.10770326288750408
-0.1015487907225221
-0.09539431855751236
-0.07693090206251085
-0.21232928969253104
-0.21232928969253104
-0.1938658731975296
-0.21232928969253104
-0.2800284835075273
-0.3723455659825625
-0.34772767732255133
-0.28618295567253704
-0.34772767732255133
-0.35388214948756086
-0.29233742783754685
-0.2800284835075273
-0.26771953917753555
-0.2369471783525424
-0.17540245670252808
-0.09539431855751236
-0.2061748175275213
-0.12001220721752358
-0.04000406907250786
-0.1384756237125251
-0.21232928969253104
-0.1015487907225221
-0.08923984639250257
-0.0707764298975011
-0.10770326288750408
-0.05846748556750937
-0.07693090206251085
-0.08308537422752059
-0.07693090206251085
-0.07693090206251085
-0.08923984639250257
-0.003077236082504875
0.30464637216753854
-0.1261666793825056
-0.45850817629256013
-0.26156506701252585
-0.17540245670252808
-0.1692479845375183
-0.15693904020752658
-0.1015487907225221
-0.21232928969253104
-0.18771140103251985
-0.18771140103251985
-0.15078456804251686
-0.14463009587750708
-0.15693904020752658
-0.15078456804251686
-0.04615854123751762
-0.09539431855751236
0.3292642608275498
0.08308537422752059
-0.07693090206251085
-0.08308537422752059
-0.11385773505251384
-0.12001220721752358
0.009231708247514623
-0.09539431855751236
-0.10770326288750408
-0.09539431855751236
-0.033849596907498114
-0.0707764298975011
-0.07693090206251085
-0.009231708247514623
-0.06462195773251911
-0.6800691742326057
-0.3846545103125543
-0.14463009587750708
-0.10770326288750408
-0.09539431855751236
-0.10770326288750408
-0.10770326288750408
-0.07693090206251085
-0.1261666793825056
-0.1015487907225221
-0.09539431855751236
-0.11385773505251384
-0.13232115154751534
-0.12001220721752358
-0.003077236082504875
0.5138984257775646
-0.01538618041249662
-0.13232115154751534
-0.12001220721752358
-0.07693090206251085
-0.08923984639250257
-0.033849596907498114
-0.009231708247514623
0.01538618041249662
-0.08923984639250257
-0.07693090206251085
0.3723455659825625
1.849418885582765
0.14463009587750708
-0.21232928969253104
-0.8770122835126126
-1.7263294422827367
-1.2278171969176688
-0.35388214948756086
-0.18771140103251985
-0.16309351237253633
-0.12001220721752358
-0.13232115154751534
-0.11385773505251384
-0.08923984639250257
-0.24925612268253405
-0.18771140103251985
-0.15693904020752658
-0.1261666793825056
-0.1015487907225221
-0.18155692886753785
-0.21232928969253104
-0.1015487907225221
-0.1938658731975296
-0.1384756237125251
-0.1384756237125251
-0.14463009587750708
-0.15078456804251686
-0.15693904020752658
-0.14463009587750708
-0.1384756237125251
-0.2246382340225228
-0.18155692886753785
-0.1692479845375183
-0.15078456804251686
-0.1015487907225221
-0.15078456804251686
-0.15078456804251686
-0.14463009587750708
-0.2000203453625393
-0.16309351237253633
-0.15693904020752658
-0.16309351237253633
-0.1384756237125251
-0.11385773505251384
-0.1015487907225221
-0.13232115154751534
-0.15078456804251686
-0.10770326288750408
-0.1015487907225221
-0.26156506701252585
-0.1938658731975296
-0.14463009587750708
-0.07693090206251085
-0.0707764298975011
-0.1261666793825056
-0.08308537422752059
-0.06462195773251911
-0.05231301340249961
-0.04615854123751762
-0.0707764298975011
-0.033849596907498114
-0.04000406907250786
-0.08308537422752059
0.05231301340249961
0.6000610360875902
-0.05231301340249961
-0.427735815467567
-0.17540245670252808
-0.13232115154751534
-0.1692479845375183
-0.24925612268253405
-0.18155692886753785
-0.18155692886753785
-0.18771140103251985
-0.18771140103251985
-0.18771140103251985
-0.15078456804251686
-0.1261666793825056
-0.13232115154751534
-0.0707764298975011
-0.06462195773251911
-0.04615854123751762
-0.04615854123751762
-0.05846748556750937
-0.033849596907498114
-0.06462195773251911
-0.07693090206251085
-0.08308537422752059
-0.08308537422752059
-0.11385773505251384
-0.1015487907225221
-0.08308537422752059
-0.10770326288750408
-0.18771140103251985
-0.4831260649525715
-0.28618295567253704
-0.15693904020752658
-0.1384756237125251
-0.10770326288750408
-0.11385773505251384
0.1384756237125251
1.7324839144477464
0.3108008443325483
-0.0707764298975011
-0.08308537422752059
-0.1015487907225221
-0.1015487907225221
-0.09539431855751236
-0.433890287632549
-1.683248137127724
-0.7662317845426038
-0.23079270618753256
-0.15693904020752658
-0.08923984639250257
-0.1015487907225221
-0.10770326288750408
-0.13232115154751534
-0.0707764298975011
-0.05231301340249961
-0.06462195773251911
-0.05846748556750937
-0.08308537422752059
0.3846545103125543
1.91096360723278
-0.390808982477564
-1.6709391927977324
-0.6369878690775933
-0.2431016505175243
-0.10770326288750408
-0.1015487907225221
-0.1261666793825056
-0.14463009587750708
-0.08923984639250257
-0.1384756237125251
-0.15693904020752658
-0.1384756237125251
-0.15078456804251686
-0.1384756237125251
-0.10770326288750408
-0.33541873299255964
-0.2431016505175243
-0.1261666793825056
-0.1261666793825056
-0.1261666793825056
-0.15078456804251686
-0.16309351237253633
-0.15693904020752658
-0.1384756237125251
-0.1261666793825056
-0.1261666793825056
-0.0707764298975011
-0.07693090206251085
-0.06462195773251911
0.12001220721752358
0.4523537041275505
0.0707764298975011
0.05231301340249961
-0.07693090206251085
-0.1261666793825056
-0.09539431855751236
-0.11385773505251384
-0.13232115154751534
-0.11385773505251384
-0.08923984639250257
-0.05846748556750937
-0.1015487907225221
-0.09539431855751236
-0.04000406907250786
-0.1384756237125251
-0.3723455659825625
-0.23079270618753256
-0.14463009587750708
-0.09539431855751236
-0.1384756237125251
-0.11385773505251384
-0.09539431855751236
-0.08923984639250257
-0.09539431855751236
-0.08923984639250257
-0.08308537422752059
-0.02154065257750637
-0.08308537422752059
-0.08923984639250257
-0.033849596907498114
0.08923984639250257
-0.06462195773251911
0.28618295567253704
-0.16309351237253633
-0.45850817629256013
-0.28618295567253704
-0.17540245670252808
-0.15078456804251686
-0.2061748175275213
-0.2061748175275213
-0.17540245670252808
-0.18771140103251985
-0.1261666793825056
-0.17540245670252808
-0.2369471783525424
-0.427735815467567
-0.3108008443325483
-0.2061748175275213
-0.18771140103251985
-0.15693904020752658
-0.10770326288750408
-0.17540245670252808
-0.1384756237125251
-0.12001220721752358
-0.1015487907225221
-0.06462195773251911
-0.05846748556750937
-0.06462195773251911
-0.009231708247514623
0.003077236082504875
0.08308537422752059
-0.02769512474251612
-0.009231708247514623
-0.033849596907498114
-0.0707764298975011
-0.05231301340249961
-0.02154065257750637
-0.10770326288750408
-0.13232115154751534
-0.1384756237125251
-0.16309351237253633
-0.18771140103251985
-0.2000203453625393
-0.18155692886753785
-0.06462195773251911
-0.009231708247514623
-0.18155692886753785
-0.2369471783525424
-0.2184837618575408
-0.2061748175275213
-0.2061748175275213
-0.1938658731975296
-0.15693904020752658
-0.14463009587750708
-0.08923984639250257
-0.08923984639250257
-0.07693090206251085
-0.06462195773251911
-0.02769512474251612
-0.08308537422752059
0.2061748175275213
1.6586302484677409
0.0707764298975011
-0.02154065257750637
-0.05231301340249961
-0.08923984639250257
-0.06462195773251911
-0.08923984639250257
-1.1293456422776516
-1.3447521680526875
-0.36619109381755277
-0.17540245670252808
-0.11385773505251384
-0.09539431855751236
-0.1384756237125251
-0.21232928969253104
-0.09539431855751236
-0.18155692886753785
-0.15078456804251686
-0.12001220721752358
-0.14463009587750708
-0.12001220721752358
-0.13232115154751534
-0.09539431855751236
-0.02154065257750637
-0.13232115154751534
-0.08308537422752059
-0.05846748556750937
-0.033849596907498114
-0.06462195773251911
-0.2246382340225228
-0.12001220721752358
-0.05846748556750937
-0.15693904020752658
-0.1015487907225221
-0.08308537422752059
-0.10770326288750408
-0.11385773505251384
-0.1015487907225221
-0.08308537422752059
-0.009231708247514623
-0.1015487907225221
-0.08923984639250257
-0.05231301340249961
0.003077236082504875
-0.07693090206251085
-0.09539431855751236
-0.08308537422752059
-0.05846748556750937
-0.15078456804251686
-0.13232115154751534
-0.13232115154751534
-0.11385773505251384
-0.0707764298975011
-0.06462195773251911
-0.06462195773251911
-0.05846748556750937
-0.17540245670252808
-0.15078456804251686
-0.16309351237253633
-0.26156506701252585
-0.2061748175275213
-0.18155692886753785
-0.12001220721752358
0.2800284835075273
-0.2061748175275213
-0.44619923196256844
-0.18771140103251985
-0.14463009587750708
-0.11385773505251384
-0.11385773505251384
-0.08308537422752059
-0.07693090206251085
-0.15078456804251686
-0.06462195773251911
-0.09539431855751236
-0.1261666793825056
-0.09539431855751236
-0.1015487907225221
-0.05231301340249961
-0.033849596907498114
-0.08923984639250257
-0.1015487907225221
-0.1261666793825056
-0.12001220721752358
-0.1384756237125251
-0.11385773505251384
-0.09539431855751236
-0.04615854123751762
-0.10770326288750408
-0.18155692886753785
-0.15078456804251686
-0.08923984639250257
-0.0707764298975011
-0.033849596907498114
-0.08308537422752059
-0.14463009587750708
-0.2369471783525424
-0.1692479845375183
-0.16309351237253633
-0.18155692886753785
-0.18771140103251985
-0.2000203453625393
-0.18155692886753785
-0.0707764298975011
-0.003077236082504875
-0.14463009587750708
-0.16309351237253633
-0.12001220721752358
-0.18155692886753785
-0.18771140103251985
-0.10770326288750408
-0.06462195773251911
-0.18771140103251985
-0.15078456804251686
-0.1261666793825056
-0.1261666793825056
-0.12001220721752358
-0.07693090206251085
-0.15693904020752658
-0.360036621652543
-0.2184837618575408
0.24925612268253405
1.2647440299076718
0.33541873299255964
0.05231301340249961
-0.04615854123751762
-0.2984919000025288
-1.5847765824877347
-0.8831667556776225
-0.24925612268253405
-0.16309351237253633
-0.16309351237253633
-0.13232115154751534
-0.05846748556750937
0.04000406907250786
-0.1692479845375183
-0.23079270618753256
-0.18771140103251985
-0.21232928969253104
-0.11385773505251384
-0.1261666793825056
-0.1384756237125251
-0.15078456804251686
-0.1692479845375183
-0.2000203453625393
-0.15693904020752658
-0.18771140103251985
-0.16309351237253633
-0.1938658731975296
-0.3415732051575415
-0.1384756237125251
-0.17540245670252808
-0.1261666793825056
-0.08308537422752059
-0.0707764298975011
-0.10770326288750408
-0.1261666793825056
-0.1384756237125251
-0.13232115154751534
-0.12001220721752358
-0.13232115154751534
-0.1261666793825056
-0.1015487907225221
-0.1015487907225221
-0.2184837618575408
-0.1692479845375183
-0.13232115154751534
-0.14463009587750708
-0.1692479845375183
-0.16309351237253633
-0.1384756237125251
-0.1384756237125251
-0.1384756237125251
-0.1261666793825056
0.0707764298975011
1.3385976958876775
1.0062561989776508
-0.18771140103251985
-0.2000203453625393
-0.1384756237125251
-0.15693904020752658
-0.1015487907225221
-0.433890287632549
-1.6401668319727392
-0.7046870628925892
-0.2000203453625393
-0.13232115154751534
-0.1015487907225221
-0.12001220721752358
-0.10770326288750408
1.0801098649576568
-0.09539431855751236
-1.0062561989776508
-0.11385773505251384
-0.1261666793825056
-0.15078456804251686
-0.09539431855751236
-0.1015487907225221
-0.09539431855751236
-0.1261666793825056
-0.10770326288750408
-0.1261666793825056
-0.1261666793825056
-0.15078456804251686
-0.13232115154751534
-0.1015487907225221
-0.09539431855751236
-0.12001220721752358
-0.15078456804251686
-0.18771140103251985
-0.09539431855751236
-0.1015487907225221
-0.07693090206251085
-0.04615854123751762
0.003077236082504875
-0.1015487907225221
-0.16309351237253633
-0.12001220721752358
-0.11385773505251384
-0.1261666793825056
-0.11385773505251384
-0.1015487907225221
-0.05846748556750937
-0.02769512474251612
-0.15693904020752658
-0.16309351237253633
-0.10770326288750408
-0.12001220721752358
-0.1384756237125251
-0.13232115154751534
-0.12001220721752358
-0.1692479845375183
-0.15078456804251686
-0.13232115154751534
-0.1261666793825056
-0.15693904020752658
-0.11385773505251384
-0.05846748556750937
0.49543500928256323
0.1384756237125251
-0.4708171206225797
-0.2369471783525424
-0.1692479845375183
0.2369471783525424
1.3324432237226955
0.427735815467567
-0.6000610360875902
-1.5724676381577152
-0.45850817629256013
-0.16309351237253633
-0.1384756237125251
-0.08923984639250257
-0.10770326288750408
-0.3292642608275498
-0.396963454642546
-0.3108008443325483
-0.2800284835075273
-0.2431016505175243
-0.2246382340225228
-0.21232928969253104
-0.2061748175275213
-0.18155692886753785
-0.1384756237125251
-0.2184837618575408
-0.17540245670252808
-0.16309351237253633
-0.1261666793825056
-0.08923984639250257
0.24925612268253405
0.5200528979425745
0.13232115154751534
-0.08308537422752059
-0.08308537422752059
-0.08923984639250257
-0.08308537422752059
-0.05231301340249961
-0.06462195773251911
-0.06462195773251911
0.02154065257750637
-0.18155692886753785
-0.15078456804251686
-0.08923984639250257
-0.10770326288750408
-0.5446707866025856
-0.7908496732026148
-0.32310978866254003
-0.18155692886753785
-0.26771953917753555
-0.21232928969253104
-0.18771140103251985
-0.17540245670252808
-0.15693904020752658
-0.17540245670252808
-0.18155692886753785
-0.16309351237253633
-0.2369471783525424
-0.2061748175275213
-0.18771140103251985
-0.15078456804251686
-0.1938658731975296
-0.2184837618575408
-0.1938658731975296
-0.13232115154751534
-0.18155692886753785
-0.14463009587750708
-0.1384756237125251
-0.13232115154751534
0.28618295567253704
-0.15078456804251686
-0.47697159278756174
-0.1692479845375183
-0.2000203453625393
-0.15078456804251686
-0.11385773505251384
-0.1384756237125251
-0.15693904020752658
-0.17540245670252808
-0.1692479845375183
-0.08923984639250257
-0.2554105948475438
-0.21232928969253104
-0.18155692886753785
-0.18155692886753785
-0.1938658731975296
-0.17540245670252808
-0.15078456804251686
-0.08308537422752059
-0.1015487907225221
-0.04000406907250786
-0.2184837618575408
-0.16309351237253633
-0.1015487907225221
-0.08308537422752059
-0.0707764298975011
-0.04000406907250786
-0.17540245670252808
-0.12001220721752358
-0.10770326288750408
-0.11385773505251384
-0.1261666793825056
-0.1384756237125251
-0.11385773505251384
-0.04000406907250786
-0.2738740113425453
-0.4400447597975588
-0.2246382340225228
-0.17540245670252808
-0.10770326288750408
-0.11385773505251384
-0.04615854123751762
0.01538618041249662
-0.17540245670252808
-0.13232115154751534
-0.1015487907225221
-0.12001220721752358
-0.15693904020752658
-0.14463009587750708
-0.11385773505251384
0.02769512474251612
-0.04000406907250786
-0.15078456804251686
-0.16309351237253633
-0.1692479845375183
-0.1692479845375183
-0.15693904020752658
0.17540245670252808
1.3078253350626845
0.49543500928256323
0.08923984639250257
0.009231708247514623
0.01538618041249662
-0.02769512474251612
-0.04000406907250786
-0.01538618041249662
-1.504768444342719
-1.2093537804226673
-0.3108008443325483
-0.14463009587750708
-0.13232115154751534
-0.14463009587750708
-0.1261666793825056
-0.07693090206251085
-0.06462195773251911
-0.1692479845375183
-0.14463009587750708
-0.1692479845375183
-0.13232115154751534
-0.1384756237125251
-0.1384756237125251
-0.1938658731975296
-0.18155692886753785
-0.2184837618575408
-0.15078456804251686
-0.13232115154751534
-0.1015487907225221
-0.2061748175275213
-0.10770326288750408
-0.033849596907498114
-0.1015487907225221
-0.15078456804251686
-0.08923984639250257
-0.08923984639250257
-0.08308537422752059
-0.0707764298975011
-0.1384756237125251
-0.11385773505251384
-0.05231301340249961
-0.2000203453625393
-0.14463009587750708
-0.14463009587750708
-0.16309351237253633
-0.15078456804251686
-0.1384756237125251
-0.08308537422752059
-0.13232115154751534
-0.2554105948475438
-0.1692479845375183
-0.15693904020752658
-0.1938658731975296
-0.2246382340225228
-0.1692479845375183
-0.15078456804251686
-0.1261666793825056
-0.2000203453625393
-0.13232115154751534
-0.1384756237125251
-0.14463009587750708
-0.1015487907225221
-0.04615854123751762
0.34772767732255133
-0.09539431855751236
-0.44619923196256844
-0.13232115154751534
-0.033849596907498114
-0.18771140103251985
-0.1692479845375183
-0.1261666793825056
-0.08923984639250257
-0.12001220721752358
-0.1015487907225221
-0.0707764298975011
-0.08308537422752059
-0.13232115154751534
-0.09539431855751236
-0.1015487907225221
-0.0707764298975011
-0.04000406907250786
-0.05231301340249961
-0.1015487907225221
-0.14463009587750708
-0.12001220721752358
-0.1015487907225221
-0.15693904020752658
-0.11385773505251384
-0.12001220721752358
-0.26771953917753555
-0.23079270618753256
-0.2431016505175243
-0.2431016505175243
-0.23079270618753256
-0.2184837618575408
-0.15693904020752658
-0.16309351237253633
-0.18155692886753785
-0.1692479845375183
-0.14463009587750708
-0.1015487907225221
-0.10770326288750408
-0.08923984639250257
-0.07693090206251085
-0.07693090206251085
-0.12001220721752358
-0.08923984639250257
-0.09539431855751236
-0.08308537422752059
-0.09539431855751236
-0.08308537422752059
-0.10770326288750408
-0.04000406907250786
-0.05846748556750937
-0.1015487907225221
-0.1384756237125251
-0.1261666793825056
-0.10770326288750408
-0.08308537422752059
-0.15693904020752658
-0.13232115154751534
0.31695531649755804
1.7878741639327511
0.07693090206251085
-0.1015487907225221
-0.09539431855751236
-0.07693090206251085
-0.16309351237253633
0.15078456804251686
0.009231708247514623
-0.5015894814475731
-0.35388214948756086
-0.1692479845375183
-0.1384756237125251
-0.1015487907225221
-0.0707764298975011
-1.6586302484677409
-1.0124106711426328
-0.2431016505175243
-0.1015487907225221
-0.08308537422752059
-0.033849596907498114
-0.01538618041249662
-0.13232115154751534
-0.1261666793825056
-0.11385773505251384
-0.05846748556750937
-0.10770326288750408
-0.18771140103251985
-0.16309351237253633
-0.15078456804251686
-0.08923984639250257
-0.15078456804251686
-0.1938658731975296
-0.1692479845375183
-0.2000203453625393
-0.17540245670252808
-0.08923984639250257
-0.16309351237253633
-0.09539431855751236
-0.15078456804251686
-0.16309351237253633
-0.08308537422752059
-0.07693090206251085
-0.0707764298975011
-0.1015487907225221
-0.10770326288750408
-0.08308537422752059
-0.12001220721752358
-0.1261666793825056
-0.05231301340249961
-0.02769512474251612
-0.11385773505251384
-0.2431016505175243
-0.13232115154751534
-0.02769512474251612
-0.14463009587750708
-0.18771140103251985
-0.1692479845375183
-0.2000203453625393
-0.2061748175275213
-0.2061748175275213
-0.2246382340225228
-0.15078456804251686
-0.21232928969253104
-0.1692479845375183
-0.12001220721752358
0.04000406907250786
-0.13232115154751534
-0.11385773505251384
-0.06462195773251911
0.33541873299255964
-0.1384756237125251
-0.4892805371175811
-0.18155692886753785
-0.11385773505251384
-0.12001220721752358
-0.07693090206251085
-0.08923984639250257
-0.01538618041249662
-0.1384756237125251
-0.10770326288750408
-0.0707764298975011
-0.2246382340225228
-0.1938658731975296
-0.1692479845375183
-0.17540245670252808
-0.1384756237125251
-0.2000203453625393
-0.18771140103251985
-0.16309351237253633
-0.1938658731975296
-0.17540245670252808
-0.15078456804251686
-0.1384756237125251
-0.1015487907225221
-0.15078456804251686
-0.003077236082504875
-0.2246382340225228
-0.17540245670252808
-0.16309351237253633
-0.18155692886753785
-0.14463009587750708
-0.08308537422752059
-0.23079270618753256
-0.17540245670252808
-0.14463009587750708
-0.13232115154751534
-0.10770326288750408
-0.07693090206251085
-0.04000406907250786
0.0707764298975011
-0.08923984639250257
-0.26156506701252585
-0.1384756237125251
-0.11385773505251384
-0.1015487907225221
-0.07693090206251085
-0.0707764298975011
-0.02154065257750637
-0.1015487907225221
-0.09539431855751236
-0.09539431855751236
0.28618295567253704
1.39398794537271
0.37850003814754446
0.02154065257750637
-0.8339309783576276
-1.25243508557768
-0.396963454642546
-0.18155692886753785
-0.1384756237125251
-0.14463009587750708
-0.16309351237253633
-0.1384756237125251
-0.05846748556750937
-0.15078456804251686
-0.13232115154751534
-0.14463009587750708
-0.1261666793825056
-0.0707764298975011
-0.08308537422752059
-0.3415732051575415
-0.3846545103125543
-0.2246382340225228
-0.1692479845375183
-0.1692479845375183
-0.18155692886753785
-0.16309351237253633
-0.15693904020752658
-0.1261666793825056
-0.10770326288750408
-0.13232115154751534
-0.08308537422752059
-0.09539431855751236
-0.08923984639250257
-0.07693090206251085
-0.01538618041249662
-0.06462195773251911
-0.08308537422752059
-0.13232115154751534
-0.15078456804251686
-0.1384756237125251
-0.1692479845375183
-0.1384756237125251
-0.14463009587750708
-0.23079270618753256
-0.04615854123751762
-0.2431016505175243
-0.17540245670252808
-0.13232115154751534
-0.13232115154751534
-0.1384756237125251
-0.17540245670252808
-0.1261666793825056
-0.0707764298975011
-0.1938658731975296
-0.12001220721752358
-0.1015487907225221
-0.08923984639250257
-0.08923984639250257
-0.07693090206251085
-0.04000406907250786
-0.003077236082504875
-0.12001220721752358
-0.0707764298975011
-0.009231708247514623
0.4154268711375475
-0.1261666793825056
-0.4400447597975588
-0.15693904020752658
-0.10770326288750408
-0.15693904020752658
-0.10770326288750408
-0.15693904020752658
-0.17540245670252808
-0.17540245670252808
-0.16309351237253633
-0.15078456804251686
-0.10770326288750408
-0.2246382340225228
-0.11385773505251384
-0.05846748556750937
-0.2800284835075273
-0.2184837618575408
-0.18771140103251985
-0.1938658731975296
-0.1692479845375183
-0.21232928969253104
-0.13232115154751534
-0.1015487907225221
-0.08923984639250257
-0.10770326288750408
-0.08308537422752059
-0.05231301340249961
-0.01538618041249662
-0.10770326288750408
-0.05231301340249961
-0.11385773505251384
-0.1261666793825056
-0.15078456804251686
-0.18771140103251985
-0.18771140103251985
-0.18771140103251985
-0.2800284835075273
-0.2246382340225228
-0.2061748175275213
-0.17540245670252808
-0.2000203453625393
-0.18771140103251985
-0.16309351237253633
-0.17540245670252808
0.2369471783525424
0.2246382340225228
-0.1261666793825056
-0.15078456804251686
-0.17540245670252808
-0.18155692886753785
-0.1384756237125251
-0.11385773505251384
-0.1692479845375183
-0.12001220721752358
-0.13232115154751534
-0.09539431855751236
-0.1015487907225221
0.33541873299255964
1.5663131659927332
-2.064825411357801
-1.6524757763027313
-0.4708171206225797
-0.26771953917753555
-0.23079270618753256
-0.2246382340225228
-0.23079270618753256
-0.2000203453625393
-0.18771140103251985
-0.21232928969253104
-0.18155692886753785
-0.1938658731975296
-0.18771140103251985
-0.16309351237253633
-0.10770326288750408
0.01538618041249662
-0.15693904020752658
-0.2184837618575408
-0.1261666793825056
-0.10770326288750408
-0.09539431855751236
-0.08923984639250257
-0.05846748556750937
-0.07693090206251085
-0.1384756237125251
-0.15078456804251686
-0.12001220721752358
-0.1015487907225221
-0.09539431855751236
-0.0707764298975011
-0.05231301340249961
-0.06462195773251911
-0.09539431855751236
-0.1692479845375183
-0.1015487907225221
-0.10770326288750408
-0.13232115154751534
-0.13232115154751534
-0.11385773505251384
-0.15078456804251686
-0.1938658731975296
-0.1692479845375183
-0.1692479845375183
-0.15693904020752658
-0.15693904020752658
-0.13232115154751534
-0.16309351237253633
-0.18771140103251985
-0.2000203453625393
-0.1692479845375183
-0.1015487907225221
-0.08923984639250257
-0.08308537422752059
-0.06462195773251911
-0.05231301340249961
-0.07693090206251085
-0.0707764298975011
-0.08308537422752059
-0.0707764298975011
-0.04615854123751762
-0.12001220721752358
-0.1692479845375183
0.30464637216753854
-0.1384756237125251
-0.433890287632549
-0.2000203453625393
-0.17540245670252808
-0.1261666793825056
-0.10770326288750408
-0.11385773505251384
-0.08923984639250257
-0.14463009587750708
-0.05846748556750937
-0.02154065257750637
-0.009231708247514623
0.04000406907250786
-0.02769512474251612
-0.02154065257750637
-0.009231708247514623
0.8462399226876194
1.7632562752727399
-0.08308537422752059
0.033849596907498114
0.0707764298975011
0.05846748556750937
0.05231301340249961
0.04615854123751762
-0.44619923196256844
-1.5478497494977315
-0.5138984257775646
-0.13232115154751534
-0.17540245670252808
-0.12001220721752358
-0.11385773505251384
-0.15693904020752658
-0.12001220721752358
-0.2061748175275213
-0.2369471783525424
-0.2000203453625393
-0.18771140103251985
-0.2000203453625393
-0.1692479845375183
-0.1692479845375183
-0.12001220721752358
-0.07693090206251085
-0.11385773505251384
-0.23079270618753256
-0.1261666793825056
-0.05231301340249961
-0.02154065257750637
-0.009231708247514623
0.01538618041249662
-0.02154065257750637
-0.003077236082504875
0.003077236082504875
-0.05846748556750937
-0.07693090206251085
-0.08923984639250257
-0.07693090206251085
0.01538618041249662
0.46466264845757
1.8124920525927626
0.21232928969253104
0.05231301340249961
0.15693904020752658
0.1938658731975296
0.18771140103251985
-0.4892805371175811
-1.3878334732077002
-0.33541873299255964
-0.06462195773251911
-0.05846748556750937
-0.10770326288750408
-0.1384756237125251
-0.10770326288750408
0.02154065257750637
-0.2738740113425453
-0.2554105948475438
-0.18771140103251985
-0.1938658731975296
-0.15078456804251686
-0.1261666793825056
-0.10770326288750408
-0.02769512474251612
-0.0707764298975011
-0.0707764298975011
-0.07693090206251085
-0.04000406907250786
-0.009231708247514623
-0.01538618041249662
-0.09539431855751236
-0.1938658731975296
-0.1938658731975296
-0.16309351237253633
-0.15078456804251686
-0.18771140103251985
-0.1692479845375183
-0.1692479845375183
-0.1938658731975296
-0.18155692886753785
-0.1938658731975296
-0.16309351237253633
-0.1692479845375183
-0.1261666793825056
-0.10770326288750408
-0.1015487907225221
-0.1261666793825056
-0.033849596907498114
-0.15693904020752658
-0.18155692886753785
-0.1692479845375183
-0.1692479845375183
-0.18771140103251985
-0.1692479845375183
-0.21232928969253104
-0.10770326288750408
-0.16309351237253633
-0.16309351237253633
-0.15693904020752658
-0.1692479845375183
-0.2800284835075273
-0.26771953917753555
-0.17540245670252808
-0.08308537422752059
0.17540245670252808
-0.1938658731975296
-0.5077439536125827
-0.1938658731975296
-0.1384756237125251
-0.13232115154751534
-0.12001220721752358
-0.09539431855751236
-0.1692479845375183
-0.1384756237125251
-0.11385773505251384
-0.09539431855751236
-0.29233742783754685
-0.2431016505175243
-0.2431016505175243
-0.2554105948475438
-0.3415732051575415
-0.32310978866254003
-0.31695531649755804
-0.29233742783754685
-0.2800284835075273
-0.2800284835075273
-0.2554105948475438
-0.2061748175275213
-0.2431016505175243
-0.2000203453625393
-0.2431016505175243
-0.2431016505175243
-0.16309351237253633
-0.1384756237125251
-0.09539431855751236
-0.05231301340249961
-0.15693904020752658
-0.11385773505251384
-0.08923984639250257
-0.1015487907225221
-0.10770326288750408
-0.1384756237125251
-0.11385773505251384
-0.11385773505251384
-0.1692479845375183
-0.14463009587750708
-0.24925612268253405
-0.17540245670252808
-0.18155692886753785
-0.14463009587750708
-0.16309351237253633
-0.15078456804251686
-0.18771140103251985
-0.14463009587750708
-0.12001220721752358
-0.11385773505251384
-0.1015487907225221
-0.1015487907225221
-0.06462195773251911
0.06462195773251911
-0.08923984639250257
-0.26771953917753555
0.2431016505175243
1.3078253350626845
0.32310978866254003
-0.01538618041249662
-0.16309351237253633
-1.363215584547689
-1.1970448360926755
-0.3108008443325483
-0.17540245670252808
-0.16309351237253633
-0.15693904020752658
-0.14463009587750708
-0.0707764298975011
0.390808982477564
0.15693904020752658
-0.07693090206251085
-0.12001220721752358
-0.08923984639250257
-0.1015487907225221
-0.1384756237125251
-0.1384756237125251
-0.11385773505251384
-0.16309351237253633
-0.14463009587750708
-0.12001220721752358
-0.13232115154751534
-0.12001220721752358
-0.1692479845375183
-0.6739147020675963
-0.4831260649525715
-0.2184837618575408
-0.15078456804251686
-0.1384756237125251
-0.15078456804251686
-0.1692479845375183
-0.18771140103251985
-0.1692479845375183
-0.18155692886753785
-0.2061748175275213
-0.14463009587750708
-0.1261666793825056
-0.13232115154751534
-0.0707764298975011
-0.1261666793825056
-0.16309351237253633
-0.09539431855751236
-0.2000203453625393
-0.1384756237125251
-0.13232115154751534
-0.15078456804251686
-0.16309351237253633
-0.1692479845375183
-0.14463009587750708
-0.12001220721752358
-0.13232115154751534
-0.09539431855751236
-0.09539431855751236
-0.08308537422752059
-0.1261666793825056
-0.16309351237253633
-0.1384756237125251
-0.18771140103251985
-0.26156506701252585
-0.18771140103251985
0.15693904020752658
-0.2984919000025288
-0.6492968134075847
-0.390808982477564
-0.33541873299255964
-0.3292642608275498
-0.35388214948756086
-0.2800284835075273
-0.2738740113425453
-0.2554105948475438
-0.29233742783754685
-0.28618295567253704
-0.2738740113425453
-0.26156506701252585
-0.30464637216753854
-0.26771953917753555
-0.2554105948475438
-0.2431016505175243
-0.2369471783525424
-0.2000203453625393
-0.17540245670252808
-0.1938658731975296
-0.2369471783525424
-0.1938658731975296
-0.2000203453625393
-0.2000203453625393
-0.18155692886753785
-0.18155692886753785
-0.10770326288750408
-0.15693904020752658
-0.13232115154751534
-0.1015487907225221
-0.0707764298975011
-0.08308537422752059
-0.06462195773251911
-0.033849596907498114
-0.06462195773251911
-0.1015487907225221
-0.11385773505251384
-0.16309351237253633
-0.1692479845375183
-0.15693904020752658
-0.16309351237253633
-0.1692479845375183
-0.17540245670252808
-0.18771140103251985
-0.2431016505175243
-0.2061748175275213
-0.23079270618753256
-0.2431016505175243
-0.26156506701252585
-0.28618295567253704
-0.33541873299255964
-0.2431016505175243
-0.1261666793825056
-0.23079270618753256
-0.2246382340225228
-0.23079270618753256
0.17540245670252808
1.2770529742376913
-0.033849596907498114
-1.5478497494977315
-0.6739147020675963
-0.2184837618575408
-0.11385773505251384
-0.12001220721752358
-0.14463009587750708
-0.05846748556750937
-0.16309351237253633
-0.35388214948756086
-0.2554105948475438
-0.18155692886753785
-0.16309351237253633
-0.17540245670252808
-0.18155692886753785
-0.2000203453625393
0.9570204216576284
-0.23079270618753256
-1.1478090587726528
-0.3292642608275498
-0.2184837618575408
-0.21232928969253104
-0.18155692886753785
-0.08923984639250257
0.2000203453625393
-0.08923984639250257
-0.2000203453625393
-0.21232928969253104
-0.2431016505175243
-0.24925612268253405
-0.2369471783525424
-0.23079270618753256
0.2000203453625393
1.7078660257877356
0.4892805371175811
-0.427735815467567
-0.31695531649755804
-0.18771140103251985
-0.24925612268253405
-0.6062155082525723
-0.9693293659876481
-1.7878741639327511
-0.7293049515526008
-0.31695531649755804
-0.2554105948475438
-0.2246382340225228
-0.26156506701252585
-0.3108008443325483
-0.31695531649755804
-0.34772767732255133
-0.35388214948756086
-0.360036621652543
-0.34772767732255133
-0.2738740113425453
-0.40311792680755576
-0.4892805371175811
-0.360036621652543
-0.390808982477564
-0.360036621652543
-0.35388214948756086
-0.2984919000025288
-0.32310978866254003
-0.3292642608275498
-0.30464637216753854
-0.4154268711375475
-0.26156506701252585
-0.24925612268253405
-0.23079270618753256
-0.12001220721752358
0.2184837618575408
-0.06462195773251911
-0.1938658731975296
-0.1384756237125251
-0.23079270618753256
-0.2000203453625393
-0.1015487907225221
-0.05231301340249961
-0.04615854123751762
-0.02154065257750637
0.01538618041249662
0.1015487907225221
-0.02769512474251612
-0.02769512474251612
-0.08923984639250257
-0.6985325907276074
-0.32310978866254003
-0.06462195773251911
-0.06462195773251911
-0.02769512474251612
-0.12001220721752358
-0.10770326288750408
-0.1015487907225221
-0.09539431855751236
-0.07693090206251085
-0.12001220721752358
-0.08308537422752059
0.29233742783754685
-0.26156506701252585
-0.40311792680755576
-0.10770326288750408
-0.2369471783525424
-0.2554105948475438
-0.2431016505175243
-0.2554105948475438
-0.3108008443325483
-0.40311792680755576
-0.390808982477564
-0.42158134330255725
-0.40927239897256545
-0.396963454642546
-0.34772767732255133
-0.3108008443325483
-0.2184837618575408
-0.18771140103251985
-0.1938658731975296
-0.2554105948475438
-0.15693904020752658
-0.14463009587750708
-0.12001220721752358
-0.1261666793825056
0.3723455659825625
1.7017115536227536
0.05846748556750937
-0.01538618041249662
0.02154065257750637
0.033849596907498114
0.05846748556750937
0.08923984639250257
-0.9200935886676254
-1.400142417537692
-0.35388214948756086
-0.06462195773251911
-0.003077236082504875
0.033849596907498114
0.05846748556750937
0.02769512474251612
0.12001220721752358
-0.05231301340249961
-0.009231708247514623
0.02154065257750637
-0.01538618041249662
-0.033849596907498114
0.02769512474251612
0.04000406907250786
-0.02769512474251612
-0.10770326288750408
-0.09539431855751236
-0.16309351237253633
-0.18155692886753785
-0.1692479845375183
-0.15693904020752658
-0.13232115154751534
-0.08923984639250257
-0.14463009587750708
-0.11385773505251384
-0.1384756237125251
-0.16309351237253633
-0.18771140103251985
-0.05231301340249961
0.3723455659825625
0.02769512474251612
-0.2800284835075273
-0.24925612268253405
-0.2184837618575408
-0.2554105948475438
-0.2554105948475438
-0.29233742783754685
-0.34772767732255133
-0.33541873299255964
-0.3846545103125543
-0.390808982477564
-0.390808982477564
-0.34772767732255133
-0.4831260649525715
-1.0308740876376343
-0.6800691742326057
-0.4400447597975588
-0.4708171206225797
-0.4400447597975588
-0.427735815467567
-0.4154268711375475
-0.360036621652543
-0.3292642608275498
-0.2000203453625393
0.26156506701252585
-0.15078456804251686
-0.4523537041275505
-0.09539431855751236
0.04000406907250786
-0.003077236082504875
-0.033849596907498114
-0.009231708247514623
0.02154065257750637
-0.07693090206251085
-0.05231301340249961
-0.02769512474251612
-0.05846748556750937
-0.08308537422752059
-0.09539431855751236
-0.11385773505251384
-0.13232115154751534
-0.30464637216753854
-0.2431016505175243
-0.18155692886753785
-0.21232928969253104
-0.2554105948475438
-0.2431016505175243
-0.18155692886753785
-0.13232115154751534
-0.1938658731975296
-0.1384756237125251
-0.1384756237125251
-0.12001220721752358
-0.15078456804251686
-0.17540245670252808
-0.15693904020752658
-0.18155692886753785
-0.2369471783525424
-0.18771140103251985
-0.2061748175275213
-0.2984919000025288
-0.2738740113425453
-0.2431016505175243
-0.2246382340225228
-0.2184837618575408
-0.2554105948475438
-0.18771140103251985
-0.23079270618753256
-0.2369471783525424
-0.2554105948475438
-0.26156506701252585
-0.2738740113425453
-0.26771953917753555
-0.26156506701252585
-0.08923984639250257
-0.26156506701252585
-0.26771953917753555
-0.26156506701252585
-0.2369471783525424
-0.18771140103251985
-0.17540245670252808
-0.24925612268253405
0.23079270618753256
1.677093664962742
-0.033849596907498114
-0.16309351237253633
-0.15078456804251686
-0.35388214948756086
-1.7694107474377496
-1.3816790010426905
-0.538516314437576
-0.2984919000025288
-0.26156506701252585
-0.2369471783525424
-0.2554105948475438
-0.2738740113425453
-0.29233742783754685
-0.33541873299255964
-0.36619109381755277
-0.36619109381755277
-0.390808982477564
-0.396963454642546
-0.37850003814754446
-0.24925612268253405
-0.09539431855751236
-0.2800284835075273
-0.23079270618753256
-0.14463009587750708
-0.13232115154751534
-0.13232115154751534
-0.12001220721752358
-0.1384756237125251
-0.14463009587750708
-0.23079270618753256
-0.21232928969253104
-0.2061748175275213
-0.2184837618575408
-0.1938658731975296
-0.2800284835075273
-0.42158134330255725
-0.23079270618753256
-0.2000203453625393
-0.1261666793825056
-0.10770326288750408
-0.11385773505251384
-0.11385773505251384
-0.14463009587750708
-0.09539431855751236
-0.1015487907225221
-0.12001220721752358
-0.09539431855751236
-0.07693090206251085
-0.009231708247514623
0.04000406907250786
-0.033849596907498114
-0.01538618041249662
0.033849596907498114
0.02154065257750637
-0.04615854123751762
-0.1015487907225221
-0.08923984639250257
-0.11385773505251384
-0.10770326288750408
-0.1384756237125251
-0.1015487907225221
-0.01538618041249662
0.34772767732255133
-0.04615854123751762
-0.31695531649755804
-0.10770326288750408
-0.07693090206251085
-0.0707764298975011
-0.01538618041249662
-0.01538618041249662
-0.01538618041249662
0.033849596907498114
0.04000406907250786
0.003077236082504875
0.003077236082504875
