-2.446402685587851
-2.729508405177883
-2.3971669082678284
-2.3540856031128428
-2.409475852597848
-2.3848579639378364
-2.3417766587828237
-2.347931130947833
-2.3971669082678284
-2.3540856031128428
-1.8801912464077586
-1.966353856717784
-2.544874240227868
-2.403321380432838
-2.335622186617841
-2.2433051041428067
-2.347931130947833
-2.3540856031128428
-2.3663945474428347
-2.323313242287821
-2.3417766587828237
-2.3540856031128428
-2.323313242287821
-2.2186872154828228
-2.372549019607845
-2.323313242287821
-2.4525571577528327
-2.360240075277825
-2.3110042979578305
-2.403321380432838
-2.3848579639378364
-2.378703491772827
-2.372549019607845
-2.360240075277825
-2.372549019607845
-2.360240075277825
-2.360240075277825
-2.378703491772827
-2.329467714452832
-2.3417766587828237
-2.526410823732866
-2.4217847969278394
-2.409475852597848
-2.3971669082678284
-2.360240075277825
-2.347931130947833
-2.347931130947833
-2.3663945474428347
-2.360240075277825
-2.3663945474428347
-2.3848579639378364
-2.347931130947833
-2.3110042979578305
-2.1694514381628007
-2.3848579639378364
-2.378703491772827
-2.329467714452832
-2.329467714452832
-2.323313242287821
-2.3417766587828237
-2.372549019607845
-2.3540856031128428
-2.391012436102846
-2.3110042979578305
-2.3110042979578305
-2.3110042979578305
-2.2925408814628288
-2.304849825792821
-2.114061188677796
-0.8831667556776225
-2.754126293837894
-3.535744258793022
-2.6433457948678853
-2.378703491772827
-2.372549019607845
-2.347931130947833
-2.3110042979578305
-2.3110042979578305
-2.261768520637808
-2.4156303247628297
-2.3417766587828237
-2.2063782711528033
-2.378703491772827
-2.3417766587828237
-2.403321380432838
-2.2679229928028177
-2.212532743317813
-2.372549019607845
-2.3663945474428347
-2.329467714452832
-2.298695353627811
-2.3110042979578305
-2.323313242287821
-2.3171587701228398
-2.2802319371328093
-2.3110042979578305
-2.378703491772827
-2.3663945474428347
-2.3417766587828237
-2.3110042979578305
-2.329467714452832
-2.3110042979578305
-2.323313242287821
-2.3540856031128428
-2.3171587701228398
-2.286386409297819
-2.286386409297819
-2.3110042979578305
-2.3171587701228398
-2.286386409297819
-2.378703491772827
-2.471020574247862
-2.372549019607845
-2.378703491772827
-2.372549019607845
-2.360240075277825
-2.360240075277825
-2.3663945474428347
-2.378703491772827
-2.4217847969278394
-2.378703491772827
-2.347931130947833
-2.286386409297819
-2.200223798987821
-2.1632969659978185
-2.403321380432838
-2.304849825792821
-2.3171587701228398
-2.360240075277825
-2.372549019607845
-2.4587116299178424
-2.409475852597848
-2.009435161872797
-2.347931130947833
-2.7171994608478913
-2.471020574247862
-2.323313242287821
-2.329467714452832
-2.298695353627811
-2.446402685587851
-2.3417766587828237
-2.2740774649678275
-2.3663945474428347
-2.360240075277825
-2.3171587701228398
-2.335622186617841
-2.3540856031128428
-2.360240075277825
-2.298695353627811
-2.255614048472826
-2.3848579639378364
-2.329467714452832
-2.304849825792821
-2.3971669082678284
-2.372549019607845
-2.360240075277825
-2.329467714452832
-2.323313242287821
-2.378703491772827
-2.360240075277825
-2.378703491772827
-2.3540856031128428
-2.3971669082678284
-2.3540856031128428
-2.329467714452832
-2.323313242287821
-1.855573357747775
-1.615548943312728
-2.187914854657802
-2.3110042979578305
-2.3417766587828237
-2.3540856031128428
-2.323313242287821
-2.335622186617841
-2.3971669082678284
-2.372549019607845
-2.3540856031128428
-2.3540856031128428
-2.347931130947833
-2.360240075277825
-2.704890516517872
-3.092622262912931
-2.6064189618778553
-2.4156303247628297
-2.360240075277825
-2.3417766587828237
-2.3417766587828237
-2.347931130947833
-2.335622186617841
-2.2802319371328093
-1.972508328882766
-1.2462806134126705
-1.9417359680577726
-2.187914854657802
-2.052516467027782
-1.7017115536227536
-2.612573434042864
-3.5665166196180156
-2.6433457948678853
-2.3971669082678284
-2.3663945474428347
-2.3417766587828237
-2.335622186617841
-2.378703491772827
-2.298695353627811
-2.4156303247628297
-2.372549019607845
-2.347931130947833
-2.446402685587851
-2.9879962361079313
-2.6371913227028756
-2.4217847969278394
-2.298695353627811
-2.4525571577528327
-2.4217847969278394
-2.372549019607845
-2.3540856031128428
-2.378703491772827
-2.3848579639378364
-2.323313242287821
-2.286386409297819
-2.4217847969278394
-2.3417766587828237
-2.3171587701228398
-2.483329518577854
-2.4156303247628297
-2.3971669082678284
-2.329467714452832
-2.304849825792821
-2.4587116299178424
-2.403321380432838
-2.3540856031128428
-2.3540856031128428
-2.360240075277825
-2.347931130947833
-2.3417766587828237
-2.304849825792821
-2.304849825792821
-2.4894839907428636
-2.3663945474428347
-2.329467714452832
-2.3171587701228398
-2.360240075277825
-2.372549019607845
-2.347931130947833
-2.347931130947833
-2.3663945474428347
-2.3663945474428347
-2.360240075277825
-2.329467714452832
-2.3171587701228398
-2.0586709391927913
-0.7662317845426038
-1.8124920525927626
-2.618727906207874
-2.477175046412844
-2.335622186617841
-2.3110042979578305
-2.3417766587828237
-2.7848986546628876
-3.5911345082780266
-2.6925815721878803
-2.4279392690928487
-2.391012436102846
-2.3663945474428347
-2.200223798987821
-2.4648661020828517
-2.3848579639378364
-2.3417766587828237
-2.3540856031128428
-2.3540856031128428
-2.347931130947833
-2.329467714452832
-2.329467714452832
-2.347931130947833
-2.329467714452832
-2.372549019607845
-2.304849825792821
-2.261768520637808
-2.255614048472826
-2.1263701330077875
-2.304849825792821
-2.2740774649678275
-2.2186872154828228
-2.378703491772827
-2.3110042979578305
-2.286386409297819
-2.2925408814628288
-2.329467714452832
-2.335622186617841
-2.329467714452832
-2.360240075277825
-2.323313242287821
-2.347931130947833
-2.587955545382853
-2.4217847969278394
-2.323313242287821
-2.3171587701228398
-2.249459576307816
-2.261768520637808
-2.360240075277825
-2.2925408814628288
-2.2740774649678275
-2.3171587701228398
-2.335622186617841
-2.3417766587828237
-2.286386409297819
-2.2371506319778245
-2.3171587701228398
-2.391012436102846
-2.329467714452832
-2.2802319371328093
-1.89865466290276
-0.8154675618626261
-2.520256351567857
-3.548053203123014
-2.766435238167886
-2.3971669082678284
-2.329467714452832
-2.3171587701228398
-2.304849825792821
-2.261768520637808
-2.2802319371328093
-2.4587116299178424
-2.3417766587828237
-2.347931130947833
-2.3417766587828237
-2.329467714452832
-2.3417766587828237
-2.360240075277825
-2.304849825792821
-2.403321380432838
-2.372549019607845
-2.3540856031128428
-2.335622186617841
-2.2740774649678275
-2.2433051041428067
-2.409475852597848
-2.3110042979578305
-2.409475852597848
-2.3417766587828237
-2.4648661020828517
-2.347931130947833
-2.3171587701228398
-2.335622186617841
-2.335622186617841
-2.286386409297819
-2.3971669082678284
-2.378703491772827
-2.329467714452832
-2.2802319371328093
-2.434093741257831
-2.372549019607845
-2.298695353627811
-2.3110042979578305
-2.4525571577528327
-2.347931130947833
-2.329467714452832
-2.347931130947833
-2.3110042979578305
-2.286386409297819
-2.304849825792821
-2.335622186617841
-2.434093741257831
-2.3171587701228398
-2.563337656722869
-2.520256351567857
-2.4894839907428636
-2.4648661020828517
-2.434093741257831
-2.4217847969278394
-2.446402685587851
-2.3971669082678284
-2.347931130947833
-2.3663945474428347
-2.329467714452832
-1.990971745377768
-2.329467714452832
-2.4894839907428636
-2.286386409297819
-2.3971669082678284
-2.360240075277825
-2.347931130947833
-2.360240075277825
-2.378703491772827
-2.2925408814628288
-2.3540856031128428
-2.3848579639378364
-2.372549019607845
-2.360240075277825
-2.3540856031128428
-2.3663945474428347
-2.4525571577528327
-2.680272627857888
-2.538719768062857
-2.471020574247862
-2.4648661020828517
-2.4587116299178424
-2.4217847969278394
-2.4279392690928487
-2.4587116299178424
-2.403321380432838
-2.4648661020828517
-2.4402482134228407
-2.4279392690928487
-2.4402482134228407
-2.329467714452832
-2.304849825792821
-2.446402685587851
-2.3663945474428347
-2.4587116299178424
-2.4279392690928487
-2.372549019607845
-2.409475852597848
-2.372549019607845
-2.3540856031128428
-2.3848579639378364
-2.378703491772827
-2.403321380432838
-2.372549019607845
-2.3171587701228398
-2.360240075277825
-2.507947407237865
-2.4402482134228407
-2.378703491772827
-2.360240075277825
-2.4648661020828517
-2.409475852597848
-2.372549019607845
-2.3663945474428347
-2.372549019607845
-2.403321380432838
-2.323313242287821
-2.3171587701228398
-2.009435161872797
-0.7662317845426038
-2.286386409297819
-2.3417766587828237
-2.347931130947833
-2.3417766587828237
-2.624882378372884
-3.634215813433039
-2.8649067928079033
-2.4648661020828517
-2.409475852597848
-2.4217847969278394
-2.4279392690928487
-2.409475852597848
-1.892500190737778
-2.4156303247628297
-2.944914930952919
-2.538719768062857
-2.3848579639378364
-2.403321380432838
-2.434093741257831
-2.434093741257831
-2.3663945474428347
-2.403321380432838
-2.403321380432838
-2.391012436102846
-2.378703491772827
-2.378703491772827
-2.3663945474428347
-2.255614048472826
-2.378703491772827
-2.4894839907428636
-2.4217847969278394
-2.403321380432838
-2.372549019607845
-2.3540856031128428
-2.372549019607845
-2.3540856031128428
-2.329467714452832
-2.4156303247628297
-2.3663945474428347
-2.372549019607845
-2.360240075277825
-2.2802319371328093
-2.4279392690928487
-2.3848579639378364
-2.323313242287821
-2.434093741257831
-2.3663945474428347
-2.372549019607845
-2.403321380432838
-2.3848579639378364
-2.360240075277825
-2.378703491772827
-2.378703491772827
-2.4156303247628297
-2.3540856031128428
-2.2309961598128147
-2.2371506319778245
-2.3848579639378364
-2.3417766587828237
-2.3110042979578305
-2.3663945474428347
-2.4279392690928487
-1.9786628010477763
-2.323313242287821
-2.6987360443528896
-2.403321380432838
-2.378703491772827
-2.3417766587828237
-2.323313242287821
-2.3540856031128428
-2.526410823732866
-2.477175046412844
-2.403321380432838
-2.378703491772827
-2.378703491772827
-2.403321380432838
-2.335622186617841
-2.329467714452832
-2.3417766587828237
-2.347931130947833
-2.378703491772827
-2.378703491772827
-2.3417766587828237
-2.2802319371328093
-2.3417766587828237
-2.4587116299178424
-2.378703491772827
-2.372549019607845
-2.3663945474428347
-2.378703491772827
-2.378703491772827
-2.2371506319778245
-2.3110042979578305
-2.4279392690928487
-2.3540856031128428
-2.347931130947833
-2.3171587701228398
-2.304849825792821
-2.2371506319778245
-2.323313242287821
-2.4402482134228407
-2.3663945474428347
-2.3417766587828237
-2.323313242287821
-2.298695353627811
-2.335622186617841
-2.335622186617841
-2.335622186617841
-2.360240075277825
-2.329467714452832
-2.335622186617841
-2.2925408814628288
-2.2186872154828228
-2.446402685587851
-2.378703491772827
-2.3171587701228398
-2.3848579639378364
-2.347931130947833
-2.323313242287821
-2.329467714452832
-1.9048091350677696
-0.8400854505226096
-2.391012436102846
-3.4988174258030194
-2.9572238752829105
-2.378703491772827
-2.212532743317813
-2.434093741257831
-2.372549019607845
-2.3110042979578305
-2.009435161872797
-0.7046870628925892
-1.7078660257877356
-2.520256351567857
-2.471020574247862
-2.304849825792821
-2.298695353627811
-2.255614048472826
-2.624882378372884
-3.554207675288024
-2.649500267032867
-2.4587116299178424
-2.3971669082678284
-2.378703491772827
-2.360240075277825
-2.347931130947833
-2.2740774649678275
-2.372549019607845
-2.378703491772827
-2.360240075277825
-2.3417766587828237
-2.335622186617841
-2.3540856031128428
-2.286386409297819
-2.2309961598128147
-2.304849825792821
-2.323313242287821
-2.286386409297819
-2.2925408814628288
-2.329467714452832
-2.3848579639378364
-2.3848579639378364
-2.507947407237865
-2.3540856031128428
-2.3540856031128428
-2.3848579639378364
-2.360240075277825
-2.3417766587828237
-2.3110042979578305
-2.378703491772827
-2.3848579639378364
-2.434093741257831
-2.3663945474428347
-2.347931130947833
-2.304849825792821
-2.298695353627811
-2.3110042979578305
-2.335622186617841
-2.3110042979578305
-2.3417766587828237
-2.335622186617841
-2.3417766587828237
-2.2740774649678275
-2.2740774649678275
-2.4402482134228407
-2.3663945474428347
-2.335622186617841
-2.3540856031128428
-2.329467714452832
-2.3417766587828237
-2.360240075277825
-2.360240075277825
-2.372549019607845
-2.2371506319778245
-1.9786628010477763
-2.329467714452832
-2.624882378372884
-2.3417766587828237
-2.3971669082678284
-2.3417766587828237
-2.3540856031128428
-2.360240075277825
-2.2740774649678275
-2.323313242287821
-2.372549019607845
-2.347931130947833
-2.347931130947833
-2.3540856031128428
-2.372549019607845
-2.2679229928028177
-2.347931130947833
-2.360240075277825
-2.446402685587851
-2.3848579639378364
-2.3540856031128428
-2.3663945474428347
-2.329467714452832
-2.2433051041428067
-2.4217847969278394
-2.3848579639378364
-2.3417766587828237
-2.329467714452832
-2.3417766587828237
-2.3417766587828237
-2.3171587701228398
-2.212532743317813
-2.471020574247862
-2.4217847969278394
-2.372549019607845
-2.329467714452832
-2.372549019607845
-2.3848579639378364
-2.335622186617841
-2.286386409297819
-2.4279392690928487
-2.3971669082678284
-2.391012436102846
-2.347931130947833
-2.335622186617841
-2.298695353627811
-2.4279392690928487
-2.378703491772827
-1.966353856717784
-0.8523943948526291
-2.2309961598128147
-2.2802319371328093
-2.298695353627811
-2.3110042979578305
-2.446402685587851
-3.4988174258030194
-3.0003051804379233
-2.4587116299178424
-2.372549019607845
-2.2925408814628288
-2.329467714452832
-2.3663945474428347
-2.335622186617841
-2.3663945474428347
-2.391012436102846
-2.3663945474428347
-2.347931130947833
-2.335622186617841
-2.3110042979578305
-2.329467714452832
-2.391012436102846
-2.360240075277825
-2.298695353627811
-2.286386409297819
-2.3848579639378364
-2.501792935072855
-2.391012436102846
-2.347931130947833
-2.335622186617841
-2.446402685587851
-2.4525571577528327
-2.434093741257831
-2.4156303247628297
-2.3848579639378364
-2.3971669082678284
-2.391012436102846
-2.378703491772827
-2.347931130947833
-2.329467714452832
-2.4894839907428636
-2.4156303247628297
-2.403321380432838
-2.391012436102846
-2.304849825792821
-2.261768520637808
-2.434093741257831
-2.3848579639378364
-2.360240075277825
-2.3417766587828237
-2.372549019607845
-2.347931130947833
-2.347931130947833
-2.446402685587851
-2.55102871239285
-2.391012436102846
-2.304849825792821
-2.323313242287821
-2.335622186617841
-2.3663945474428347
-2.261768520637808
-2.255614048472826
-2.3848579639378364
-1.9848172732127856
-2.3417766587828237
-2.6371913227028756
-2.3540856031128428
-2.1632969659978185
-2.2433051041428067
-2.304849825792821
-2.335622186617841
-2.323313242287821
-2.329467714452832
-2.3110042979578305
-2.3417766587828237
-2.3417766587828237
-2.2925408814628288
-2.286386409297819
-2.3663945474428347
-2.329467714452832
-2.335622186617841
-2.1694514381628007
-2.3971669082678284
-2.3663945474428347
-2.3540856031128428
-2.335622186617841
-2.304849825792821
-2.323313242287821
-2.335622186617841
-2.347931130947833
-2.2925408814628288
-2.2925408814628288
-2.286386409297819
-2.335622186617841
-2.2740774649678275
-2.2371506319778245
-2.372549019607845
-2.347931130947833
-2.3110042979578305
-2.2433051041428067
-2.329467714452832
-2.4402482134228407
-2.3540856031128428
-2.329467714452832
-2.335622186617841
-2.3417766587828237
-2.3171587701228398
-2.3110042979578305
-2.2802319371328093
-2.286386409297819
-2.434093741257831
-2.4279392690928487
-2.360240075277825
-2.3417766587828237
-2.335622186617841
-2.304849825792821
-2.298695353627811
-2.378703491772827
-2.3971669082678284
-2.360240075277825
-2.360240075277825
-1.972508328882766
-0.8093130896976164
-2.150988021667799
-2.501792935072855
-2.797207598992907
-2.4217847969278394
-2.335622186617841
-2.329467714452832
-2.329467714452832
-2.347931130947833
-2.347931130947833
-2.304849825792821
-2.3417766587828237
-2.3540856031128428
-2.347931130947833
-2.3663945474428347
-2.483329518577854
-3.578825563948035
-3.0987767350779407
-2.538719768062857
-2.391012436102846
-2.3848579639378364
-2.4648661020828517
-2.434093741257831
-2.3971669082678284
-2.4156303247628297
-2.409475852597848
-2.323313242287821
-2.2925408814628288
-2.3540856031128428
-2.2679229928028177
-1.830955469087764
-2.1263701330077875
-2.372549019607845
-2.323313242287821
-2.434093741257831
-2.4525571577528327
-2.3971669082678284
-2.3848579639378364
-2.3971669082678284
-2.372549019607845
-2.347931130947833
-2.2679229928028177
-2.3540856031128428
-2.3417766587828237
-2.304849825792821
-2.409475852597848
-2.3663945474428347
-2.329467714452832
-2.323313242287821
-2.2433051041428067
-2.3848579639378364
-2.335622186617841
-2.286386409297819
-2.403321380432838
-2.298695353627811
-2.3110042979578305
-2.2925408814628288
-2.298695353627811
-2.3540856031128428
-2.391012436102846
-2.3663945474428347
-2.323313242287821
-2.298695353627811
-1.9232725515627715
-2.2802319371328093
-2.6433457948678853
-2.3971669082678284
-2.329467714452832
-2.329467714452832
-2.3110042979578305
-2.323313242287821
-2.347931130947833
-2.2186872154828228
-2.3971669082678284
-2.471020574247862
-2.3971669082678284
-2.3540856031128428
-2.347931130947833
-2.360240075277825
-2.3417766587828237
-2.175605910327811
-1.221662724752659
-1.824800996922753
-2.1632969659978185
-2.2679229928028177
-2.249459576307816
-2.2679229928028177
-2.391012436102846
-2.680272627857888
-3.609597924773028
-2.8033620711578893
-2.4402482134228407
-2.4217847969278394
-2.378703491772827
-2.3540856031128428
-2.3663945474428347
-2.3171587701228398
-2.3417766587828237
-2.3663945474428347
-2.3540856031128428
-2.286386409297819
-2.3417766587828237
-2.471020574247862
-2.3417766587828237
-2.255614048472826
-2.323313242287821
-2.3417766587828237
-2.329467714452832
-2.335622186617841
-2.335622186617841
-2.360240075277825
-2.3417766587828237
-2.2802319371328093
-2.391012436102846
-2.323313242287821
-2.4156303247628297
-2.6433457948678853
-2.471020574247862
-2.372549019607845
-2.304849825792821
-2.2740774649678275
-2.052516467027782
-0.8339309783576276
-2.2802319371328093
-2.347931130947833
-2.335622186617841
-2.2925408814628288
-2.3663945474428347
-3.2957198443579747
-2.821825487652891
-2.4156303247628297
-2.391012436102846
-2.3848579639378364
-2.372549019607845
-2.3663945474428347
-2.3540856031128428
-2.329467714452832
-2.434093741257831
-2.3848579639378364
-2.3663945474428347
-2.372549019607845
-2.378703491772827
-2.360240075277825
-2.347931130947833
-2.520256351567857
-2.4648661020828517
-2.372549019607845
-2.372549019607845
-2.3540856031128428
-2.372549019607845
-2.3848579639378364
-2.3110042979578305
-2.360240075277825
-2.3971669082678284
-2.3848579639378364
-2.347931130947833
-2.3171587701228398
-2.224841687647805
-2.3848579639378364
-1.8801912464077586
-2.409475852597848
-2.7171994608478913
-2.3971669082678284
-2.3663945474428347
-2.323313242287821
-2.335622186617841
-2.3417766587828237
-2.298695353627811
-2.403321380432838
-2.372549019607845
-2.304849825792821
-2.200223798987821
-2.403321380432838
-2.391012436102846
-2.360240075277825
-2.2925408814628288
-2.4217847969278394
-2.360240075277825
-2.378703491772827
-2.3663945474428347
-2.3540856031128428
-2.3540856031128428
-2.347931130947833
-2.3417766587828237
-2.3417766587828237
-1.9294270237277809
-2.360240075277825
-2.711044988682881
-2.403321380432838
-2.3540856031128428
-2.329467714452832
-2.3110042979578305
-2.372549019607845
-2.323313242287821
-2.3110042979578305
-2.347931130947833
-2.347931130947833
-2.335622186617841
-2.3171587701228398
-2.194069326822812
-2.409475852597848
-2.4402482134228407
-2.3417766587828237
-2.3171587701228398
-2.323313242287821
-2.3417766587828237
-2.3171587701228398
-2.3171587701228398
-2.347931130947833
-2.329467714452832
-2.3171587701228398
-2.3171587701228398
-2.304849825792821
-2.2740774649678275
-2.2740774649678275
-2.3848579639378364
-2.372549019607845
-2.323313242287821
-2.304849825792821
-2.323313242287821
-2.304849825792821
-2.304849825792821
-2.3848579639378364
-2.286386409297819
-2.2802319371328093
-2.2925408814628288
-2.2802319371328093
-2.2433051041428067
-2.286386409297819
-2.4156303247628297
-2.261768520637808
-2.329467714452832
-2.304849825792821
-2.2925408814628288
-2.3663945474428347
-2.347931130947833
-2.323313242287821
-2.360240075277825
-2.261768520637808
-2.3417766587828237
-2.329467714452832
-2.298695353627811
-2.175605910327811
-1.954044912387765
-0.8400854505226096
-2.255614048472826
-3.154166984562973
-3.3141832608529764
-2.507947407237865
-2.378703491772827
-2.378703491772827
-2.329467714452832
-2.3417766587828237
-2.323313242287821
-2.3171587701228398
-2.360240075277825
-2.2186872154828228
-2.4648661020828517
-2.4156303247628297
-2.3971669082678284
-2.360240075277825
-2.335622186617841
-2.304849825792821
-2.329467714452832
-2.2740774649678275
-2.224841687647805
-2.255614048472826
-2.2925408814628288
-2.304849825792821
-2.3110042979578305
-2.224841687647805
-2.4587116299178424
-2.4217847969278394
-2.360240075277825
-2.360240075277825
-2.372549019607845
-2.347931130947833
-2.323313242287821
-2.323313242287821
-2.323313242287821
-2.2802319371328093
-2.286386409297819
-2.286386409297819
-2.3110042979578305
-2.3110042979578305
-2.5694921288878514
-2.3848579639378364
-2.286386409297819
-2.261768520637808
-2.286386409297819
-2.335622186617841
-2.3171587701228398
-2.323313242287821
-2.261768520637808
-2.335622186617841
-2.347931130947833
-2.3171587701228398
-2.286386409297819
-2.0586709391927913
-1.289361918567683
-1.9417359680577726
-2.150988021667799
-2.2740774649678275
-2.304849825792821
-2.3171587701228398
-2.286386409297819
-2.2433051041428067
-1.9355814958927628
-2.304849825792821
-2.575646601052861
-2.507947407237865
-2.2433051041428067
-2.347931130947833
-3.1049312072429505
-2.754126293837894
-2.4156303247628297
-2.3417766587828237
-2.2925408814628288
-2.409475852597848
-2.335622186617841
-2.323313242287821
-2.329467714452832
-2.3417766587828237
-2.329467714452832
-2.3110042979578305
-2.249459576307816
-2.2802319371328093
-2.298695353627811
-2.495638462907845
-2.347931130947833
-2.3171587701228398
-2.286386409297819
-2.2433051041428067
-2.2679229928028177
-2.3540856031128428
-2.2802319371328093
-2.2679229928028177
-2.329467714452832
-2.304849825792821
-2.286386409297819
-2.200223798987821
-2.194069326822812
-2.4894839907428636
-2.335622186617841
-2.335622186617841
-2.3171587701228398
-2.335622186617841
-2.335622186617841
-2.335622186617841
-2.2740774649678275
-2.323313242287821
-2.335622186617841
-2.323313242287821
-2.298695353627811
-2.304849825792821
-2.200223798987821
-2.360240075277825
-2.3540856031128428
-2.3171587701228398
-2.3171587701228398
-2.304849825792821
-2.3171587701228398
-2.335622186617841
-2.323313242287821
-2.2371506319778245
-1.990971745377768
-0.8277765061926179
-2.2371506319778245
-2.261768520637808
-2.194069326822812
-2.4525571577528327
-2.3848579639378364
-3.0987767350779407
-3.3511100938430074
-2.507947407237865
-2.3540856031128428
-2.3110042979578305
-2.3171587701228398
-2.3417766587828237
-2.3171587701228398
-2.261768520637808
-2.347931130947833
-2.335622186617841
-2.255614048472826
-2.286386409297819
-2.304849825792821
-2.3171587701228398
-2.347931130947833
-2.3110042979578305
-2.329467714452832
-2.335622186617841
-2.3171587701228398
-2.3417766587828237
-2.3110042979578305
-2.304849825792821
-2.187914854657802
-0.7108415350575992
-1.4432237226927047
-2.391012436102846
-2.575646601052861
-2.3417766587828237
-2.286386409297819
-2.2925408814628288
-2.471020574247862
-3.517280842298021
-2.8649067928079033
-2.378703491772827
-2.335622186617841
-2.298695353627811
-2.2802319371328093
-2.298695353627811
-2.2679229928028177
-2.378703491772827
-2.4279392690928487
-2.323313242287821
-2.329467714452832
-2.3417766587828237
-2.298695353627811
-2.2740774649678275
-2.2802319371328093
-2.323313242287821
-2.360240075277825
-2.3110042979578305
-2.298695353627811
-2.2740774649678275
-2.255614048472826
-2.1017522443478045
-2.194069326822812
-2.3110042979578305
-2.3110042979578305
-2.304849825792821
-2.3110042979578305
-2.329467714452832
-2.335622186617841
-2.3171587701228398
-2.304849825792821
-2.3540856031128428
-2.329467714452832
-2.286386409297819
-2.255614048472826
-2.2679229928028177
-2.409475852597848
-2.329467714452832
-2.249459576307816
-2.372549019607845
-2.3663945474428347
-2.3540856031128428
-2.329467714452832
-2.329467714452832
-2.335622186617841
-2.3417766587828237
-2.323313242287821
-2.3663945474428347
-2.3417766587828237
-2.2740774649678275
-2.483329518577854
-2.4156303247628297
-2.372549019607845
-2.3171587701228398
-1.9848172732127856
-2.1694514381628007
-2.6925815721878803
-2.4587116299178424
-2.3663945474428347
-2.3417766587828237
-2.378703491772827
-2.3540856031128428
-2.323313242287821
-2.2740774649678275
-2.4525571577528327
-2.4156303247628297
-2.372549019607845
-2.347931130947833
-2.360240075277825
-2.372549019607845
-2.360240075277825
-2.3663945474428347
-2.298695353627811
-2.3971669082678284
-2.372549019607845
-2.3417766587828237
-2.3540856031128428
-2.083288827852803
-1.7509473309427481
-2.2186872154828228
-2.2925408814628288
-2.335622186617841
-1.966353856717784
-0.8093130896976164
-2.286386409297819
-2.96953281961293
-3.6034434526080172
-2.674118155692878
-2.4217847969278394
-2.391012436102846
-2.3663945474428347
-2.507947407237865
-3.006459652602933
-2.5694921288878514
-2.483329518577854
-2.3971669082678284
-2.2925408814628288
-2.2802319371328093
-2.3110042979578305
-2.372549019607845
-2.378703491772827
-2.360240075277825
-2.4587116299178424
-2.4279392690928487
-2.3663945474428347
-2.323313242287821
-2.409475852597848
-2.501792935072855
-2.372549019607845
-2.329467714452832
-2.335622186617841
-2.323313242287821
-2.3171587701228398
-2.3110042979578305
-2.2925408814628288
-2.329467714452832
-2.304849825792821
-2.2802319371328093
-2.3971669082678284
-2.2925408814628288
-2.212532743317813
-2.3848579639378364
-2.347931130947833
-2.335622186617841
-2.3540856031128428
-2.347931130947833
-2.3110042979578305
-2.3417766587828237
-2.4156303247628297
-2.360240075277825
-2.347931130947833
-2.347931130947833
-2.360240075277825
-2.347931130947833
-2.2371506319778245
-2.544874240227868
-2.4648661020828517
-2.4217847969278394
-2.3848579639378364
-2.347931130947833
-2.304849825792821
-2.391012436102846
-2.403321380432838
-2.3540856031128428
-2.378703491772827
-2.360240075277825
-1.972508328882766
-2.3417766587828237
-2.649500267032867
-2.544874240227868
-2.4217847969278394
-2.360240075277825
-2.323313242287821
-2.360240075277825
-2.360240075277825
-2.3110042979578305
-2.2679229928028177
-2.378703491772827
-2.360240075277825
-2.335622186617841
-2.3417766587828237
-2.329467714452832
-1.990971745377768
-1.400142417537692
-2.04020752269779
-2.255614048472826
-2.304849825792821
-2.3417766587828237
-2.304849825792821
-2.2925408814628288
-2.323313242287821
-2.304849825792821
-2.2802319371328093
-2.372549019607845
-2.3663945474428347
-2.298695353627811
-2.4156303247628297
-2.618727906207874
-2.4217847969278394
-2.391012436102846
-2.323313242287821
-2.3663945474428347
-2.391012436102846
-2.372549019607845
-2.3848579639378364
-2.378703491772827
-2.360240075277825
-2.335622186617841
-2.335622186617841
-2.286386409297819
-2.4402482134228407
-2.9387604587879093
-2.581801073217871
-2.3848579639378364
-2.3848579639378364
-2.360240075277825
-2.3663945474428347
-2.391012436102846
-2.378703491772827
-2.3663945474428347
-2.335622186617841
-2.360240075277825
-2.360240075277825
-1.9048091350677696
-2.009435161872797
-1.178581419597674
-2.3540856031128428
-2.347931130947833
-2.335622186617841
-2.329467714452832
-2.329467714452832
-2.858752320642893
-3.5911345082780266
-2.680272627857888
-2.446402685587851
-2.409475852597848
-2.378703491772827
-2.347931130947833
-2.304849825792821
-2.329467714452832
-2.477175046412844
-2.378703491772827
-2.329467714452832
-2.3540856031128428
-2.378703491772827
-2.347931130947833
-2.323313242287821
-2.255614048472826
-2.4156303247628297
-2.3540856031128428
-2.335622186617841
-2.323313242287821
-2.298695353627811
-2.2309961598128147
-2.4587116299178424
-2.3110042979578305
-2.4279392690928487
-2.372549019607845
-2.335622186617841
-2.3171587701228398
-2.3417766587828237
-2.360240075277825
-2.3540856031128428
-2.335622186617841
-2.3663945474428347
-2.304849825792821
-2.3171587701228398
-2.2679229928028177
-2.3848579639378364
-2.391012436102846
-2.329467714452832
-2.2925408814628288
-2.335622186617841
-2.360240075277825
-2.3417766587828237
-2.298695353627811
-2.3171587701228398
-2.323313242287821
-2.2679229928028177
-2.3417766587828237
-2.329467714452832
-2.194069326822812
-2.4156303247628297
-2.3663945474428347
-2.335622186617841
-2.335622186617841
-2.360240075277825
-2.298695353627811
-1.91096360723278
-2.3110042979578305
-2.624882378372884
-2.378703491772827
-2.335622186617841
-2.3417766587828237
-2.3171587701228398
-2.3110042979578305
-2.378703491772827
-2.403321380432838
-2.3848579639378364
-2.3663945474428347
-2.360240075277825
-2.335622186617841
-2.2679229928028177
-2.4156303247628297
-2.409475852597848
-2.372549019607845
-2.372549019607845
-2.409475852597848
-2.3540856031128428
-2.329467714452832
-2.5694921288878514
-2.624882378372884
-2.378703491772827
-2.329467714452832
-2.347931130947833
-2.360240075277825
-2.329467714452832
-2.3171587701228398
-2.261768520637808
-2.3417766587828237
-2.2925408814628288
-2.335622186617841
-2.3110042979578305
-2.224841687647805
-2.0340530505327803
-2.249459576307816
-1.2770529742376913
-1.7324839144477464
-2.077134355687793
-2.249459576307816
-2.2740774649678275
-2.286386409297819
-2.286386409297819
-2.446402685587851
-3.5418987309580316
-2.9633783474479203
-2.4156303247628297
-2.3110042979578305
-2.2925408814628288
-2.4279392690928487
-2.391012436102846
-2.304849825792821
-2.3110042979578305
-2.4156303247628297
-2.3417766587828237
-2.329467714452832
-1.8863457185727683
-0.7600773123775938
-2.2186872154828228
-2.618727906207874
-3.517280842298021
-2.711044988682881
-2.347931130947833
-2.477175046412844
-2.403321380432838
-2.403321380432838
-2.391012436102846
-2.2740774649678275
-2.3848579639378364
-2.4156303247628297
-2.347931130947833
-2.347931130947833
-2.304849825792821
-2.2925408814628288
-2.298695353627811
-2.2679229928028177
-2.187914854657802
-2.4402482134228407
-2.360240075277825
-2.335622186617841
-2.286386409297819
-2.286386409297819
-2.286386409297819
-2.212532743317813
-2.3971669082678284
-2.323313242287821
-2.304849825792821
-2.3417766587828237
-2.323313242287821
-2.298695353627811
-2.212532743317813
-2.3171587701228398
-2.483329518577854
-2.391012436102846
-2.372549019607845
-2.391012436102846
-2.360240075277825
-2.360240075277825
-2.347931130947833
-2.3171587701228398
-2.403321380432838
-2.3540856031128428
-2.335622186617841
-2.347931130947833
-1.9971262175427773
-1.39398794537271
-2.0463619948628
-2.261768520637808
-2.3110042979578305
-2.298695353627811
-2.2925408814628288
-2.298695353627811
-2.3110042979578305
-2.298695353627811
-2.255614048472826
-2.304849825792821
-2.298695353627811
-2.329467714452832
-2.4648661020828517
-3.277256427862973
-2.3971669082678284
-2.3971669082678284
-2.7171994608478913
-2.391012436102846
-2.335622186617841
-2.323313242287821
-2.329467714452832
-2.3417766587828237
-2.372549019607845
-2.347931130947833
-2.304849825792821
-2.3417766587828237
-2.255614048472826
-2.304849825792821
-2.471020574247862
-2.347931130947833
-2.2679229928028177
-2.323313242287821
-2.3110042979578305
-2.360240075277825
-2.3171587701228398
-2.3171587701228398
-2.3171587701228398
-2.323313242287821
-2.329467714452832
-2.3110042979578305
-2.2186872154828228
-2.261768520637808
-2.391012436102846
-2.4402482134228407
-2.323313242287821
-2.249459576307816
-2.304849825792821
-2.3171587701228398
-2.2309961598128147
-2.3971669082678284
-2.3171587701228398
-2.298695353627811
-2.286386409297819
-2.304849825792821
-2.2679229928028177
-2.261768520637808
-2.403321380432838
-2.3417766587828237
-2.2925408814628288
-2.286386409297819
-2.3171587701228398
-2.298695353627811
-2.2925408814628288
-2.2740774649678275
-2.2802319371328093
-2.3171587701228398
-2.2679229928028177
-2.2679229928028177
-2.2309961598128147
-2.114061188677796
-2.323313242287821
-2.261768520637808
-1.861727829912757
-0.7785407288726233
-2.1325246051727973
-2.1694514381628007
-2.200223798987821
-2.2371506319778245
-2.187914854657802
-2.4648661020828517
-3.517280842298021
-2.6987360443528896
-2.3171587701228398
-2.1694514381628007
-2.304849825792821
-2.304849825792821
-2.255614048472826
-2.194069326822812
-2.2679229928028177
-2.286386409297819
-2.2925408814628288
-2.2740774649678275
-2.261768520637808
-2.224841687647805
-2.2309961598128147
-2.261768520637808
-2.261768520637808
-2.2063782711528033
-2.175605910327811
-2.298695353627811
-2.2433051041428067
-2.2433051041428067
-2.255614048472826
-2.187914854657802
-2.298695353627811
-2.298695353627811
-2.2925408814628288
-2.286386409297819
-2.2925408814628288
-2.347931130947833
-2.2740774649678275
-2.2679229928028177
-2.501792935072855
-2.4525571577528327
-2.3540856031128428
-2.3171587701228398
-2.323313242287821
-2.3171587701228398
-2.3171587701228398
-2.224841687647805
-2.3663945474428347
-2.329467714452832
-2.329467714452832
-2.3110042979578305
-2.2802319371328093
-2.2740774649678275
-2.261768520637808
-2.3171587701228398
-2.335622186617841
-2.329467714452832
-2.286386409297819
-2.2925408814628288
-2.2925408814628288
-2.2679229928028177
-2.2740774649678275
-2.261768520637808
-1.9048091350677696
-2.249459576307816
-2.624882378372884
-2.3110042979578305
-2.2063782711528033
-2.434093741257831
-2.323313242287821
-2.335622186617841
-2.347931130947833
-2.2925408814628288
-2.2309961598128147
-2.2740774649678275
-2.2679229928028177
-2.2679229928028177
-2.2371506319778245
-2.3110042979578305
-2.286386409297819
-2.261768520637808
-2.187914854657802
-2.3663945474428347
-2.3171587701228398
-2.2679229928028177
-2.194069326822812
-2.2740774649678275
-2.2802319371328093
-2.255614048472826
-2.224841687647805
-2.2186872154828228
-2.2679229928028177
-2.249459576307816
-2.150988021667799
-2.2925408814628288
-1.972508328882766
-1.9786628010477763
-2.2309961598128147
-2.261768520637808
-2.2433051041428067
-2.255614048472826
-2.200223798987821
-2.378703491772827
-2.304849825792821
-2.2802319371328093
-2.2679229928028177
-2.224841687647805
-2.255614048472826
-2.2309961598128147
-2.378703491772827
-2.711044988682881
-2.4648661020828517
-2.4279392690928487
-2.4402482134228407
-2.3971669082678284
-2.3848579639378364
-2.335622186617841
-2.335622186617841
-2.434093741257831
-2.360240075277825
-2.3171587701228398
-2.003280689707787
-1.1293456422776516
-1.6647847206327224
-1.6093944711477182
-3.2957198443579747
-2.797207598992907
-2.3848579639378364
-2.391012436102846
-2.3848579639378364
-2.3417766587828237
-2.3110042979578305
-2.335622186617841
-2.3171587701228398
-2.323313242287821
-2.3171587701228398
-2.3417766587828237
-2.5141018794028467
-3.184939345387966
-2.7418173495078744
-2.4217847969278394
-2.471020574247862
-2.4648661020828517
-2.409475852597848
-2.3848579639378364
-2.3971669082678284
-2.3848579639378364
-2.372549019607845
-2.3171587701228398
-2.4156303247628297
-2.3848579639378364
-2.329467714452832
-2.391012436102846
-2.434093741257831
-2.372549019607845
-2.372549019607845
-2.261768520637808
-2.409475852597848
-2.403321380432838
-2.391012436102846
-2.3540856031128428
-2.360240075277825
-2.403321380432838
-2.403321380432838
-2.304849825792821
-2.4156303247628297
-2.335622186617841
-2.501792935072855
-2.3848579639378364
-2.360240075277825
-2.4279392690928487
-2.3663945474428347
-1.0493375041326358
-1.2955163907326928
-2.403321380432838
-2.680272627857888
-2.4402482134228407
-2.378703491772827
-2.3848579639378364
-2.4525571577528327
-3.4988174258030194
-3.2218661783779687
-2.5325652958978484
-2.446402685587851
-2.4217847969278394
-2.378703491772827
-2.4156303247628297
-2.372549019607845
-2.3971669082678284
-2.446402685587851
-2.409475852597848
-2.409475852597848
-2.391012436102846
-2.378703491772827
-2.249459576307816
-2.4279392690928487
-2.477175046412844
-2.4217847969278394
-2.3540856031128428
-2.3417766587828237
-2.360240075277825
-2.3663945474428347
-2.360240075277825
-1.8863457185727683
-2.4156303247628297
-2.6925815721878803
-2.403321380432838
-2.335622186617841
-2.2802319371328093
-2.434093741257831
-2.4156303247628297
-2.304849825792821
-2.409475852597848
-2.4217847969278394
-2.409475852597848
-2.403321380432838
-2.391012436102846
-2.3848579639378364
-2.335622186617841
-2.3171587701228398
-2.495638462907845
-2.4156303247628297
-2.077134355687793
-1.4493781948577145
-2.1325246051727973
-2.347931130947833
-2.347931130947833
-2.483329518577854
-2.3171587701228398
-2.304849825792821
-2.372549019607845
-2.372549019607845
-2.372549019607845
-2.3848579639378364
-2.335622186617841
-2.083288827852803
-2.3417766587828237
-3.7942320897230712
-2.9202970422929075
-2.4402482134228407
-2.3848579639378364
-2.3971669082678284
-2.372549019607845
-1.9848172732127856
-1.289361918567683
-1.990971745377768
-2.261768520637808
-2.304849825792821
-2.304849825792821
-2.3171587701228398
-2.3971669082678284
-3.517280842298021
-3.1480125123979352
-2.4894839907428636
-2.391012436102846
-2.3971669082678284
-2.3848579639378364
-2.391012436102846
-2.3171587701228398
-2.372549019607845
-2.372549019607845
-2.3663945474428347
-2.3540856031128428
-2.360240075277825
-2.2802319371328093
-2.175605910327811
-2.409475852597848
-2.360240075277825
-2.391012436102846
-2.335622186617841
-2.3417766587828237
-2.329467714452832
-2.329467714452832
-2.3110042979578305
-2.3171587701228398
-2.3417766587828237
-2.323313242287821
-2.3171587701228398
-2.286386409297819
-2.1817603824928202
-2.4217847969278394
-2.3417766587828237
-2.298695353627811
-2.378703491772827
-2.372549019607845
-2.323313242287821
-2.335622186617841
-2.3417766587828237
-2.335622186617841
-2.304849825792821
-2.249459576307816
-2.391012436102846
-2.329467714452832
-2.1817603824928202
-2.4279392690928487
-2.3848579639378364
-2.347931130947833
-2.3171587701228398
-2.261768520637808
-2.3971669082678284
-2.391012436102846
-2.3971669082678284
-2.347931130947833
-2.372549019607845
-2.3540856031128428
-2.3417766587828237
-2.2679229928028177
-1.7324839144477464
-2.0217441062027888
-2.587955545382853
-2.403321380432838
-2.3540856031128428
-2.3540856031128428
-2.323313242287821
-2.286386409297819
-2.4217847969278394
-2.3540856031128428
-2.347931130947833
-2.335622186617841
-2.3540856031128428
-2.360240075277825
-2.286386409297819
-2.200223798987821
-2.3171587701228398
-2.372549019607845
-2.409475852597848
-2.372549019607845
-2.3417766587828237
-2.3663945474428347
-2.4217847969278394
-2.378703491772827
-2.3417766587828237
-2.4156303247628297
-2.4525571577528327
-2.3848579639378364
-2.477175046412844
-2.981841763942921
-2.6064189618778553
-2.477175046412844
-2.391012436102846
-2.329467714452832
-2.3417766587828237
-2.3848579639378364
-2.403321380432838
-2.391012436102846
-2.4279392690928487
-2.483329518577854
-2.4525571577528327
-2.403321380432838
-2.403321380432838
-2.4648661020828517
-2.507947407237865
-2.409475852597848
-2.335622186617841
-2.4402482134228407
-2.4217847969278394
-2.3540856031128428
-2.3848579639378364
-2.403321380432838
-2.391012436102846
-2.372549019607845
-2.347931130947833
-2.403321380432838
-2.360240075277825
-2.3540856031128428
-2.04020752269779
-0.895475700007614
-2.286386409297819
-2.3971669082678284
-3.400345871163002
-3.154166984562973
-2.501792935072855
-2.391012436102846
-2.372549019607845
-2.3848579639378364
-2.409475852597848
-2.360240075277825
-2.329467714452832
-2.2679229928028177
-2.4402482134228407
-2.372549019607845
-2.3663945474428347
-2.360240075277825
-2.360240075277825
-2.3171587701228398
-2.329467714452832
-2.4156303247628297
-2.378703491772827
-2.372549019607845
-2.360240075277825
-2.347931130947833
-2.360240075277825
-2.372549019607845
-2.477175046412844
-2.3540856031128428
-2.391012436102846
-2.360240075277825
-2.378703491772827
-2.3540856031128428
-2.372549019607845
-2.347931130947833
-2.3417766587828237
-2.3663945474428347
-2.372549019607845
-2.3663945474428347
-2.3417766587828237
-2.187914854657802
-2.409475852597848
-2.335622186617841
-2.4525571577528327
-2.434093741257831
-2.3848579639378364
-2.391012436102846
-2.403321380432838
-2.3971669082678284
-2.3848579639378364
-2.3417766587828237
-2.446402685587851
-2.409475852597848
-2.378703491772827
-2.4894839907428636
-2.778744182497905
-2.55102871239285
-2.403321380432838
-2.3540856031128428
-2.471020574247862
-2.4402482134228407
-2.391012436102846
-2.3663945474428347
-1.9848172732127856
-2.3110042979578305
-2.649500267032867
-2.378703491772827
-2.4217847969278394
-2.2371506319778245
-2.0278985783677985
-2.304849825792821
-2.329467714452832
-2.3663945474428347
-2.3171587701228398
-2.335622186617841
-2.378703491772827
-2.3540856031128428
-2.347931130947833
-2.329467714452832
-2.372549019607845
-2.403321380432838
-2.3663945474428347
-2.323313242287821
-2.403321380432838
-2.4587116299178424
-2.3848579639378364
-2.378703491772827
-2.403321380432838
-2.391012436102846
-2.391012436102846
-2.3663945474428347
-2.3848579639378364
-2.391012436102846
-2.3663945474428347
-2.347931130947833
-2.3171587701228398
-2.249459576307816
-2.194069326822812
-2.477175046412844
-2.3417766587828237
-2.304849825792821
-2.286386409297819
-2.286386409297819
-2.286386409297819
-2.286386409297819
-2.200223798987821
-2.323313242287821
-2.2925408814628288
-2.2679229928028177
-2.2802319371328093
-2.2186872154828228
-2.187914854657802
-2.3971669082678284
-2.286386409297819
-2.3171587701228398
-2.2925408814628288
-2.304849825792821
-2.3110042979578305
-2.3171587701228398
-2.409475852597848
-2.2063782711528033
-1.504768444342719
-1.0247196154726523
-2.335622186617841
-2.3110042979578305
-2.150988021667799
-2.3971669082678284
-2.298695353627811
-2.3110042979578305
-3.357264566007989
-3.1357035680679433
-2.4279392690928487
-2.3110042979578305
-2.329467714452832
-2.3110042979578305
-2.304849825792821
-2.2433051041428067
-2.255614048472826
-2.2433051041428067
-2.1817603824928202
-2.544874240227868
-2.372549019607845
-2.2740774649678275
-2.2679229928028177
-2.249459576307816
-2.2802319371328093
-2.3848579639378364
-2.3540856031128428
-2.347931130947833
-2.3663945474428347
-2.335622186617841
-2.378703491772827
-2.3663945474428347
-2.1017522443478045
-1.8801912464077586
-2.2740774649678275
-2.329467714452832
-2.3540856031128428
-2.3417766587828237
-2.335622186617841
-2.261768520637808
-2.409475852597848
-2.4587116299178424
-2.4217847969278394
-2.4279392690928487
-2.391012436102846
-2.372549019607845
-2.4279392690928487
-2.7171994608478913
-2.612573434042864
-2.4894839907428636
-2.483329518577854
-2.483329518577854
-2.434093741257831
-2.4217847969278394
-2.4279392690928487
-2.360240075277825
-2.483329518577854
-2.446402685587851
-2.4156303247628297
-2.3540856031128428
-2.304849825792821
-2.378703491772827
-2.5141018794028467
-2.4156303247628297
-2.323313242287821
-2.200223798987821
-2.778744182497905
-2.544874240227868
-2.477175046412844
-2.471020574247862
-2.477175046412844
-2.483329518577854
-2.575646601052861
-2.446402685587851
-2.403321380432838
-2.403321380432838
-2.575646601052861
-2.4587116299178424
-2.4402482134228407
-2.4402482134228407
-2.495638462907845
-2.4648661020828517
-2.520256351567857
-2.6064189618778553
-2.631036850537866
-2.6064189618778553
-2.600264489712873
-2.6064189618778553
-2.563337656722869
-2.409475852597848
-2.587955545382853
-2.544874240227868
-2.483329518577854
-2.4525571577528327
-2.4587116299178424
-2.483329518577854
-2.4648661020828517
-2.4648661020828517
-2.4217847969278394
-2.4402482134228407
-2.477175046412844
-2.4156303247628297
-1.892500190737778
-2.471020574247862
-2.944914930952919
-2.55102871239285
-2.4894839907428636
-2.495638462907845
-2.477175046412844
-2.471020574247862
-2.4217847969278394
-2.5325652958978484
-2.501792935072855
-2.520256351567857
-2.520256351567857
-2.5141018794028467
-2.477175046412844
-2.347931130947833
-2.483329518577854
-2.55102871239285
-2.4648661020828517
-2.3971669082678284
-2.04020752269779
-1.2647440299076718
-2.003280689707787
-2.2433051041428067
-3.154166984562973
-3.344955621677997
-2.501792935072855
-2.403321380432838
-2.2802319371328093
-2.0463619948628
-1.830955469087764
-2.2186872154828228
-2.2679229928028177
-2.3171587701228398
-2.2802319371328093
-2.304849825792821
-2.286386409297819
-2.249459576307816
-2.2740774649678275
-2.2740774649678275
-2.249459576307816
-2.323313242287821
-2.2063782711528033
-2.3110042979578305
-2.68642710002287
-2.446402685587851
-2.298695353627811
-2.249459576307816
-2.3171587701228398
-2.403321380432838
-2.329467714452832
-2.2802319371328093
-2.3171587701228398
-2.304849825792821
-2.286386409297819
-2.224841687647805
-2.249459576307816
-2.212532743317813
-2.255614048472826
-2.372549019607845
-2.255614048472826
-2.2063782711528033
-2.200223798987821
-2.249459576307816
-2.187914854657802
-2.1571424938328088
-2.1448335495027893
-2.1448335495027893
-2.114061188677796
-2.1571424938328088
-2.1263701330077875
-1.9601993845527748
-2.0586709391927913
-2.2433051041428067
-2.114061188677796
-2.0955977721827947
-2.089443300017785
-2.1017522443478045
-2.077134355687793
-2.089443300017785
-2.1079067165127863
-2.070979883522784
-2.070979883522784
-2.015589634037779
-1.6955570814577436
-2.0340530505327803
-2.3110042979578305
-2.255614048472826
-2.1017522443478045
-1.9848172732127856
-1.972508328882766
-2.052516467027782
-2.0463619948628
-2.0217441062027888
-1.9601993845527748
-1.966353856717784
-2.0955977721827947
-2.0340530505327803
-2.04020752269779
-1.9971262175427773
-1.8432644134177558
-2.083288827852803
-2.1263701330077875
-2.0586709391927913
-2.1694514381628007
-2.1448335495027893
-2.138679077337807
-2.150988021667799
-2.1325246051727973
-2.1632969659978185
-2.138679077337807
-2.1571424938328088
-2.2802319371328093
-2.249459576307816
-2.2309961598128147
-2.378703491772827
-2.3171587701228398
-2.261768520637808
-2.2063782711528033
-2.249459576307816
-2.2740774649678275
-2.2433051041428067
-2.255614048472826
-2.2309961598128147
-2.2433051041428067
-2.304849825792821
-2.347931130947833
-2.286386409297819
-2.2186872154828228
-2.360240075277825
-2.335622186617841
-2.3110042979578305
-2.3171587701228398
-2.3110042979578305
-2.2925408814628288
-2.378703491772827
-2.372549019607845
-2.3171587701228398
-2.304849825792821
-2.2925408814628288
-2.3110042979578305
-2.304849825792821
-1.7509473309427481
-0.47697159278756174
-2.1017522443478045
-2.212532743317813
-2.1817603824928202
-2.2371506319778245
-2.298695353627811
-2.329467714452832
-3.0680043742529195
-3.400345871163002
-2.618727906207874
-2.335622186617841
-2.3171587701228398
-2.3171587701228398
-2.298695353627811
-2.55102871239285
-2.4156303247628297
-2.323313242287821
-2.347931130947833
-2.2925408814628288
-2.2802319371328093
-2.298695353627811
-2.3110042979578305
-2.2740774649678275
-2.2740774649678275
-2.3663945474428347
-2.2740774649678275
-2.249459576307816
-2.187914854657802
-2.1448335495027893
-2.3171587701228398
-2.2371506319778245
-2.212532743317813
-2.255614048472826
-2.224841687647805
-2.255614048472826
-2.2679229928028177
-2.2433051041428067
-2.2433051041428067
-2.261768520637808
-2.2679229928028177
-2.261768520637808
-2.194069326822812
-2.1571424938328088
-2.347931130947833
-2.2371506319778245
-2.175605910327811
-2.249459576307816
-2.2371506319778245
-2.2371506319778245
-2.249459576307816
-2.255614048472826
-2.2740774649678275
-2.286386409297819
-2.298695353627811
-2.2309961598128147
-2.323313242287821
-2.2925408814628288
-2.4217847969278394
-2.372549019607845
-2.329467714452832
-2.304849825792821
-2.2802319371328093
-2.1694514381628007
-2.003280689707787
-2.372549019607845
-2.6433457948678853
-2.4217847969278394
-2.403321380432838
-2.378703491772827
-2.323313242287821
-1.5232318608377204
-1.0924188092876486
-2.1017522443478045
-2.200223798987821
-2.2063782711528033
-2.2186872154828228
-2.255614048472826
-2.2679229928028177
-3.154166984562973
-3.2280206505429785
-2.483329518577854
-2.335622186617841
-2.298695353627811
-2.2925408814628288
-2.4217847969278394
-2.729508405177883
-2.446402685587851
-2.372549019607845
-2.3848579639378364
-2.372549019607845
-2.372549019607845
-2.3663945474428347
-2.403321380432838
-2.378703491772827
-2.3540856031128428
-2.4279392690928487
-2.4279392690928487
-2.4217847969278394
-2.298695353627811
-2.249459576307816
-2.4217847969278394
-2.3540856031128428
-2.3417766587828237
-2.4217847969278394
-2.3540856031128428
-2.3540856031128428
-2.360240075277825
-2.3540856031128428
-2.3110042979578305
-2.347931130947833
-2.2925408814628288
-2.335622186617841
-2.323313242287821
-2.600264489712873
-2.6925815721878803
-2.4279392690928487
-2.391012436102846
-2.323313242287821
-2.372549019607845
-2.403321380432838
-2.4402482134228407
-2.0278985783677985
-0.9200935886676254
-2.391012436102846
-2.391012436102846
-2.9387604587879093
-3.535744258793022
-2.298695353627811
-2.409475852597848
-2.4525571577528327
-2.4402482134228407
-2.446402685587851
-2.4279392690928487
-2.403321380432838
-2.4279392690928487
-2.3971669082678284
-2.3848579639378364
-2.409475852597848
-2.4217847969278394
-2.403321380432838
-2.335622186617841
-1.757101803107758
-1.9171180793977614
-2.3110042979578305
-2.335622186617841
-2.3848579639378364
-2.434093741257831
-2.4217847969278394
-2.409475852597848
-2.409475852597848
-2.4279392690928487
-2.4217847969278394
-2.3971669082678284
-2.391012436102846
-2.4217847969278394
-2.9387604587879093
-3.018768596932925
-2.471020574247862
-2.477175046412844
-2.4217847969278394
-2.3848579639378364
-2.3663945474428347
-2.372549019607845
-2.3848579639378364
-2.335622186617841
-2.347931130947833
-2.4217847969278394
-2.3663945474428347
-2.323313242287821
-2.347931130947833
-2.711044988682881
-2.495638462907845
-2.323313242287821
-2.335622186617841
-2.329467714452832
-2.347931130947833
-2.335622186617841
-2.335622186617841
-2.323313242287821
-2.3540856031128428
-2.323313242287821
-2.3417766587828237
-2.3110042979578305
-1.818646524757745
-1.0616464484626553
-1.6340123598077294
-2.187914854657802
-2.618727906207874
-2.403321380432838
-2.3971669082678284
-2.3848579639378364
-2.329467714452832
-2.3417766587828237
-2.378703491772827
-2.378703491772827
-2.3540856031128428
-2.329467714452832
-2.55102871239285
-3.468045064977998
-2.871061264972913
-2.4648661020828517
-2.4217847969278394
-2.391012436102846
-2.3848579639378364
-2.329467714452832
-2.403321380432838
-2.372549019607845
-2.323313242287821
-2.329467714452832
-2.335622186617841
-2.372549019607845
-2.335622186617841
-2.329467714452832
-2.4279392690928487
-2.3417766587828237
-2.3417766587828237
-2.329467714452832
-2.3171587701228398
-2.3417766587828237
-2.3171587701228398
-2.2925408814628288
-2.4279392690928487
-2.347931130947833
-2.329467714452832
-2.323313242287821
-2.2925408814628288
-2.2371506319778245
-2.3848579639378364
-2.3171587701228398
-2.372549019607845
-2.360240075277825
-2.347931130947833
-2.347931130947833
-2.4217847969278394
-2.4156303247628297
-2.409475852597848
-2.3848579639378364
-2.3663945474428347
-2.3540856031128428
-2.335622186617841
-2.2740774649678275
-2.403321380432838
-2.360240075277825
-1.9417359680577726
-0.8339309783576276
-2.194069326822812
-2.2679229928028177
-2.2925408814628288
-2.286386409297819
-2.2925408814628288
-2.3848579639378364
-2.858752320642893
-3.4988174258030194
-2.544874240227868
-2.3171587701228398
-2.4279392690928487
-2.3663945474428347
-2.304849825792821
-2.329467714452832
-2.2371506319778245
-2.3848579639378364
-2.360240075277825
-2.3110042979578305
-2.304849825792821
-2.329467714452832
-2.3110042979578305
-2.4279392690928487
-2.224841687647805
-2.2679229928028177
-2.434093741257831
-2.360240075277825
-2.347931130947833
-2.335622186617841
-2.3110042979578305
-2.2925408814628288
-2.2371506319778245
-2.4156303247628297
-2.3540856031128428
-2.335622186617841
-2.347931130947833
-2.304849825792821
-2.255614048472826
-1.972508328882766
-1.4863050278477177
-2.052516467027782
-2.255614048472826
-2.2679229928028177
-2.304849825792821
-2.360240075277825
-2.3971669082678284
-2.3171587701228398
-2.3110042979578305
-2.3540856031128428
-2.360240075277825
-2.3110042979578305
-2.2925408814628288
-2.483329518577854
-3.1480125123979352
-2.6371913227028756
-2.3663945474428347
-2.3663945474428347
-2.3663945474428347
-2.360240075277825
-2.335622186617841
-2.372549019607845
-2.335622186617841
-1.9048091350677696
-2.0278985783677985
-2.667963683527869
-2.68642710002287
-2.360240075277825
-2.150988021667799
-2.298695353627811
-2.3663945474428347
-2.3663945474428347
-2.3848579639378364
-2.378703491772827
-2.360240075277825
-2.403321380432838
-2.391012436102846
-2.3848579639378364
-2.3540856031128428
-2.2740774649678275
-2.409475852597848
-2.372549019607845
-2.544874240227868
-2.538719768062857
-2.403321380432838
-2.3540856031128428
-2.347931130947833
-2.2802319371328093
-2.434093741257831
-2.391012436102846
-2.403321380432838
-2.3971669082678284
-2.3663945474428347
-2.3417766587828237
-2.3110042979578305
-2.2925408814628288
-2.3171587701228398
-2.4587116299178424
-2.3848579639378364
-2.329467714452832
-2.323313242287821
-2.329467714452832
-2.2740774649678275
-2.2740774649678275
-2.3971669082678284
-2.347931130947833
-2.298695353627811
-2.3110042979578305
-2.298695353627811
-2.304849825792821
-2.1448335495027893
-2.3848579639378364
-2.471020574247862
-2.347931130947833
-2.329467714452832
-2.323313242287821
-2.335622186617841
-2.347931130947833
-2.2925408814628288
-2.3848579639378364
-2.391012436102846
-2.3540856031128428
-1.9478904402227823
-0.7846952010376053
-2.200223798987821
-2.483329518577854
-2.6618092113628857
-3.597288980443037
-2.7910531268278973
-2.391012436102846
-2.3110042979578305
-2.323313242287821
-2.3171587701228398
-2.3171587701228398
-2.304849825792821
-2.3417766587828237
-2.3540856031128428
-2.329467714452832
-1.9355814958927628
-1.3016708628976748
-2.0586709391927913
-2.255614048472826
-1.5847765824877347
-0.8093130896976164
-2.089443300017785
-2.600264489712873
-2.409475852597848
-2.323313242287821
-2.2740774649678275
-2.347931130947833
-3.1972482897179852
-3.301874316522985
-2.6925815721878803
-3.412654815492993
-2.815671015487909
-2.477175046412844
-2.4217847969278394
-2.3848579639378364
-2.378703491772827
-2.378703491772827
-2.3540856031128428
-2.3540856031128428
-2.347931130947833
-2.335622186617841
-2.335622186617841
-2.335622186617841
-2.2802319371328093
-2.3171587701228398
-2.4402482134228407
-2.3663945474428347
-2.3417766587828237
-2.335622186617841
-2.329467714452832
-2.3171587701228398
-2.3110042979578305
-2.4402482134228407
-2.329467714452832
-2.3663945474428347
-2.3848579639378364
-2.3540856031128428
-2.323313242287821
-2.2433051041428067
-2.4648661020828517
-2.4156303247628297
-2.378703491772827
-2.378703491772827
-2.403321380432838
-2.3971669082678284
-2.3848579639378364
-2.409475852597848
-2.3848579639378364
-2.347931130947833
-2.360240075277825
-2.347931130947833
-2.3171587701228398
-2.323313242287821
-2.471020574247862
-2.329467714452832
-2.409475852597848
-2.4217847969278394
-2.4156303247628297
-2.3663945474428347
-2.372549019607845
-2.3848579639378364
-2.323313242287821
-2.304849825792821
-2.003280689707787
-2.520256351567857
-2.575646601052861
-2.304849825792821
-2.391012436102846
-2.372549019607845
-2.378703491772827
-2.347931130947833
-2.372549019607845
-2.372549019607845
-2.4217847969278394
-2.391012436102846
-2.360240075277825
-2.372549019607845
-2.391012436102846
-2.3663945474428347
-2.378703491772827
-2.304849825792821
-2.538719768062857
-2.501792935072855
-2.3971669082678284
-2.3971669082678284
-2.329467714452832
-2.3110042979578305
-2.4648661020828517
-2.347931130947833
-2.329467714452832
-2.372549019607845
-2.347931130947833
-2.3417766587828237
-2.261768520637808
-2.261768520637808
-2.6064189618778553
-2.471020574247862
-2.3663945474428347
-2.3663945474428347
-2.409475852597848
-2.403321380432838
-2.2186872154828228
-1.4062968897027015
-1.7878741639327511
-2.2309961598128147
-2.335622186617841
-2.3848579639378364
-2.372549019607845
-2.2740774649678275
-2.575646601052861
-3.6219068691030203
-2.8279799598179
-2.5325652958978484
-2.446402685587851
-2.4279392690928487
-2.434093741257831
-2.446402685587851
-2.403321380432838
-2.446402685587851
-2.446402685587851
-2.4156303247628297
-2.378703491772827
-2.329467714452832
-2.1325246051727973
-2.347931130947833
-2.3171587701228398
-2.347931130947833
-2.3417766587828237
-2.3848579639378364
-2.403321380432838
-2.4217847969278394
-2.471020574247862
-2.477175046412844
-2.4217847969278394
-2.409475852597848
-2.3848579639378364
-2.507947407237865
-2.631036850537866
-2.624882378372884
-2.391012436102846
-2.3417766587828237
-2.335622186617841
-2.471020574247862
-2.446402685587851
-2.3971669082678284
-2.3971669082678284
-2.403321380432838
-2.378703491772827
-2.3540856031128428
-2.3848579639378364
-2.391012436102846
-2.3540856031128428
-2.4525571577528327
-2.391012436102846
-2.378703491772827
-2.378703491772827
-2.3540856031128428
-2.378703491772827
-2.4402482134228407
-2.409475852597848
-2.391012436102846
-2.4279392690928487
-2.434093741257831
-2.4217847969278394
-2.3663945474428347
-2.0955977721827947
-2.729508405177883
-2.7848986546628876
-2.477175046412844
-2.3848579639378364
-2.372549019607845
-2.391012436102846
-2.4402482134228407
-2.403321380432838
-2.3848579639378364
-2.3848579639378364
-2.378703491772827
-2.403321380432838
-2.391012436102846
-2.194069326822812
-2.200223798987821
-2.391012436102846
-2.403321380432838
-2.360240075277825
-2.347931130947833
-2.3417766587828237
-2.3540856031128428
-2.347931130947833
-2.2802319371328093
-2.360240075277825
-2.347931130947833
-2.335622186617841
-2.261768520637808
-2.2186872154828228
-2.3171587701228398
-2.360240075277825
-2.224841687647805
-2.360240075277825
-2.3171587701228398
-2.335622186617841
-2.323313242287821
-2.304849825792821
-2.304849825792821
-2.298695353627811
-2.2740774649678275
-2.4402482134228407
-2.3663945474428347
-2.255614048472826
-2.329467714452832
-2.4525571577528327
-2.372549019607845
-2.335622186617841
-2.2802319371328093
-2.4525571577528327
-2.3971669082678284
-2.372549019607845
-2.372549019607845
-2.3663945474428347
-2.3971669082678284
-2.360240075277825
-2.3171587701228398
-2.3171587701228398
-2.4217847969278394
-2.0955977721827947
-0.889321227842632
-2.261768520637808
-2.335622186617841
-2.526410823732866
-3.5911345082780266
-2.901833625797906
-2.4587116299178424
-2.378703491772827
-2.3663945474428347
-2.360240075277825
-2.304849825792821
-2.3171587701228398
-2.3971669082678284
-2.471020574247862
-2.360240075277825
-2.3848579639378364
-2.372549019607845
-2.360240075277825
-2.3417766587828237
-2.3171587701228398
-2.360240075277825
-2.329467714452832
-2.3110042979578305
-2.329467714452832
-2.329467714452832
-2.298695353627811
-2.187914854657802
-2.3110042979578305
-2.4217847969278394
-2.372549019607845
-2.335622186617841
-2.335622186617841
-2.3110042979578305
-2.3171587701228398
-2.3110042979578305
-2.2433051041428067
-2.3417766587828237
-2.3171587701228398
-2.2925408814628288
-2.2309961598128147
-2.1079067165127863
-2.347931130947833
-2.329467714452832
-2.2679229928028177
-2.329467714452832
-2.3663945474428347
-2.3171587701228398
-2.3417766587828237
-2.347931130947833
-2.360240075277825
-2.3663945474428347
-2.304849825792821
-2.4217847969278394
-2.335622186617841
-2.255614048472826
-2.446402685587851
-2.3848579639378364
-2.329467714452832
-2.323313242287821
-2.304849825792821
-2.329467714452832
-2.360240075277825
-2.323313242287821
-1.954044912387765
-2.2925408814628288
-2.618727906207874
-2.378703491772827
-2.286386409297819
-2.2740774649678275
-2.286386409297819
-2.3110042979578305
-2.323313242287821
-2.3110042979578305
-2.3110042979578305
-2.3171587701228398
-2.3171587701228398
-2.3110042979578305
-2.3110042979578305
-2.298695353627811
-2.323313242287821
-2.2740774649678275
-2.2679229928028177
-2.175605910327811
-2.329467714452832
-2.3663945474428347
-2.261768520637808
-2.255614048472826
-2.261768520637808
-2.2802319371328093
-2.261768520637808
-1.7940286360977609
-1.1662724752676545
-1.91096360723278
-2.120215660842805
-2.212532743317813
-2.2433051041428067
-2.1571424938328088
-2.1571424938328088
-3.0618499020879373
-3.400345871163002
-2.501792935072855
-2.3110042979578305
-2.255614048472826
-2.255614048472826
-2.2433051041428067
-2.194069326822812
-2.1263701330077875
-2.3110042979578305
-2.286386409297819
-2.2679229928028177
-2.2063782711528033
-2.212532743317813
-2.409475852597848
-2.286386409297819
-2.255614048472826
-2.3540856031128428
-2.323313242287821
-2.323313242287821
-2.329467714452832
-2.3417766587828237
-2.360240075277825
-2.114061188677796
-0.7600773123775938
-0.4400447597975588
-1.8124920525927626
-2.347931130947833
-2.434093741257831
-2.735662877342893
-3.394191398997992
-3.1972482897179852
-3.806541034053064
-3.0126141247679152
-2.4217847969278394
-2.329467714452832
-2.3540856031128428
-2.4156303247628297
-2.446402685587851
-2.4648661020828517
-2.4894839907428636
-2.2679229928028177
-2.403321380432838
-2.495638462907845
-2.471020574247862
-2.434093741257831
-2.4279392690928487
-1.9294270237277809
-2.4402482134228407
-2.6925815721878803
-2.378703491772827
-2.304849825792821
-2.298695353627811
-2.2925408814628288
-2.2433051041428067
-2.1325246051727973
-2.298695353627811
-2.298695353627811
-2.2925408814628288
-2.3110042979578305
-2.323313242287821
-2.329467714452832
-2.323313242287821
-2.3417766587828237
-2.3971669082678284
-2.360240075277825
-2.261768520637808
-1.104727753617668
-1.4247603061977032
-1.966353856717784
-1.8740367742427766
-2.3171587701228398
-3.5418987309580316
-3.1049312072429505
-2.434093741257831
-2.335622186617841
-2.3540856031128428
-2.329467714452832
-2.304849825792821
-2.3417766587828237
-2.3971669082678284
-2.3848579639378364
-2.3171587701228398
-2.446402685587851
-2.883370209302905
-2.563337656722869
-2.335622186617841
-2.2679229928028177
-2.378703491772827
-2.3110042979578305
-2.323313242287821
-2.304849825792821
-2.3110042979578305
-2.329467714452832
-2.286386409297819
-2.2802319371328093
-2.3171587701228398
-2.2802319371328093
-2.224841687647805
-2.3171587701228398
-2.304849825792821
-2.3110042979578305
-2.261768520637808
-2.2679229928028177
-2.3171587701228398
-2.286386409297819
-2.261768520637808
-2.2740774649678275
-2.3171587701228398
-2.304849825792821
-2.3540856031128428
-2.2371506319778245
-2.194069326822812
-2.403321380432838
-2.3110042979578305
-2.2679229928028177
-2.2433051041428067
-2.2433051041428067
-2.200223798987821
-2.2309961598128147
-2.2371506319778245
-2.255614048472826
-2.255614048472826
-2.261768520637808
-2.261768520637808
-2.2309961598128147
-2.0463619948628
-2.286386409297819
-2.2802319371328093
-2.2740774649678275
-2.261768520637808
-2.261768520637808
-2.249459576307816
-2.2679229928028177
-2.175605910327811
-1.972508328882766
-2.5694921288878514
-2.507947407237865
-2.3417766587828237
-2.323313242287821
-2.434093741257831
-2.471020574247862
-2.298695353627811
-2.3971669082678284
-2.372549019607845
-2.009435161872797
-1.221662724752659
-2.0217441062027888
-2.255614048472826
-2.403321380432838
-3.4803540093080176
-3.1295490959029335
-2.526410823732866
-2.3971669082678284
-1.9294270237277809
-1.7817196917677414
-2.2802319371328093
-2.323313242287821
-2.3540856031128428
-2.347931130947833
-2.329467714452832
-2.304849825792821
-2.2925408814628288
-2.3171587701228398
-2.323313242287821
-2.2740774649678275
-2.2925408814628288
-2.298695353627811
-2.612573434042864
-3.0618499020879373
-2.495638462907845
-2.3663945474428347
-2.347931130947833
-2.3848579639378364
-2.323313242287821
-2.3110042979578305
-2.372549019607845
-2.360240075277825
-2.3417766587828237
-2.403321380432838
-2.434093741257831
-2.3171587701228398
-2.3848579639378364
-2.4279392690928487
-2.4525571577528327
-2.4156303247628297
-2.403321380432838
-2.3848579639378364
-2.409475852597848
-2.372549019607845
-2.471020574247862
-2.4525571577528327
-2.477175046412844
-2.4648661020828517
-2.434093741257831
-2.372549019607845
-2.3417766587828237
-2.403321380432838
-2.6371913227028756
-2.526410823732866
-2.477175046412844
-2.483329518577854
-2.471020574247862
-2.446402685587851
-2.434093741257831
-2.4525571577528327
-2.55102871239285
-2.446402685587851
-2.4402482134228407
-2.083288827852803
-2.378703491772827
-2.723353933012873
-2.563337656722869
-2.4279392690928487
-2.507947407237865
-2.4402482134228407
-2.4156303247628297
-2.3971669082678284
-2.4217847969278394
-2.409475852597848
-2.372549019607845
-2.3663945474428347
-2.4217847969278394
-2.347931130947833
-2.3171587701228398
-2.286386409297819
-2.4402482134228407
-2.4156303247628297
-2.329467714452832
-2.3971669082678284
-2.4587116299178424
-2.4156303247628297
-2.446402685587851
-2.471020574247862
-2.4648661020828517
-2.4525571577528327
-2.4587116299178424
-2.4648661020828517
-2.4648661020828517
-2.434093741257831
-2.5941100175478624
-2.526410823732866
-2.520256351567857
-2.544874240227868
-2.4217847969278394
-2.55718318455786
-2.575646601052861
-2.563337656722869
-2.55718318455786
-2.520256351567857
-2.5325652958978484
-2.544874240227868
-2.477175046412844
-2.471020574247862
-2.6064189618778553
-2.575646601052861
-2.520256351567857
-2.4525571577528327
-2.4648661020828517
-2.483329518577854
-2.483329518577854
-2.4648661020828517
-2.4648661020828517
-2.4648661020828517
-2.477175046412844
-2.495638462907845
-2.3971669082678284
-1.9048091350677696
-1.184735891762656
-2.1079067165127863
-2.2925408814628288
-2.403321380432838
-2.4402482134228407
-2.495638462907845
-2.4648661020828517
-2.507947407237865
-3.554207675288024
-3.326492205182996
-2.618727906207874
-2.4894839907428636
-2.471020574247862
-2.446402685587851
-2.471020574247862
-2.4525571577528327
-2.4279392690928487
-2.5141018794028467
-2.4587116299178424
-2.409475852597848
-2.4217847969278394
-2.4525571577528327
-2.434093741257831
-2.4156303247628297
-2.4402482134228407
-2.477175046412844
-2.4217847969278394
-2.3663945474428347
-2.4402482134228407
-2.5325652958978484
-2.4525571577528327
-2.4525571577528327
-2.446402685587851
-2.483329518577854
-2.446402685587851
-2.4156303247628297
-2.4402482134228407
-2.446402685587851
-2.4217847969278394
-1.954044912387765
-0.7846952010376053
-1.9355814958927628
-2.711044988682881
-2.6064189618778553
-2.409475852597848
-2.3848579639378364
-2.409475852597848
-2.9572238752829105
-3.548053203123014
-2.6987360443528896
-2.4587116299178424
-2.4156303247628297
-2.360240075277825
-2.360240075277825
-2.3417766587828237
-2.2186872154828228
-2.286386409297819
-2.477175046412844
-2.434093741257831
-2.360240075277825
-2.3540856031128428
-2.4279392690928487
-2.329467714452832
-2.286386409297819
-2.372549019607845
-2.323313242287821
-2.347931130947833
-2.347931130947833
-2.2925408814628288
-2.323313242287821
-2.261768520637808
-2.4279392690928487
-2.4402482134228407
-2.3971669082678284
-2.391012436102846
-2.3971669082678284
-2.360240075277825
-2.403321380432838
-2.4156303247628297
-2.378703491772827
-2.434093741257831
-2.3417766587828237
-2.335622186617841
-2.323313242287821
-2.1817603824928202
-2.2186872154828228
-2.335622186617841
-2.4156303247628297
-2.3971669082678284
-2.347931130947833
-2.3848579639378364
-2.372549019607845
-2.3417766587828237
-2.335622186617841
-2.3171587701228398
-2.3417766587828237
-2.3110042979578305
-2.286386409297819
-2.3417766587828237
-2.5694921288878514
-2.4217847969278394
-2.335622186617841
-2.2433051041428067
-1.9294270237277809
-2.3110042979578305
-2.575646601052861
-2.298695353627811
-2.255614048472826
-2.2679229928028177
-2.249459576307816
-2.194069326822812
-2.2925408814628288
-2.298695353627811
-2.2802319371328093
-2.2740774649678275
-2.255614048472826
-2.2925408814628288
-2.2740774649678275
-2.194069326822812
-2.3417766587828237
-2.329467714452832
-1.9601993845527748
-1.0985732814526583
-1.830955469087764
-2.1448335495027893
-2.224841687647805
-3.0987767350779407
-3.2095572340479768
-2.563337656722869
-2.3540856031128428
-2.298695353627811
-2.2371506319778245
-2.3171587701228398
-2.3417766587828237
-2.261768520637808
-2.323313242287821
-2.286386409297819
-2.2925408814628288
-2.261768520637808
-2.2186872154828228
-2.1571424938328088
-2.175605910327811
-2.335622186617841
-2.2802319371328093
-2.261768520637808
-2.2679229928028177
-2.2433051041428067
-2.224841687647805
-2.194069326822812
-2.175605910327811
-2.2433051041428067
-2.255614048472826
-2.2186872154828228
-2.212532743317813
-2.2309961598128147
-2.175605910327811
-2.3971669082678284
-2.3171587701228398
-2.347931130947833
-2.347931130947833
-2.2802319371328093
-2.3171587701228398
-2.335622186617841
-2.2925408814628288
-2.2679229928028177
-2.2186872154828228
-2.2802319371328093
-2.2802319371328093
-2.1694514381628007
-2.0955977721827947
-2.347931130947833
-2.304849825792821
-2.224841687647805
-2.1817603824928202
-2.298695353627811
-2.329467714452832
-2.2925408814628288
-2.249459576307816
-2.298695353627811
-2.3110042979578305
-2.2802319371328093
-2.1817603824928202
-2.2925408814628288
-2.2433051041428067
-2.391012436102846
-1.9417359680577726
-2.261768520637808
-2.655654739197877
-2.335622186617841
-2.2371506319778245
-2.347931130947833
-2.3417766587828237
-2.298695353627811
-2.2186872154828228
-2.2433051041428067
-2.329467714452832
-2.3110042979578305
-2.2309961598128147
-2.329467714452832
-2.347931130947833
-2.3110042979578305
-2.2925408814628288
-2.2802319371328093
-2.329467714452832
-2.3171587701228398
-2.2679229928028177
-2.329467714452832
-2.298695353627811
-2.323313242287821
-2.304849825792821
-2.249459576307816
-2.2802319371328093
-2.3540856031128428
-2.360240075277825
-2.409475852597848
-2.3110042979578305
-2.323313242287821
-2.3110042979578305
-2.286386409297819
-2.286386409297819
-2.335622186617841
-2.261768520637808
-2.323313242287821
-2.304849825792821
-2.298695353627811
-2.255614048472826
-2.2740774649678275
-2.3171587701228398
-2.261768520637808
-2.2802319371328093
-2.286386409297819
-2.255614048472826
-2.261768520637808
-2.304849825792821
-2.304849825792821
-2.3110042979578305
-2.3171587701228398
-2.4402482134228407
-2.378703491772827
-2.304849825792821
-2.2802319371328093
-2.3848579639378364
-2.3540856031128428
-1.990971745377768
-1.2401261412476885
-1.91096360723278
-2.138679077337807
-2.224841687647805
-2.224841687647805
-2.2740774649678275
-2.2925408814628288
-2.2309961598128147
-3.1295490959029335
-3.258793011367972
-2.4279392690928487
-2.4648661020828517
-2.329467714452832
-2.329467714452832
-2.335622186617841
-2.3171587701228398
-2.261768520637808
-2.298695353627811
-2.3110042979578305
-2.3110042979578305
-2.261768520637808
-2.2433051041428067
-2.2371506319778245
-2.249459576307816
-2.1448335495027893
-2.347931130947833
-2.286386409297819
-2.261768520637808
-2.2186872154828228
-2.200223798987821
-2.261768520637808
-2.2679229928028177
-2.224841687647805
-2.194069326822812
-2.2433051041428067
-2.2433051041428067
-2.224841687647805
-2.1817603824928202
-2.1017522443478045
-2.360240075277825
-2.323313242287821
-2.249459576307816
-2.2371506319778245
-2.224841687647805
-2.2371506319778245
-2.1694514381628007
-2.187914854657802
-1.6524757763027313
-2.2740774649678275
-2.5325652958978484
-2.1817603824928202
-2.150988021667799
-2.0278985783677985
-2.0463619948628
-2.120215660842805
-2.138679077337807
-2.187914854657802
-2.138679077337807
-2.114061188677796
-2.150988021667799
-2.175605910327811
-2.200223798987821
-2.1325246051727973
-1.7817196917677414
-2.1694514381628007
-2.55718318455786
-2.261768520637808
-2.360240075277825
-2.329467714452832
-2.255614048472826
-2.2063782711528033
-2.1571424938328088
-2.360240075277825
-2.261768520637808
-2.298695353627811
-2.1817603824928202
-2.3171587701228398
-2.2371506319778245
-2.1694514381628007
-2.200223798987821
-2.2309961598128147
-2.2063782711528033
-2.2740774649678275
-2.224841687647805
-2.2433051041428067
-2.261768520637808
-2.224841687647805
-2.1817603824928202
-2.3110042979578305
-2.286386409297819
-2.261768520637808
-2.261768520637808
-2.298695353627811
-2.335622186617841
-2.249459576307816
-2.2925408814628288
-2.3417766587828237
-2.3540856031128428
-2.3540856031128428
-2.2802319371328093
-2.3110042979578305
-2.347931130947833
-2.347931130947833
-2.323313242287821
-2.3110042979578305
-2.3663945474428347
-2.391012436102846
-2.323313242287821
-2.249459576307816
-2.2740774649678275
-2.2802319371328093
-0.9077846443376336
-2.1263701330077875
-2.3417766587828237
-2.372549019607845
-2.3971669082678284
-2.3540856031128428
-2.3540856031128428
-2.8895246814679143
-3.615752396938038
-2.667963683527869
-2.1017522443478045
-1.2832074464026733
-1.861727829912757
-2.329467714452832
-2.347931130947833
-3.0249230690979347
-3.535744258793022
-2.600264489712873
-2.372549019607845
-2.3848579639378364
-2.3971669082678284
-2.372549019607845
-2.304849825792821
-2.323313242287821
-2.3663945474428347
-2.2925408814628288
-2.2371506319778245
-2.446402685587851
-2.403321380432838
-2.347931130947833
-2.298695353627811
-2.329467714452832
-2.3971669082678284
-2.3848579639378364
-2.335622186617841
-2.323313242287821
-2.360240075277825
-2.360240075277825
-2.298695353627811
-2.2679229928028177
-2.304849825792821
-2.360240075277825
-2.335622186617841
-2.323313242287821
-2.3171587701228398
-2.3540856031128428
-2.261768520637808
-2.286386409297819
-2.3848579639378364
-2.3417766587828237
-2.3171587701228398
-2.298695353627811
-2.329467714452832
-2.323313242287821
-2.138679077337807
-1.7078660257877356
-2.1571424938328088
-2.323313242287821
-2.2925408814628288
-2.2309961598128147
-2.2802319371328093
-2.329467714452832
-2.378703491772827
-2.304849825792821
-2.298695353627811
-2.347931130947833
-2.3540856031128428
-2.255614048472826
-2.4217847969278394
-3.037232013427927
-2.600264489712873
-2.4402482134228407
-2.4156303247628297
-2.378703491772827
-2.0586709391927913
-2.434093741257831
-2.6371913227028756
-2.3971669082678284
-2.304849825792821
-2.409475852597848
-2.347931130947833
-2.323313242287821
-2.286386409297819
-2.194069326822812
-2.347931130947833
-2.2679229928028177
-2.2925408814628288
-2.360240075277825
-2.329467714452832
-2.298695353627811
-2.3417766587828237
-2.3110042979578305
-2.3110042979578305
-2.2925408814628288
-2.261768520637808
-2.372549019607845
-2.255614048472826
-2.286386409297819
-2.501792935072855
-2.4156303247628297
-2.3663945474428347
-2.2925408814628288
-2.2679229928028177
-2.360240075277825
-2.261768520637808
-2.2186872154828228
-2.304849825792821
-2.347931130947833
-2.3848579639378364
-2.3171587701228398
-2.261768520637808
-2.347931130947833
-2.4894839907428636
-2.378703491772827
-2.3171587701228398
-2.3110042979578305
-2.3110042979578305
-2.2925408814628288
-2.255614048472826
-2.2925408814628288
-2.2802319371328093
-2.2740774649678275
-2.212532743317813
-2.2679229928028177
-2.304849825792821
-2.1079067165127863
-1.990971745377768
-2.212532743317813
-2.261768520637808
-2.2309961598128147
-2.2063782711528033
-2.224841687647805
-1.9171180793977614
-1.6032399989827366
-3.080313318582939
-2.477175046412844
-2.347931130947833
-2.329467714452832
-2.249459576307816
-2.372549019607845
-2.7418173495078744
-2.3848579639378364
-2.403321380432838
-2.304849825792821
-2.3110042979578305
-2.3171587701228398
-2.2802319371328093
-2.261768520637808
-2.2740774649678275
-2.2371506319778245
-2.3110042979578305
-2.261768520637808
-2.2433051041428067
-2.1325246051727973
-2.1571424938328088
-2.329467714452832
-2.2740774649678275
-2.249459576307816
-2.378703491772827
-2.286386409297819
-2.2925408814628288
-2.335622186617841
-2.323313242287821
-2.304849825792821
-2.2679229928028177
-2.261768520637808
-2.2679229928028177
-2.1571424938328088
-2.1017522443478045
-2.3110042979578305
-2.3110042979578305
-2.2371506319778245
-2.2063782711528033
-2.2309961598128147
-2.347931130947833
-2.255614048472826
-2.224841687647805
-2.286386409297819
-2.2925408814628288
-2.286386409297819
-2.2433051041428067
-2.2186872154828228
-2.298695353627811
-2.4217847969278394
-2.2679229928028177
-2.261768520637808
-2.286386409297819
-2.304849825792821
-2.304849825792821
-2.255614048472826
-2.261768520637808
-2.3171587701228398
-2.286386409297819
-2.249459576307816
-2.2740774649678275
-2.212532743317813
-1.818646524757745
-2.298695353627811
-2.587955545382853
-2.3110042979578305
-2.2802319371328093
-2.2186872154828228
-2.224841687647805
-2.2679229928028177
-2.175605910327811
-2.2433051041428067
-2.255614048472826
-2.2740774649678275
-2.2186872154828228
-2.1694514381628007
-2.114061188677796
-2.304849825792821
-2.212532743317813
-2.3417766587828237
-2.249459576307816
-2.2925408814628288
-2.2802319371328093
-2.2309961598128147
-2.2309961598128147
-2.286386409297819
-2.3171587701228398
-2.1571424938328088
-2.194069326822812
-2.194069326822812
-2.1079067165127863
-2.323313242287821
-2.224841687647805
-2.194069326822812
-2.200223798987821
-2.2679229928028177
-2.1571424938328088
-2.1632969659978185
-2.212532743317813
-2.194069326822812
-2.1448335495027893
-2.114061188677796
-2.1263701330077875
-2.224841687647805
-2.138679077337807
-2.2309961598128147
-2.255614048472826
-2.2186872154828228
-2.194069326822812
-2.1079067165127863
-2.1817603824928202
-2.2740774649678275
-2.200223798987821
-2.1694514381628007
-2.187914854657802
-2.1817603824928202
-2.1694514381628007
-2.1694514381628007
-2.120215660842805
-2.1632969659978185
-1.861727829912757
-1.0124106711426328
-1.8001831082627426
-2.070979883522784
-2.1263701330077875
-2.600264489712873
-3.424963759823013
-2.587955545382853
-2.3110042979578305
-2.2433051041428067
-2.2186872154828228
-2.212532743317813
-2.114061188677796
-1.6217034154777374
-1.9971262175427773
-2.175605910327811
-2.1632969659978185
-2.1079067165127863
-2.0955977721827947
-2.1571424938328088
-2.150988021667799
-2.064825411357801
-2.070979883522784
-2.089443300017785
-2.1079067165127863
-2.089443300017785
-2.1017522443478045
-2.618727906207874
-2.4525571577528327
-2.120215660842805
-2.120215660842805
-2.077134355687793
-2.089443300017785
-2.1079067165127863
-2.070979883522784
-2.0586709391927913
-2.064825411357801
-2.04020752269779
-2.187914854657802
-2.1325246051727973
-2.120215660842805
-2.0340530505327803
-2.1571424938328088
-2.1263701330077875
-2.1571424938328088
-2.150988021667799
-2.200223798987821
-2.150988021667799
-2.1632969659978185
-2.200223798987821
-2.150988021667799
-2.089443300017785
-2.1079067165127863
-2.1448335495027893
-2.1571424938328088
-2.0340530505327803
-2.249459576307816
-2.2679229928028177
-2.255614048472826
-2.1817603824928202
-1.9294270237277809
-1.0308740876376343
-1.3816790010426905
-2.3417766587828237
-2.3171587701228398
-2.212532743317813
-2.194069326822812
-2.187914854657802
-2.544874240227868
-3.3141832608529764
-2.631036850537866
-2.335622186617841
-2.212532743317813
-2.224841687647805
-2.2740774649678275
-2.2433051041428067
-2.200223798987821
-2.2679229928028177
-2.286386409297819
-2.2679229928028177
-2.224841687647805
-2.200223798987821
-2.194069326822812
-2.1079067165127863
-2.1817603824928202
-2.347931130947833
-2.329467714452832
-2.323313242287821
-2.2925408814628288
-2.2925408814628288
-2.304849825792821
-2.298695353627811
-2.2309961598128147
-2.304849825792821
-2.2679229928028177
-2.286386409297819
-2.1817603824928202
-2.015589634037779
-2.1694514381628007
-2.323313242287821
-2.2433051041428067
-2.2371506319778245
-2.2309961598128147
-2.2802319371328093
-2.261768520637808
-2.187914854657802
-2.175605910327811
-2.2063782711528033
-2.187914854657802
-2.212532743317813
-2.1448335495027893
-2.0955977721827947
-2.200223798987821
-2.391012436102846
-2.2371506319778245
-2.224841687647805
-2.261768520637808
-2.2802319371328093
-2.2371506319778245
-2.298695353627811
-2.3171587701228398
-2.2925408814628288
-1.9232725515627715
-1.4124513618677115
-3.277256427862973
-2.624882378372884
-2.2309961598128147
-2.409475852597848
-2.3663945474428347
-2.347931130947833
-2.304849825792821
-2.2679229928028177
-2.409475852597848
-2.4156303247628297
-2.3110042979578305
-2.2740774649678275
-2.329467714452832
-2.3417766587828237
-2.286386409297819
-2.150988021667799
-2.286386409297819
-2.477175046412844
-2.298695353627811
-2.261768520637808
-2.3171587701228398
-2.304849825792821
-2.2740774649678275
-2.194069326822812
-2.298695353627811
-2.323313242287821
-2.2925408814628288
-2.249459576307816
-2.255614048472826
-2.2802319371328093
-2.1632969659978185
-2.3171587701228398
-2.3171587701228398
-2.360240075277825
-2.3540856031128428
-2.347931130947833
-2.3663945474428347
-2.4156303247628297
-2.4217847969278394
-2.347931130947833
-2.4279392690928487
-2.4156303247628297
-2.4587116299178424
-2.4156303247628297
-2.2740774649678275
-2.55718318455786
-2.55102871239285
-2.477175046412844
-2.477175046412844
-2.4894839907428636
-2.507947407237865
-2.483329518577854
-2.4217847969278394
-2.4217847969278394
-2.4217847969278394
-2.4402482134228407
-2.483329518577854
-2.360240075277825
-2.3540856031128428
-2.507947407237865
-2.4279392690928487
-2.329467714452832
-1.990971745377768
-2.3971669082678284
-2.649500267032867
-2.3848579639378364
-2.391012436102846
-2.391012436102846
-2.3417766587828237
-2.2740774649678275
-1.7509473309427481
-2.4279392690928487
-2.7171994608478913
-2.372549019607845
-2.360240075277825
-2.347931130947833
-2.335622186617841
-2.3110042979578305
-2.304849825792821
-2.409475852597848
-2.372549019607845
-2.329467714452832
-2.335622186617841
-2.3848579639378364
-2.3971669082678284
-2.3171587701228398
-2.138679077337807
-1.6401668319727392
-2.0278985783677985
-2.2740774649678275
-2.2925408814628288
-2.304849825792821
-2.3540856031128428
-2.323313242287821
-2.255614048472826
-2.372549019607845
-2.3417766587828237
-2.3971669082678284
-2.249459576307816
-2.2371506319778245
-2.4217847969278394
-3.0618499020879373
-2.674118155692878
-2.446402685587851
-2.3971669082678284
-2.3663945474428347
-2.335622186617841
-2.329467714452832
-2.409475852597848
-2.409475852597848
-2.3171587701228398
-2.3110042979578305
-2.3110042979578305
-2.347931130947833
-2.249459576307816
-2.175605910327811
-2.4648661020828517
-2.3663945474428347
-2.3110042979578305
-2.2925408814628288
-1.9478904402227823
-1.1908903639276658
-1.9048091350677696
-2.1325246051727973
-2.286386409297819
-2.575646601052861
-3.6219068691030203
-2.766435238167886
-2.3848579639378364
-2.323313242287821
-2.581801073217871
-2.403321380432838
-2.378703491772827
-2.4525571577528327
-2.391012436102846
-2.329467714452832
-2.3110042979578305
-2.3417766587828237
-2.3848579639378364
-2.409475852597848
-2.3540856031128428
-2.3171587701228398
-2.4156303247628297
-2.255614048472826
-2.323313242287821
-2.3663945474428347
-2.3417766587828237
-2.3417766587828237
-2.298695353627811
-2.224841687647805
-2.409475852597848
-2.4156303247628297
-2.298695353627811
-2.2925408814628288
-2.409475852597848
-2.3971669082678284
-2.2740774649678275
-2.1694514381628007
-2.600264489712873
-2.526410823732866
-2.3848579639378364
-2.323313242287821
-2.360240075277825
-2.403321380432838
-2.335622186617841
-2.249459576307816
-2.391012436102846
-2.403321380432838
-2.3663945474428347
-2.335622186617841
-2.3417766587828237
-2.304849825792821
-2.187914854657802
-2.360240075277825
-2.501792935072855
-2.477175046412844
-2.434093741257831
-2.391012436102846
-2.3848579639378364
-2.4156303247628297
-2.335622186617841
-2.347931130947833
-2.347931130947833
-2.3171587701228398
-1.9294270237277809
-2.1817603824928202
-2.704890516517872
-2.477175046412844
-2.2433051041428067
-2.212532743317813
-2.1694514381628007
-2.200223798987821
-2.224841687647805
-2.224841687647805
-2.255614048472826
-2.335622186617841
-2.4587116299178424
-2.3848579639378364
-2.2679229928028177
-2.255614048472826
-2.304849825792821
-2.403321380432838
-2.2925408814628288
-2.2371506319778245
-2.2309961598128147
-2.212532743317813
-2.120215660842805
-2.1017522443478045
-2.083288827852803
-2.04020752269779
-2.064825411357801
-2.003280689707787
-1.9786628010477763
-2.083288827852803
-2.0217441062027888
-2.150988021667799
-2.138679077337807
-2.1817603824928202
-2.1694514381628007
-2.1817603824928202
-2.261768520637808
-2.4587116299178424
-2.446402685587851
-2.4279392690928487
-2.501792935072855
-2.563337656722869
-2.520256351567857
-2.507947407237865
-2.0278985783677985
-2.070979883522784
-2.434093741257831
-2.4156303247628297
-2.372549019607845
-2.4156303247628297
-2.446402685587851
-2.4156303247628297
-2.378703491772827
-2.4217847969278394
-2.360240075277825
-2.507947407237865
-2.434093741257831
-2.4279392690928487
-2.520256351567857
-2.194069326822812
-3.4557361206480066
-3.092622262912931
-2.655654739197877
-2.563337656722869
-2.526410823732866
-2.538719768062857
-2.581801073217871
-2.3417766587828237
-0.8647033391826209
-1.8432644134177558
-2.754126293837894
-2.6433457948678853
-2.2309961598128147
-2.2925408814628288
-2.3417766587828237
-2.575646601052861
-3.5418987309580316
-2.655654739197877
-2.3110042979578305
-2.2802319371328093
-2.2186872154828228
-2.212532743317813
-2.2925408814628288
-2.3417766587828237
-2.4217847969278394
-2.3971669082678284
-2.335622186617841
-2.5325652958978484
-2.649500267032867
-2.526410823732866
-2.587955545382853
-2.600264489712873
-2.624882378372884
-2.587955545382853
-2.55718318455786
-2.55718318455786
-2.5141018794028467
-2.4156303247628297
-2.360240075277825
-2.347931130947833
-2.261768520637808
-1.8432644134177558
-2.0586709391927913
-2.187914854657802
-2.1817603824928202
-2.120215660842805
-2.083288827852803
-2.1263701330077875
-2.3110042979578305
-2.224841687647805
-2.175605910327811
-2.249459576307816
-2.323313242287821
-2.2740774649678275
-2.2371506319778245
-2.409475852597848
-2.501792935072855
-2.434093741257831
-2.3848579639378364
-2.403321380432838
-2.4894839907428636
-2.544874240227868
-2.501792935072855
-2.520256351567857
-2.674118155692878
-2.649500267032867
-2.624882378372884
-2.587955545382853
-2.612573434042864
-2.8279799598179
-2.797207598992907
-2.2309961598128147
-2.55102871239285
-2.883370209302905
-2.563337656722869
-2.4217847969278394
-2.391012436102846
-2.3971669082678284
-2.372549019607845
-2.2433051041428067
-2.304849825792821
-2.304849825792821
-2.2063782711528033
-2.175605910327811
-2.187914854657802
-2.194069326822812
-2.1263701330077875
-2.1325246051727973
-2.120215660842805
-2.187914854657802
-2.1694514381628007
-2.1325246051727973
-2.120215660842805
-2.187914854657802
-2.1571424938328088
-2.249459576307816
-2.200223798987821
-2.1325246051727973
-2.3663945474428347
-2.298695353627811
-2.2433051041428067
-2.2679229928028177
-2.2802319371328093
-2.3540856031128428
-2.2740774649678275
-2.286386409297819
-2.347931130947833
-2.335622186617841
-2.298695353627811
-2.3417766587828237
-2.3663945474428347
-2.446402685587851
-2.3110042979578305
-2.3848579639378364
-2.409475852597848
-2.4156303247628297
-2.403321380432838
-2.3417766587828237
-2.360240075277825
-2.378703491772827
-1.9294270237277809
-0.7970041453676248
-2.255614048472826
-2.347931130947833
-2.298695353627811
-2.3848579639378364
-3.609597924773028
-3.1480125123979352
-2.575646601052861
-2.4587116299178424
-2.446402685587851
-2.501792935072855
-2.4648661020828517
-2.3663945474428347
-2.3663945474428347
-2.4156303247628297
-2.360240075277825
-2.2925408814628288
-2.212532743317813
-2.2433051041428067
-2.3848579639378364
-2.4525571577528327
-2.261768520637808
-2.249459576307816
-2.261768520637808
-2.2309961598128147
-2.212532743317813
-2.2433051041428067
-2.298695353627811
-2.194069326822812
-2.224841687647805
-2.298695353627811
-2.304849825792821
-2.2186872154828228
-2.0340530505327803
-2.323313242287821
-2.3663945474428347
-2.255614048472826
-2.335622186617841
-2.3171587701228398
-2.372549019607845
-2.378703491772827
-2.335622186617841
-2.323313242287821
-2.3540856031128428
-2.3417766587828237
-2.3663945474428347
-2.298695353627811
-2.3171587701228398
-2.4648661020828517
-2.347931130947833
-2.304849825792821
-2.335622186617841
-2.372549019607845
-2.4648661020828517
-2.378703491772827
-2.391012436102846
-2.4279392690928487
-2.3971669082678284
-2.360240075277825
-2.329467714452832
-2.329467714452832
-2.212532743317813
-2.3417766587828237
-1.9355814958927628
-2.360240075277825
-2.655654739197877
-2.3663945474428347
-2.2740774649678275
-2.3110042979578305
-2.4279392690928487
-2.286386409297819
-2.2309961598128147
-2.2679229928028177
-2.261768520637808
-2.194069326822812
-2.0340530505327803
-2.249459576307816
-2.2679229928028177
-2.1694514381628007
-2.150988021667799
-2.2063782711528033
-2.255614048472826
-2.255614048472826
-2.194069326822812
-2.2309961598128147
-2.347931130947833
-2.3171587701228398
-2.2433051041428067
-2.2433051041428067
-2.212532743317813
-2.391012436102846
-1.8740367742427766
-2.3663945474428347
-2.729508405177883
-2.409475852597848
-2.3540856031128428
-2.329467714452832
-2.3663945474428347
-2.3848579639378364
-2.2740774649678275
-2.3417766587828237
-2.378703491772827
-2.3417766587828237
-2.2679229928028177
-2.347931130947833
-2.403321380432838
-2.360240075277825
-2.2371506319778245
-2.335622186617841
-2.329467714452832
-2.3171587701228398
-2.298695353627811
-2.2679229928028177
-2.261768520637808
-2.329467714452832
-2.2925408814628288
-2.286386409297819
-2.2371506319778245
-2.329467714452832
-2.4402482134228407
-2.3171587701228398
-1.9294270237277809
-1.2339716690826785
-2.9387604587879093
-3.049540957757918
-2.329467714452832
-2.2740774649678275
-2.2740774649678275
-2.224841687647805
-2.194069326822812
-2.200223798987821
-2.2309961598128147
-2.1632969659978185
-2.298695353627811
-2.2740774649678275
-2.323313242287821
-2.323313242287821
-2.3110042979578305
-2.3110042979578305
-2.3848579639378364
-2.3971669082678284
-2.335622186617841
-2.3171587701228398
-2.403321380432838
-2.4217847969278394
-2.304849825792821
-2.2433051041428067
-2.5325652958978484
-2.4217847969278394
-2.3417766587828237
-2.2802319371328093
-2.298695353627811
-2.3417766587828237
-2.286386409297819
-2.224841687647805
-2.255614048472826
-2.286386409297819
-2.249459576307816
-2.175605910327811
-2.194069326822812
-2.1694514381628007
-2.378703491772827
-2.2433051041428067
-2.261768520637808
-2.2925408814628288
-2.2925408814628288
-2.255614048472826
-2.249459576307816
-2.298695353627811
-2.2925408814628288
-2.1571424938328088
-2.298695353627811
-2.329467714452832
-2.3171587701228398
-2.1694514381628007
-2.391012436102846
-2.409475852597848
-2.3848579639378364
-2.304849825792821
-2.372549019607845
-2.3540856031128428
-2.378703491772827
-2.3540856031128428
-2.2925408814628288
-2.286386409297819
-1.9417359680577726
-2.3171587701228398
-2.544874240227868
-2.2740774649678275
-2.3110042979578305
-2.304849825792821
-2.2309961598128147
-2.194069326822812
-2.224841687647805
-2.2371506319778245
-2.2740774649678275
-2.224841687647805
-2.2802319371328093
-2.323313242287821
-2.2433051041428067
-2.2802319371328093
-2.224841687647805
-1.4062968897027015
-1.590931054652717
-1.9294270237277809
-2.2309961598128147
-2.2925408814628288
-2.255614048472826
-2.2309961598128147
-2.4648661020828517
-3.554207675288024
-2.754126293837894
-2.2925408814628288
-2.2433051041428067
-2.255614048472826
-2.200223798987821
-2.1632969659978185
-2.446402685587851
-2.3848579639378364
-2.2309961598128147
-2.2063782711528033
-2.200223798987821
-2.2802319371328093
-2.329467714452832
-2.304849825792821
-2.2433051041428067
-2.335622186617841
-2.372549019607845
-2.347931130947833
-2.2679229928028177
-2.2740774649678275
-2.2925408814628288
-2.4156303247628297
-2.2186872154828228
-2.3971669082678284
-2.3663945474428347
-2.323313242287821
-2.2802319371328093
-2.298695353627811
-2.378703491772827
-2.347931130947833
-2.2433051041428067
-2.3540856031128428
-2.04020752269779
-1.1970448360926755
-1.954044912387765
-2.347931130947833
-2.403321380432838
-2.3171587701228398
-3.24648406703798
-3.2341751227079882
-2.471020574247862
-2.3540856031128428
-2.261768520637808
-2.200223798987821
-2.2063782711528033
-2.212532743317813
-2.187914854657802
-2.1694514381628007
-2.1079067165127863
-2.391012436102846
-2.323313242287821
-2.2371506319778245
-2.2925408814628288
-2.329467714452832
-2.298695353627811
-2.323313242287821
-2.261768520637808
-2.249459576307816
-2.2740774649678275
-2.2371506319778245
-2.1448335495027893
-2.150988021667799
-2.1448335495027893
-2.3848579639378364
-2.2740774649678275
-2.286386409297819
-2.3417766587828237
-2.3540856031128428
-2.286386409297819
-2.3848579639378364
-2.372549019607845
-2.3540856031128428
-2.372549019607845
-2.335622186617841
-2.4217847969278394
-2.372549019607845
-2.224841687647805
-2.3540856031128428
-2.391012436102846
-2.323313242287821
-2.249459576307816
-2.2433051041428067
-2.2740774649678275
-2.323313242287821
-2.286386409297819
-2.212532743317813
-2.3540856031128428
-2.3540856031128428
-2.2802319371328093
-2.1694514381628007
-2.1448335495027893
-2.55718318455786
-2.4525571577528327
-2.1817603824928202
-2.261768520637808
-2.261768520637808
-1.9417359680577726
-2.255614048472826
-2.612573434042864
-2.372549019607845
-2.3417766587828237
-2.347931130947833
-2.4402482134228407
-2.409475852597848
-2.255614048472826
-1.849418885582765
-2.261768520637808
-2.434093741257831
-2.3848579639378364
-2.3540856031128428
-2.372549019607845
-2.372549019607845
-2.372549019607845
-2.323313242287821
-2.2740774649678275
-2.2679229928028177
-2.2371506319778245
-2.200223798987821
-2.1632969659978185
-2.347931130947833
-2.4587116299178424
-2.2740774649678275
-2.200223798987821
-2.200223798987821
-2.2371506319778245
-2.261768520637808
-2.261768520637808
-2.249459576307816
-2.298695353627811
-2.329467714452832
-2.286386409297819
-2.2925408814628288
-2.3540856031128428
-2.347931130947833
-2.501792935072855
-2.3848579639378364
-2.4279392690928487
-2.4648661020828517
-2.3663945474428347
-2.3663945474428347
-2.4156303247628297
-2.4587116299178424
-2.3971669082678284
-2.323313242287821
-2.323313242287821
-2.335622186617841
-2.323313242287821
-2.224841687647805
-2.3171587701228398
-2.329467714452832
-2.298695353627811
-2.2433051041428067
-2.2371506319778245
-2.2740774649678275
-1.8801912464077586
-0.7416138958825924
-2.871061264972913
-3.461890592813016
-2.6064189618778553
-2.4156303247628297
-2.3417766587828237
-2.323313242287821
-2.495638462907845
-2.3848579639378364
-2.2679229928028177
-2.4156303247628297
-2.3971669082678284
-2.3417766587828237
-2.2679229928028177
-2.2802319371328093
-2.304849825792821
-2.249459576307816
-2.1448335495027893
-2.3171587701228398
-2.286386409297819
-2.187914854657802
-2.3110042979578305
-2.2740774649678275
-2.323313242287821
-2.286386409297819
-2.255614048472826
-2.2740774649678275
-2.3171587701228398
-2.372549019607845
-2.3417766587828237
-2.329467714452832
-2.3848579639378364
-2.347931130947833
-2.249459576307816
-2.2925408814628288
-2.5325652958978484
-2.446402685587851
-2.298695353627811
-2.224841687647805
-2.224841687647805
-2.286386409297819
-2.2309961598128147
-2.1632969659978185
-2.2186872154828228
-2.2679229928028177
-2.2802319371328093
-2.249459576307816
-2.2679229928028177
-2.2309961598128147
-2.1817603824928202
-2.5141018794028467
-2.501792935072855
-2.5941100175478624
-2.680272627857888
-2.667963683527869
-2.711044988682881
-2.667963683527869
-2.877215737137895
-2.895679153632896
-2.8279799598179
-2.8649067928079033
-2.8525978484779113
-2.680272627857888
-2.1694514381628007
-2.544874240227868
-2.9202970422929075
-2.575646601052861
-2.391012436102846
-2.298695353627811
-2.249459576307816
-2.249459576307816
-2.138679077337807
-2.083288827852803
-2.1448335495027893
-2.1325246051727973
-2.052516467027782
-1.990971745377768
-2.1632969659978185
-2.335622186617841
-2.187914854657802
-2.150988021667799
-2.3171587701228398
-2.372549019607845
-2.329467714452832
-2.3110042979578305
-2.335622186617841
-2.409475852597848
-2.335622186617841
-2.261768520637808
-2.3663945474428347
-2.3540856031128428
-2.249459576307816
-2.3848579639378364
-2.335622186617841
-2.360240075277825
-2.360240075277825
-2.286386409297819
-2.3110042979578305
-2.3540856031128428
-2.4156303247628297
-2.3848579639378364
-2.372549019607845
-2.4217847969278394
-2.4279392690928487
-2.3663945474428347
-2.2740774649678275
-2.4648661020828517
-2.4156303247628297
-2.329467714452832
-2.255614048472826
-2.249459576307816
-2.2371506319778245
-2.194069326822812
-2.138679077337807
-2.1017522443478045
-2.077134355687793
-2.0463619948628
-1.990971745377768
-1.966353856717784
-1.91096360723278
-2.0955977721827947
-1.7324839144477464
-0.6308333969125834
-2.1017522443478045
-2.200223798987821
-2.1817603824928202
-2.2433051041428067
-3.080313318582939
-3.554207675288024
-2.6987360443528896
-2.544874240227868
-2.6433457948678853
-2.649500267032867
-2.544874240227868
-2.711044988682881
-2.766435238167886
-2.754126293837894
-2.704890516517872
-2.760280766002876
-2.6064189618778553
-2.655654739197877
-2.600264489712873
-2.520256351567857
-2.4525571577528327
-2.544874240227868
-2.4156303247628297
-2.2925408814628288
-2.200223798987821
-2.2433051041428067
-2.224841687647805
-1.9417359680577726
-0.46466264845757
-1.0554919762976458
-2.0278985783677985
-2.187914854657802
-1.9417359680577726
-1.9417359680577726
-1.966353856717784
-2.120215660842805
-3.172630401057975
-2.612573434042864
-2.1325246051727973
-1.9232725515627715
-2.150988021667799
-2.304849825792821
-2.446402685587851
-2.434093741257831
-2.4279392690928487
-2.4525571577528327
-2.544874240227868
-2.600264489712873
-2.6371913227028756
-2.6433457948678853
-2.6925815721878803
-2.2740774649678275
-2.8033620711578893
-3.2095572340479768
-2.9879962361079313
-2.778744182497905
-2.6925815721878803
-2.600264489712873
-2.55102871239285
-2.495638462907845
-2.471020574247862
-2.3848579639378364
-2.360240075277825
-2.329467714452832
-2.298695353627811
-2.212532743317813
-2.175605910327811
-2.3171587701228398
-2.446402685587851
-2.2802319371328093
-2.255614048472826
-2.3110042979578305
-2.372549019607845
-2.335622186617841
-2.2802319371328093
-2.2802319371328093
-2.3848579639378364
-2.2679229928028177
-2.249459576307816
-2.3171587701228398
-2.304849825792821
-2.070979883522784
-2.212532743317813
-2.2371506319778245
-2.329467714452832
-2.255614048472826
-2.212532743317813
-2.224841687647805
-2.249459576307816
-2.261768520637808
-2.1817603824928202
-1.8740367742427766
-2.070979883522784
-2.6064189618778553
-2.3110042979578305
-2.120215660842805
-2.3171587701228398
-2.403321380432838
-2.2802319371328093
-2.286386409297819
-2.391012436102846
-2.391012436102846
-2.372549019607845
-2.3540856031128428
-2.3663945474428347
-2.372549019607845
-2.3110042979578305
-2.2740774649678275
-2.286386409297819
-2.298695353627811
-2.403321380432838
-2.4279392690928487
-2.4156303247628297
-2.4587116299178424
-2.495638462907845
-2.4587116299178424
-2.4648661020828517
-2.544874240227868
-2.538719768062857
-2.5141018794028467
-2.138679077337807
-1.3385976958876775
-2.5694921288878514
-3.4557361206480066
-2.631036850537866
-2.526410823732866
-2.403321380432838
-2.3171587701228398
-2.286386409297819
-2.3110042979578305
-2.3417766587828237
-2.3417766587828237
-2.304849825792821
-2.335622186617841
-2.360240075277825
-2.3540856031128428
-2.323313242287821
-2.360240075277825
-2.3540856031128428
-2.5694921288878514
-2.477175046412844
-2.4525571577528327
-2.4894839907428636
-2.4587116299178424
-2.4217847969278394
-2.3663945474428347
-2.3663945474428347
-2.403321380432838
-2.3971669082678284
-2.347931130947833
-2.3663945474428347
-2.378703491772827
-2.409475852597848
-2.483329518577854
-2.4525571577528327
-2.4894839907428636
-2.477175046412844
-2.477175046412844
-2.55102871239285
-2.600264489712873
-2.5941100175478624
-2.5694921288878514
-2.612573434042864
-2.723353933012873
-2.6371913227028756
-2.624882378372884
-2.538719768062857
-2.7910531268278973
-2.68642710002287
-2.581801073217871
-2.5141018794028467
-2.501792935072855
-2.446402685587851
-2.3540856031128428
-2.304849825792821
-2.298695353627811
-2.3171587701228398
-2.3110042979578305
-2.2309961598128147
-2.2371506319778245
-2.2740774649678275
-2.2925408814628288
-2.2802319371328093
-2.3110042979578305
-1.9971262175427773
-2.3663945474428347
-2.704890516517872
-2.4894839907428636
-2.477175046412844
-2.4648661020828517
-2.4525571577528327
-2.434093741257831
-2.4894839907428636
-2.391012436102846
-2.2063782711528033
-2.1448335495027893
-2.3971669082678284
-2.378703491772827
-2.323313242287821
-2.2802319371328093
-2.3110042979578305
-2.261768520637808
-2.2802319371328093
-2.255614048472826
-2.255614048472826
-2.249459576307816
-2.2679229928028177
-2.212532743317813
-2.304849825792821
-2.587955545382853
-2.5141018794028467
-2.3540856031128428
-2.391012436102846
-2.434093741257831
-2.4156303247628297
-2.3848579639378364
-2.3848579639378364
-2.4217847969278394
-2.5141018794028467
-2.4156303247628297
-2.446402685587851
-2.434093741257831
-2.409475852597848
-2.4279392690928487
-2.4648661020828517
-2.4217847969278394
-2.477175046412844
-2.409475852597848
-2.3971669082678284
-2.4156303247628297
-2.378703491772827
-2.378703491772827
-2.3110042979578305
-2.360240075277825
-2.378703491772827
-2.3171587701228398
-2.187914854657802
-2.1448335495027893
-2.378703491772827
-2.304849825792821
-2.286386409297819
-2.2433051041428067
-1.9048091350677696
-1.104727753617668
-1.8801912464077586
-2.1817603824928202
-2.3110042979578305
-2.3663945474428347
-2.8402889041478923
-3.597288980443037
-2.7171994608478913
-1.824800996922753
-1.818646524757745
-2.3171587701228398
-2.434093741257831
-2.4217847969278394
-2.372549019607845
-2.403321380432838
-2.4217847969278394
-2.391012436102846
-2.3540856031128428
-2.360240075277825
-2.3540856031128428
-2.372549019607845
-2.329467714452832
-2.901833625797906
-3.037232013427927
-2.520256351567857
-2.403321380432838
-2.347931130947833
-2.323313242287821
-2.378703491772827
-2.372549019607845
-2.323313242287821
-2.434093741257831
-2.4894839907428636
-2.55718318455786
-2.5694921288878514
-2.520256351567857
-2.4525571577528327
-2.667963683527869
-2.667963683527869
-2.526410823732866
-2.5325652958978484
-2.526410823732866
-2.501792935072855
-2.477175046412844
-2.446402685587851
-2.446402685587851
-2.477175046412844
-2.4217847969278394
-2.4156303247628297
-2.372549019607845
-2.3848579639378364
-2.6064189618778553
-2.4279392690928487
-2.4156303247628297
-2.4894839907428636
-2.409475852597848
-2.403321380432838
-2.4217847969278394
-2.4648661020828517
-2.4402482134228407
-2.471020574247862
-2.483329518577854
-2.507947407237865
-2.150988021667799
-2.403321380432838
-2.729508405177883
-2.68642710002287
-2.55718318455786
-2.5325652958978484
-2.5941100175478624
-2.6064189618778553
-2.55718318455786
-2.538719768062857
-2.526410823732866
-2.55718318455786
-2.563337656722869
-2.409475852597848
-2.5141018794028467
-2.507947407237865
-2.483329518577854
-2.5694921288878514
-2.4894839907428636
-2.5325652958978484
-2.5141018794028467
-2.471020574247862
-2.6433457948678853
-2.600264489712873
-2.544874240227868
-2.5941100175478624
-2.6064189618778553
-2.667963683527869
-2.6987360443528896
-2.600264489712873
-2.526410823732866
-2.6064189618778553
-2.5694921288878514
-2.526410823732866
-2.477175046412844
-2.471020574247862
-2.4525571577528327
-1.104727753617668
-1.824800996922753
-2.3417766587828237
-2.335622186617841
-2.323313242287821
-2.2802319371328093
-2.2679229928028177
-2.4525571577528327
-3.738841840238039
-3.1049312072429505
-2.5694921288878514
-2.544874240227868
-2.538719768062857
-2.538719768062857
-2.5325652958978484
-2.55718318455786
-2.5941100175478624
-2.674118155692878
-2.68642710002287
-2.704890516517872
-2.68642710002287
-2.2802319371328093
-1.4186058340326935
-3.0126141247679152
-4.015793087663089
-3.191093817552976
-2.7848986546628876
-2.778744182497905
-2.747971821672884
-2.680272627857888
-2.581801073217871
-2.4894839907428636
-2.4587116299178424
-2.4217847969278394
-2.323313242287821
-2.1017522443478045
-2.335622186617841
-2.3663945474428347
-2.249459576307816
-2.120215660842805
-2.2309961598128147
-2.200223798987821
-2.1632969659978185
-2.175605910327811
-2.187914854657802
-2.224841687647805
-2.2433051041428067
-2.2063782711528033
-2.403321380432838
-2.3171587701228398
-2.5325652958978484
-2.55718318455786
-2.526410823732866
-2.55718318455786
-2.526410823732866
-2.477175046412844
-2.6064189618778553
-2.581801073217871
-2.612573434042864
-2.563337656722869
-2.575646601052861
-2.600264489712873
-2.55102871239285
-2.403321380432838
-2.5141018794028467
-2.6371913227028756
-2.563337656722869
-2.5141018794028467
-2.4648661020828517
-2.4587116299178424
-2.4279392690928487
-2.403321380432838
-2.4894839907428636
-2.403321380432838
-2.372549019607845
-2.3971669082678284
-2.3848579639378364
-2.347931130947833
-2.3971669082678284
-2.4894839907428636
-2.471020574247862
-2.360240075277825
-2.3663945474428347
-2.372549019607845
-2.335622186617841
-1.9601993845527748
-2.335622186617841
-2.6987360443528896
-2.409475852597848
-2.3110042979578305
-2.3540856031128428
-2.360240075277825
-1.9232725515627715
-2.1017522443478045
-2.3171587701228398
-2.4156303247628297
-2.409475852597848
-2.4402482134228407
-2.434093741257831
-2.4402482134228407
-2.4217847969278394
-2.3971669082678284
-2.3663945474428347
-2.378703491772827
-2.477175046412844
-2.4587116299178424
-2.9387604587879093
-2.8402889041478923
-2.5325652958978484
-2.471020574247862
-2.378703491772827
-2.520256351567857
-2.507947407237865
-2.4648661020828517
-2.4525571577528327
-2.4525571577528327
-2.4525571577528327
-2.4217847969278394
-2.3663945474428347
-2.391012436102846
-2.298695353627811
-2.5325652958978484
-2.4217847969278394
-2.378703491772827
-2.3848579639378364
-2.378703491772827
-2.304849825792821
-2.471020574247862
-2.446402685587851
-2.3971669082678284
-2.3971669082678284
-2.3848579639378364
-2.3971669082678284
-2.4279392690928487
-2.2679229928028177
-2.403321380432838
-2.4648661020828517
-2.403321380432838
-2.409475852597848
-2.434093741257831
-2.434093741257831
-2.3971669082678284
-2.3971669082678284
-1.9971262175427773
-0.8831667556776225
-2.298695353627811
-2.3540856031128428
-2.298695353627811
-2.249459576307816
-2.544874240227868
-3.658833702093051
-2.8895246814679143
-2.4217847969278394
-2.372549019607845
-2.391012436102846
-2.391012436102846
-2.403321380432838
-1.954044912387765
-2.4587116299178424
-2.735662877342893
-2.403321380432838
-2.347931130947833
-2.286386409297819
-2.4156303247628297
-2.434093741257831
-2.3540856031128428
-2.4587116299178424
-2.5141018794028467
-2.4894839907428636
-2.507947407237865
-2.495638462907845
-2.471020574247862
-2.471020574247862
-2.360240075277825
-2.526410823732866
-2.4525571577528327
-2.3171587701228398
-2.3848579639378364
-2.5694921288878514
-2.4279392690928487
-2.378703491772827
-2.347931130947833
-2.471020574247862
-2.4279392690928487
-2.391012436102846
-2.378703491772827
-2.520256351567857
-2.434093741257831
-2.4156303247628297
-2.3540856031128428
-2.3540856031128428
-2.409475852597848
-2.526410823732866
-2.4156303247628297
-2.4217847969278394
-2.4648661020828517
-2.4279392690928487
-2.347931130947833
-2.434093741257831
-2.4279392690928487
-2.409475852597848
-2.378703491772827
-2.403321380432838
-2.4156303247628297
-2.372549019607845
-2.403321380432838
-2.477175046412844
-2.0955977721827947
-2.4279392690928487
-2.747971821672884
-2.4648661020828517
-2.4217847969278394
-2.378703491772827
-2.3971669082678284
-2.378703491772827
-2.3848579639378364
-2.3971669082678284
-2.4217847969278394
-2.3971669082678284
-2.3663945474428347
-2.5941100175478624
-2.477175046412844
-2.391012436102846
-2.4217847969278394
-2.446402685587851
-2.434093741257831
-2.409475852597848
-2.3540856031128428
-2.304849825792821
-2.403321380432838
-2.403321380432838
-2.323313242287821
-2.298695353627811
-2.224841687647805
-2.3417766587828237
-2.335622186617841
-2.261768520637808
-2.3171587701228398
-2.3110042979578305
-2.298695353627811
-2.3417766587828237
-2.3663945474428347
-2.3848579639378364
-2.3663945474428347
-2.372549019607845
-2.471020574247862
-2.446402685587851
-2.3971669082678284
-2.5941100175478624
-2.612573434042864
-2.526410823732866
-2.446402685587851
-2.4156303247628297
-2.55102871239285
-2.477175046412844
-2.4648661020828517
-2.4587116299178424
-2.4587116299178424
-2.4279392690928487
-2.3848579639378364
-2.2925408814628288
-2.2925408814628288
-2.2802319371328093
-2.3971669082678284
-2.304849825792821
-1.892500190737778
-0.8031586175326066
-2.329467714452832
-3.4311182319879947
-2.9264515144579173
-2.3848579639378364
-2.3540856031128428
-2.335622186617841
-2.323313242287821
-2.335622186617841
-2.2679229928028177
-2.378703491772827
-2.446402685587851
-2.403321380432838
-2.4279392690928487
-2.391012436102846
-2.378703491772827
-2.3971669082678284
-2.434093741257831
-2.391012436102846
-2.323313242287821
-2.391012436102846
-2.378703491772827
-2.360240075277825
-2.360240075277825
-2.538719768062857
-2.704890516517872
-2.526410823732866
-2.4894839907428636
-2.4587116299178424
-2.446402685587851
-2.4587116299178424
-2.403321380432838
-2.3971669082678284
-2.378703491772827
-2.4894839907428636
-2.4217847969278394
-2.403321380432838
-2.4279392690928487
-2.187914854657802
-2.360240075277825
-2.378703491772827
-2.347931130947833
-2.4402482134228407
-2.434093741257831
-2.3663945474428347
-2.3971669082678284
-2.378703491772827
-2.3663945474428347
-2.335622186617841
-1.1355001144426613
-1.2339716690826785
-2.391012436102846
-2.520256351567857
-2.501792935072855
-2.403321380432838
-2.3663945474428347
-2.372549019607845
-3.400345871163002
-3.2034027618829675
-2.507947407237865
-2.3848579639378364
-2.3663945474428347
-2.3848579639378364
-2.372549019607845
-2.347931130947833
-2.2679229928028177
-2.194069326822812
-2.391012436102846
-2.372549019607845
-2.329467714452832
-2.360240075277825
-2.3663945474428347
-2.335622186617841
-2.298695353627811
-2.323313242287821
-2.329467714452832
-2.298695353627811
-2.304849825792821
-2.3110042979578305
-2.298695353627811
-2.083288827852803
-1.7324839144477464
-2.138679077337807
-2.2925408814628288
-2.3663945474428347
-2.347931130947833
-2.298695353627811
-2.2679229928028177
-2.434093741257831
-2.409475852597848
-2.391012436102846
-2.335622186617841
-2.372549019607845
-2.378703491772827
-2.471020574247862
-3.0249230690979347
-2.631036850537866
-2.501792935072855
-2.483329518577854
-2.4525571577528327
-2.4402482134228407
-2.4279392690928487
-2.4279392690928487
-2.4279392690928487
-2.3848579639378364
-2.538719768062857
-2.55102871239285
-2.507947407237865
-2.391012436102846
-2.4587116299178424
-2.575646601052861
-2.477175046412844
-2.255614048472826
-2.194069326822812
-2.8279799598179
-2.655654739197877
-2.5141018794028467
-2.526410823732866
-2.495638462907845
-2.4894839907428636
-2.507947407237865
-2.1571424938328088
-0.9447114773276367
-2.3971669082678284
-2.624882378372884
-2.507947407237865
-2.495638462907845
-2.5941100175478624
-3.6465247577630313
-3.2218661783779687
-2.6925815721878803
-2.624882378372884
-2.6371913227028756
-2.631036850537866
-2.600264489712873
-2.55102871239285
-2.526410823732866
-2.446402685587851
-2.581801073217871
-2.526410823732866
-2.4894839907428636
-2.526410823732866
-2.544874240227868
-2.507947407237865
-2.507947407237865
-2.483329518577854
-2.495638462907845
-2.477175046412844
-2.4587116299178424
-2.477175046412844
-2.4525571577528327
-2.4587116299178424
-2.624882378372884
-2.5325652958978484
-2.526410823732866
-2.501792935072855
-2.477175046412844
-2.4525571577528327
-2.483329518577854
-2.4217847969278394
-2.446402685587851
-2.434093741257831
-2.4279392690928487
-2.446402685587851
-2.4279392690928487
-2.255614048472826
-2.335622186617841
-2.378703491772827
-2.409475852597848
-2.372549019607845
-2.378703491772827
-2.403321380432838
-2.403321380432838
-2.391012436102846
-2.391012436102846
-2.3540856031128428
-2.483329518577854
-2.4279392690928487
-2.3540856031128428
-2.2679229928028177
-2.2740774649678275
-2.4217847969278394
-2.3663945474428347
-2.372549019607845
-2.391012436102846
-1.972508328882766
-2.329467714452832
-2.704890516517872
-2.4279392690928487
-2.360240075277825
-2.360240075277825
-2.360240075277825
-2.378703491772827
-2.4156303247628297
-2.600264489712873
-2.471020574247862
-2.372549019607845
-2.3663945474428347
-2.2925408814628288
-2.360240075277825
-2.4525571577528327
-2.3663945474428347
-2.372549019607845
-2.3971669082678284
-2.4279392690928487
-2.403321380432838
-2.3971669082678284
-2.335622186617841
-2.378703491772827
-2.520256351567857
-2.3971669082678284
-2.3848579639378364
-2.4279392690928487
-2.4156303247628297
-2.3417766587828237
-2.3663945474428347
-2.391012436102846
-2.360240075277825
-2.3540856031128428
-2.3540856031128428
-2.372549019607845
-2.360240075277825
-2.538719768062857
-2.631036850537866
-2.4648661020828517
-2.4402482134228407
-2.4217847969278394
-2.403321380432838
-2.4525571577528327
-2.446402685587851
-2.391012436102846
-2.471020574247862
-2.4525571577528327
-2.446402685587851
-2.507947407237865
-2.446402685587851
-2.2186872154828228
-2.4217847969278394
-2.4525571577528327
-2.544874240227868
-2.4894839907428636
-2.520256351567857
-2.5694921288878514
-2.200223798987821
-1.3447521680526875
-2.2433051041428067
-3.511126370133011
-3.4188092876580036
-2.747971821672884
-2.624882378372884
-2.477175046412844
-2.704890516517872
-2.674118155692878
-2.6064189618778553
-2.600264489712873
-2.587955545382853
-2.544874240227868
-2.495638462907845
-2.507947407237865
-2.483329518577854
-2.4402482134228407
-2.360240075277825
-2.4217847969278394
-2.520256351567857
-2.347931130947833
-2.4402482134228407
-2.403321380432838
-2.372549019607845
-2.3171587701228398
-2.3417766587828237
-2.372549019607845
-2.3971669082678284
-2.3848579639378364
-2.403321380432838
-2.4279392690928487
-2.4156303247628297
-2.446402685587851
-1.9971262175427773
-2.224841687647805
-2.286386409297819
-2.4217847969278394
-2.409475852597848
-2.409475852597848
-2.434093741257831
-2.3971669082678284
-2.347931130947833
-2.434093741257831
-2.4402482134228407
-2.378703491772827
-2.329467714452832
-2.329467714452832
-2.286386409297819
-2.3971669082678284
-2.8095165433228986
-2.587955545382853
-2.403321380432838
-2.360240075277825
-2.3663945474428347
-2.3663945474428347
-2.3663945474428347
-2.335622186617841
-2.212532743317813
-2.3540856031128428
-2.323313242287821
-2.286386409297819
-2.2802319371328093
-2.1079067165127863
-1.2832074464026733
-1.9786628010477763
-2.544874240227868
-2.378703491772827
-2.3417766587828237
-2.3171587701228398
-2.298695353627811
-2.2802319371328093
-2.304849825792821
-2.298695353627811
-2.3171587701228398
-2.3110042979578305
-2.2679229928028177
-2.298695353627811
-2.501792935072855
-2.372549019607845
-2.323313242287821
-2.2740774649678275
-2.329467714452832
-2.434093741257831
-2.347931130947833
-2.298695353627811
-2.3417766587828237
-2.360240075277825
-2.323313242287821
-2.323313242287821
-2.2802319371328093
-2.329467714452832
-2.7848986546628876
-2.747971821672884
-2.3971669082678284
-2.360240075277825
-2.304849825792821
-2.360240075277825
-2.3171587701228398
-2.304849825792821
-2.2740774649678275
-2.2679229928028177
-2.249459576307816
-2.286386409297819
-2.2740774649678275
-2.187914854657802
-2.052516467027782
-2.249459576307816
-2.261768520637808
-2.224841687647805
-2.224841687647805
-2.249459576307816
-2.2802319371328093
-2.224841687647805
-2.261768520637808
-2.261768520637808
-2.255614048472826
-2.2309961598128147
-2.224841687647805
-2.2063782711528033
-2.1817603824928202
-1.6032399989827366
-1.0862643371226666
-1.9048091350677696
-2.8525978484779113
-2.391012436102846
-2.298695353627811
-2.304849825792821
-2.3110042979578305
-3.2095572340479768
-3.2280206505429785
-2.4525571577528327
-2.335622186617841
-2.2802319371328093
-2.0278985783677985
-1.824800996922753
-2.2063782711528033
-2.249459576307816
-2.249459576307816
-2.2309961598128147
-2.224841687647805
-2.261768520637808
-2.298695353627811
-2.2740774649678275
-2.2433051041428067
-2.3110042979578305
-2.286386409297819
-2.2371506319778245
-2.378703491772827
-2.8464433763129016
-2.520256351567857
-2.329467714452832
-2.2309961598128147
-2.335622186617841
-2.3663945474428347
-2.2925408814628288
-2.323313242287821
-2.3417766587828237
-2.335622186617841
-2.298695353627811
-2.347931130947833
-2.323313242287821
-2.2063782711528033
-1.91096360723278
-2.1017522443478045
-2.200223798987821
-2.2186872154828228
-2.1632969659978185
-2.138679077337807
-2.200223798987821
-2.200223798987821
-2.1448335495027893
-2.1263701330077875
-2.138679077337807
-2.1448335495027893
-2.0955977721827947
-2.138679077337807
-2.5325652958978484
-2.4217847969278394
-2.212532743317813
-2.1817603824928202
-2.200223798987821
-2.175605910327811
-2.1571424938328088
-2.1263701330077875
-2.1571424938328088
-1.8063375804277528
-2.194069326822812
-2.526410823732866
-2.1817603824928202
-2.2433051041428067
-2.077134355687793
-2.200223798987821
-2.255614048472826
-2.2063782711528033
-2.200223798987821
-2.194069326822812
-2.1817603824928202
-2.2186872154828228
-2.2433051041428067
-2.2186872154828228
-2.261768520637808
-2.255614048472826
-2.194069326822812
-2.212532743317813
-2.212532743317813
-2.249459576307816
-2.212532743317813
-2.224841687647805
-2.249459576307816
-2.212532743317813
-2.212532743317813
-2.194069326822812
-2.1632969659978185
-2.175605910327811
-2.187914854657802
-2.1817603824928202
-2.2063782711528033
-2.1571424938328088
-2.0586709391927913
-2.2679229928028177
-2.2186872154828228
-2.1448335495027893
-2.2679229928028177
-2.261768520637808
-2.175605910327811
-2.1694514381628007
-2.194069326822812
-2.175605910327811
-2.1632969659978185
-2.175605910327811
-2.1694514381628007
-2.200223798987821
-1.9971262175427773
-1.8432644134177558
-2.187914854657802
-2.249459576307816
-2.286386409297819
-2.255614048472826
-2.255614048472826
-2.323313242287821
-2.3110042979578305
-2.298695353627811
-2.3540856031128428
-1.972508328882766
-0.8216220340276081
-2.249459576307816
-3.1295490959029335
-3.837313394878056
-2.772589710332896
-2.4217847969278394
-2.409475852597848
-2.4156303247628297
-2.4279392690928487
-2.409475852597848
-2.3663945474428347
-2.446402685587851
-2.434093741257831
-2.3848579639378364
-2.3848579639378364
-2.378703491772827
-2.360240075277825
-2.3110042979578305
-2.360240075277825
-2.471020574247862
-2.4217847969278394
-2.403321380432838
-2.378703491772827
-2.3417766587828237
-2.372549019607845
-2.3848579639378364
-2.286386409297819
-2.347931130947833
-2.347931130947833
-2.335622186617841
-2.2371506319778245
-1.8124920525927626
-2.0340530505327803
-2.261768520637808
-2.2925408814628288
-2.347931130947833
-2.335622186617841
-2.372549019607845
-2.372549019607845
-2.360240075277825
-2.335622186617841
-2.3971669082678284
-2.3540856031128428
-2.261768520637808
-2.2802319371328093
-2.7910531268278973
-2.8095165433228986
-2.3663945474428347
-2.298695353627811
-2.2925408814628288
-2.3417766587828237
-2.323313242287821
-2.3171587701228398
-2.3110042979578305
-2.329467714452832
-2.323313242287821
-2.3110042979578305
-2.2309961598128147
-2.329467714452832
-2.2371506319778245
-2.4279392690928487
-2.403321380432838
-2.3540856031128428
-2.0340530505327803
-2.372549019607845
-2.526410823732866
-2.4587116299178424
-2.391012436102846
-2.347931130947833
-2.304849825792821
-2.3171587701228398
-2.323313242287821
-2.249459576307816
-2.083288827852803
-2.372549019607845
-2.329467714452832
-2.255614048472826
-2.224841687647805
-2.2679229928028177
-2.286386409297819
-2.249459576307816
-2.1817603824928202
-2.323313242287821
-2.2679229928028177
-2.2186872154828228
-2.194069326822812
-2.175605910327811
-2.064825411357801
-1.8863457185727683
-2.1571424938328088
-2.2186872154828228
-2.2186872154828228
-2.2433051041428067
-2.2371506319778245
-2.2371506319778245
-2.2740774649678275
-2.212532743317813
-2.212532743317813
-2.2925408814628288
-2.2186872154828228
-2.2371506319778245
-2.2740774649678275
-2.600264489712873
-2.4525571577528327
-2.2679229928028177
-2.2186872154828228
-2.1817603824928202
-2.1632969659978185
-2.1817603824928202
-2.224841687647805
-2.249459576307816
-2.249459576307816
-2.304849825792821
-2.360240075277825
-2.304849825792821
-2.2371506319778245
-2.255614048472826
-2.477175046412844
-2.323313242287821
-2.261768520637808
-2.224841687647805
-1.9355814958927628
-1.0924188092876486
