-0.32310978866254003
-0.2984919000025288
-0.28618295567253704
-0.2984919000025288
-0.31695531649755804
-0.26156506701252585
-0.31695531649755804
-0.29233742783754685
-0.29233742783754685
-0.2554105948475438
-0.26771953917753555
-0.24925612268253405
-0.21232928969253104
-0.2369471783525424
-0.29233742783754685
-0.28618295567253704
-0.2800284835075273
-0.2738740113425453
-0.29233742783754685
-0.29233742783754685
-0.28618295567253704
-0.24925612268253405
-0.32310978866254003
-0.3108008443325483
-0.30464637216753854
-0.28618295567253704
-0.2369471783525424
-0.2000203453625393
-0.21232928969253104
-0.14463009587750708
-0.2000203453625393
-0.18771140103251985
-0.17540245670252808
-0.17540245670252808
-0.18771140103251985
-0.1692479845375183
-0.1692479845375183
-0.1384756237125251
-0.2369471783525424
-0.2246382340225228
-0.23079270618753256
-0.24925612268253405
-0.2061748175275213
-0.2554105948475438
-0.3723455659825625
-0.6431423412426027
-0.1015487907225221
-0.11385773505251384
-0.18771140103251985
-0.2184837618575408
-0.23079270618753256
-0.18771140103251985
-0.2061748175275213
-0.18155692886753785
-0.2431016505175243
-0.2431016505175243
-0.2431016505175243
-0.26156506701252585
-0.2800284835075273
-0.2738740113425453
-0.2738740113425453
-0.2246382340225228
-0.33541873299255964
-0.31695531649755804
-0.2738740113425453
-0.2431016505175243
-0.2369471783525424
-0.2554105948475438
-0.2246382340225228
-0.1692479845375183
-0.26771953917753555
-0.2246382340225228
-0.15693904020752658
-0.2000203453625393
-0.2000203453625393
-0.21232928969253104
-0.2000203453625393
-0.17540245670252808
-0.2246382340225228
-0.2061748175275213
-0.2184837618575408
-0.2246382340225228
-0.23079270618753256
-0.2369471783525424
-0.2184837618575408
-0.18771140103251985
-0.2554105948475438
-0.2369471783525424
-0.2800284835075273
-0.2554105948475438
-0.2431016505175243
-0.24925612268253405
-0.2554105948475438
-0.2184837618575408
-0.2800284835075273
-0.2984919000025288
-0.31695531649755804
-0.30464637216753854
-0.30464637216753854
-0.32310978866254003
-0.32310978866254003
-0.04000406907250786
0.433890287632549
-0.1938658731975296
-0.1384756237125251
-0.15078456804251686
-0.13232115154751534
-0.14463009587750708
-0.15693904020752658
-0.40927239897256545
-0.5631342030975872
-0.36619109381755277
-0.32310978866254003
-0.2984919000025288
-0.2800284835075273
-0.26771953917753555
-0.2554105948475438
-0.32310978866254003
-0.37850003814754446
-0.32310978866254003
-0.33541873299255964
-0.3292642608275498
-0.28618295567253704
-0.28618295567253704
-0.26156506701252585
-0.21232928969253104
-0.2554105948475438
-0.2246382340225228
-0.21232928969253104
-0.2184837618575408
-0.2369471783525424
-0.16309351237253633
-0.08308537422752059
-0.13232115154751534
-0.2184837618575408
-0.2184837618575408
-0.23079270618753256
-0.24925612268253405
-0.2431016505175243
-0.2369471783525424
-0.2246382340225228
-0.2246382340225228
-0.26771953917753555
-0.23079270618753256
-0.2246382340225228
-0.2369471783525424
-0.2000203453625393
-0.18155692886753785
-0.2800284835075273
-0.26771953917753555
-0.2984919000025288
-0.26771953917753555
-0.26771953917753555
-0.2738740113425453
-0.2800284835075273
-0.26771953917753555
-0.2554105948475438
-0.24925612268253405
-0.28618295567253704
-0.2738740113425453
-0.2554105948475438
-0.2184837618575408
-0.17540245670252808
-0.2184837618575408
-0.26771953917753555
-0.6246789247476012
-0.1384756237125251
-0.08308537422752059
-0.21232928969253104
-0.24925612268253405
-0.2738740113425453
-0.26771953917753555
-0.24925612268253405
-0.26156506701252585
-0.3292642608275498
-0.2984919000025288
-0.26156506701252585
-0.1384756237125251
-0.1692479845375183
-0.2061748175275213
-0.21232928969253104
-0.23079270618753256
-0.2738740113425453
-0.2554105948475438
-0.28618295567253704
-0.26771953917753555
-0.2738740113425453
-0.2800284835075273
-0.26771953917753555
-0.2738740113425453
-0.32310978866254003
-0.2984919000025288
-0.390808982477564
-0.36619109381755277
-0.2738740113425453
-0.2184837618575408
-0.1692479845375183
-0.1384756237125251
-0.1692479845375183
-0.1938658731975296
-0.23079270618753256
-0.26156506701252585
-0.2738740113425453
-0.30464637216753854
-0.30464637216753854
-0.35388214948756086
-0.33541873299255964
-0.2369471783525424
-0.26771953917753555
-0.2738740113425453
-0.2431016505175243
-0.2246382340225228
-0.2369471783525424
-0.26156506701252585
-0.29233742783754685
-0.26771953917753555
-0.26771953917753555
-0.23079270618753256
-0.2184837618575408
-0.2184837618575408
-0.2000203453625393
-0.2000203453625393
-0.21232928969253104
-0.003077236082504875
0.37850003814754446
-0.1261666793825056
-0.11385773505251384
-0.14463009587750708
-0.18155692886753785
-0.538516314437576
-0.5015894814475731
-0.3415732051575415
-0.30464637216753854
-0.26771953917753555
-0.23079270618753256
-0.2369471783525424
-0.1692479845375183
-0.14463009587750708
-0.2000203453625393
-0.2000203453625393
-0.2000203453625393
-0.2061748175275213
-0.1938658731975296
-0.18771140103251985
-0.15078456804251686
-0.15693904020752658
-0.18155692886753785
-0.18155692886753785
-0.18771140103251985
-0.2000203453625393
-0.2000203453625393
-0.17540245670252808
-0.1692479845375183
-0.17540245670252808
-0.18771140103251985
-0.15078456804251686
-0.1261666793825056
-0.1261666793825056
-0.1384756237125251
-0.15078456804251686
-0.11385773505251384
-0.1261666793825056
-0.14463009587750708
-0.15078456804251686
-0.15078456804251686
-0.1692479845375183
-0.10770326288750408
0.02154065257750637
-0.04000406907250786
-0.1261666793825056
-0.12001220721752358
-0.13232115154751534
-0.1261666793825056
-0.12001220721752358
-0.14463009587750708
-0.14463009587750708
-0.1015487907225221
-0.1015487907225221
-0.12001220721752358
-0.10770326288750408
-0.15078456804251686
-0.18771140103251985
-0.26156506701252585
-0.24925612268253405
-0.21232928969253104
-0.2184837618575408
-0.3108008443325483
-0.6800691742326057
-0.1261666793825056
-0.05231301340249961
-0.16309351237253633
-0.17540245670252808
-0.15078456804251686
-0.17540245670252808
-0.15693904020752658
-0.2000203453625393
-0.11385773505251384
0.07693090206251085
-0.04615854123751762
-0.14463009587750708
0.3292642608275498
0.390808982477564
-0.360036621652543
-0.18155692886753785
-0.15078456804251686
-0.15693904020752658
-0.18771140103251985
-0.18771140103251985
-0.2800284835075273
-0.6431423412426027
-0.5262073701075842
-0.49543500928256323
-0.6492968134075847
-0.4892805371175811
-0.4154268711375475
-0.3723455659825625
-0.3415732051575415
-0.3846545103125543
-0.3415732051575415
-0.3415732051575415
-0.35388214948756086
-0.3415732051575415
-0.31695531649755804
-0.32310978866254003
-0.2984919000025288
-0.3723455659825625
-0.3415732051575415
-0.31695531649755804
-0.32310978866254003
-0.34772767732255133
-0.3292642608275498
-0.3292642608275498
-0.29233742783754685
-0.360036621652543
-0.33541873299255964
-0.33541873299255964
-0.33541873299255964
-0.3415732051575415
-0.3292642608275498
-0.3108008443325483
-0.29233742783754685
-0.3415732051575415
-0.30464637216753854
-0.2800284835075273
-0.28618295567253704
-0.08923984639250257
0.33541873299255964
-0.3292642608275498
-0.360036621652543
-0.6800691742326057
-0.49543500928256323
-0.36619109381755277
-0.3108008443325483
-0.28618295567253704
-0.26771953917753555
-0.2184837618575408
-0.18771140103251985
-0.3292642608275498
-0.2554105948475438
-0.1938658731975296
-0.18155692886753785
-0.2246382340225228
-0.2061748175275213
-0.18771140103251985
-0.16309351237253633
-0.2246382340225228
-0.24925612268253405
-0.2431016505175243
-0.2431016505175243
-0.24925612268253405
-0.23079270618753256
-0.18155692886753785
-0.13232115154751534
-0.2061748175275213
-0.2000203453625393
-0.2184837618575408
-0.18771140103251985
-0.2000203453625393
-0.2246382340225228
-0.2369471783525424
-0.18155692886753785
-0.2184837618575408
-0.2184837618575408
-0.2246382340225228
-0.2184837618575408
-0.21232928969253104
-0.18155692886753785
-0.15693904020752658
-0.1261666793825056
-0.2061748175275213
-0.1938658731975296
-0.18771140103251985
-0.18155692886753785
-0.15693904020752658
-0.16309351237253633
-0.15078456804251686
-0.1261666793825056
-0.2000203453625393
-0.2184837618575408
-0.2246382340225228
-0.2184837618575408
-0.14463009587750708
-0.17540245670252808
-0.2184837618575408
-0.1384756237125251
-0.23079270618753256
-0.2431016505175243
-0.2554105948475438
-0.3415732051575415
-0.6800691742326057
-0.13232115154751534
-0.07693090206251085
-0.15078456804251686
-0.2431016505175243
-0.2369471783525424
-0.26771953917753555
-0.2554105948475438
-0.2246382340225228
-0.2369471783525424
-0.24925612268253405
-0.21232928969253104
-0.28618295567253704
-0.3108008443325483
-0.34772767732255133
-0.390808982477564
-0.4154268711375475
-0.390808982477564
-0.3723455659825625
-0.3415732051575415
-0.4154268711375475
-0.36619109381755277
-0.28618295567253704
-0.32310978866254003
-0.3108008443325483
-0.2984919000025288
-0.2800284835075273
-0.23079270618753256
-0.3108008443325483
-0.29233742783754685
-0.3108008443325483
-0.28618295567253704
-0.28618295567253704
-0.32310978866254003
-0.3108008443325483
-0.29233742783754685
-0.37850003814754446
-0.34772767732255133
-0.32310978866254003
-0.28618295567253704
-0.26156506701252585
-0.26771953917753555
-0.24925612268253405
-0.1692479845375183
-0.2184837618575408
-0.16309351237253633
-0.12001220721752358
-0.09539431855751236
-0.06462195773251911
-0.04000406907250786
-0.04000406907250786
-0.009231708247514623
-0.04615854123751762
-0.05231301340249961
-0.08308537422752059
-0.11385773505251384
-0.14463009587750708
-0.2369471783525424
-0.003077236082504875
0.37850003814754446
-0.2184837618575408
-0.21232928969253104
-0.26156506701252585
-0.26771953917753555
-0.29233742783754685
-0.32310978866254003
-0.33541873299255964
-0.35388214948756086
-0.42158134330255725
-0.360036621652543
-0.3292642608275498
-0.29233742783754685
-0.28618295567253704
-0.2554105948475438
-0.2184837618575408
-0.17540245670252808
-0.2000203453625393
-0.16309351237253633
-0.13232115154751534
-0.09539431855751236
-0.08923984639250257
-0.1015487907225221
-0.13232115154751534
-0.08923984639250257
-0.1261666793825056
-0.09539431855751236
-0.1015487907225221
-0.10770326288750408
-0.08923984639250257
-0.1015487907225221
-0.1015487907225221
-0.07693090206251085
-0.14463009587750708
-0.15078456804251686
-0.1692479845375183
-0.15693904020752658
-0.14463009587750708
-0.07693090206251085
0.01538618041249662
-0.033849596907498114
-0.11385773505251384
-0.11385773505251384
-0.10770326288750408
-0.13232115154751534
-0.15693904020752658
-0.2000203453625393
-0.2246382340225228
-0.2246382340225228
-0.30464637216753854
-0.29233742783754685
-0.2984919000025288
-0.31695531649755804
-0.538516314437576
-0.6492968134075847
-0.44619923196256844
-0.36619109381755277
-0.36619109381755277
-0.31695531649755804
-0.2984919000025288
-0.29233742783754685
-0.29233742783754685
-0.3723455659825625
-0.7169960072226089
-0.1692479845375183
-0.12001220721752358
-0.2246382340225228
-0.2369471783525424
-0.2431016505175243
-0.2738740113425453
-0.2554105948475438
-0.26771953917753555
-0.24925612268253405
-0.30464637216753854
-0.31695531649755804
-0.31695531649755804
-0.32310978866254003
-0.31695531649755804
-0.32310978866254003
-0.3108008443325483
-0.3108008443325483
-0.3723455659825625
-0.35388214948756086
-0.33541873299255964
-0.35388214948756086
-0.33541873299255964
-0.35388214948756086
-0.31695531649755804
-0.30464637216753854
-0.34772767732255133
-0.3292642608275498
-0.3108008443325483
-0.31695531649755804
-0.3292642608275498
-0.33541873299255964
-0.34772767732255133
-0.3415732051575415
-0.36619109381755277
-0.3108008443325483
-0.31695531649755804
-0.30464637216753854
-0.2984919000025288
-0.3108008443325483
-0.2738740113425453
-0.26771953917753555
-0.29233742783754685
-0.2554105948475438
-0.2431016505175243
-0.23079270618753256
-0.2246382340225228
-0.2369471783525424
-0.2184837618575408
-0.1938658731975296
-0.08308537422752059
-0.10770326288750408
-0.16309351237253633
-0.15693904020752658
-0.14463009587750708
-0.1938658731975296
-0.2000203453625393
-0.2184837618575408
-0.04000406907250786
0.46466264845757
-0.23079270618753256
-0.2184837618575408
-0.2184837618575408
-0.2369471783525424
-0.26771953917753555
-0.7231504793875909
-0.7416138958825924
-0.4831260649525715
-0.396963454642546
-0.35388214948756086
-0.3108008443325483
-0.29233742783754685
-0.2554105948475438
-0.28618295567253704
-0.29233742783754685
-0.29233742783754685
-0.2984919000025288
-0.28618295567253704
-0.26156506701252585
-0.24925612268253405
-0.18771140103251985
-0.26156506701252585
-0.28618295567253704
-0.2554105948475438
-0.2738740113425453
-0.2800284835075273
-0.2984919000025288
-0.2800284835075273
-0.08923984639250257
0.13232115154751534
-0.5262073701075842
0.09539431855751236
-0.05846748556750937
-0.14463009587750708
-0.1384756237125251
-0.1261666793825056
-0.21232928969253104
-0.5508252587675677
-0.4892805371175811
-0.3292642608275498
-0.2800284835075273
-0.26771953917753555
-0.26156506701252585
-0.2369471783525424
-0.21232928969253104
-0.2246382340225228
-0.2246382340225228
-0.21232928969253104
-0.2184837618575408
-0.2184837618575408
-0.2000203453625393
-0.24925612268253405
-0.2184837618575408
-0.23079270618753256
-0.2431016505175243
-0.2431016505175243
-0.26771953917753555
-0.2800284835075273
-0.2738740113425453
-0.2431016505175243
-0.2369471783525424
-0.29233742783754685
-0.29233742783754685
-0.2554105948475438
-0.26771953917753555
-0.360036621652543
-0.360036621652543
-0.30464637216753854
-0.26156506701252585
-0.26771953917753555
-0.2246382340225228
-0.21232928969253104
-0.18771140103251985
-0.18155692886753785
-0.2246382340225228
-0.2554105948475438
0.033849596907498114
-0.21232928969253104
-0.4523537041275505
-0.29233742783754685
-0.12001220721752358
-0.18771140103251985
-0.21232928969253104
-0.2061748175275213
-0.17540245670252808
-0.2184837618575408
-0.21232928969253104
-0.2246382340225228
-0.2369471783525424
-0.23079270618753256
-0.2369471783525424
-0.31695531649755804
-0.6677602299025862
-0.18771140103251985
-0.1015487907225221
-0.16309351237253633
-0.16309351237253633
-0.15693904020752658
-0.14463009587750708
-0.16309351237253633
-0.2000203453625393
-0.2984919000025288
-0.3292642608275498
-0.33541873299255964
-0.34772767732255133
-0.360036621652543
-0.35388214948756086
-0.360036621652543
-0.31695531649755804
-0.33541873299255964
-0.2984919000025288
-0.36619109381755277
-0.31695531649755804
-0.30464637216753854
-0.28618295567253704
-0.2738740113425453
-0.2000203453625393
-0.26156506701252585
-0.24925612268253405
-0.2000203453625393
0.04000406907250786
0.49543500928256323
-0.1261666793825056
-0.0707764298975011
-0.18155692886753785
-0.5323618422725662
-0.390808982477564
-0.30464637216753854
-0.2800284835075273
-0.28618295567253704
-0.2738740113425453
-0.2984919000025288
-0.2554105948475438
-0.29233742783754685
-0.28618295567253704
-0.28618295567253704
-0.3108008443325483
-0.2800284835075273
-0.30464637216753854
-0.30464637216753854
-0.2246382340225228
-0.30464637216753854
-0.31695531649755804
-0.2800284835075273
-0.2431016505175243
-0.2431016505175243
-0.2431016505175243
-0.2061748175275213
-0.15078456804251686
-0.21232928969253104
-0.18155692886753785
-0.21232928969253104
-0.2061748175275213
-0.2369471783525424
-0.2369471783525424
-0.18155692886753785
-0.16309351237253633
-0.2431016505175243
-0.2246382340225228
-0.2184837618575408
-0.2369471783525424
-0.2246382340225228
-0.2246382340225228
-0.2246382340225228
-0.2000203453625393
-0.2800284835075273
-0.28618295567253704
-0.3108008443325483
-0.3292642608275498
-0.2800284835075273
-0.3108008443325483
-0.3292642608275498
-0.2369471783525424
-0.28618295567253704
-0.26156506701252585
-0.2554105948475438
-0.23079270618753256
-0.2061748175275213
-0.2061748175275213
-0.21232928969253104
-0.15693904020752658
-0.2000203453625393
-0.2184837618575408
-0.3108008443325483
-0.5939065639225805
0.1692479845375183
0.11385773505251384
-0.07693090206251085
-0.08923984639250257
-0.18155692886753785
-0.2061748175275213
-0.2246382340225228
-0.2554105948475438
-0.2431016505175243
-0.2369471783525424
-0.2431016505175243
-0.2431016505175243
-0.3108008443325483
-0.26771953917753555
-0.2431016505175243
-0.21232928969253104
-0.17540245670252808
-0.18155692886753785
-0.15078456804251686
-0.10770326288750408
-0.1692479845375183
-0.1384756237125251
-0.13232115154751534
-0.14463009587750708
-0.16309351237253633
-0.17540245670252808
-0.18155692886753785
-0.15693904020752658
-0.2431016505175243
-0.24925612268253405
-0.34772767732255133
-0.2984919000025288
-0.2738740113425453
-0.2554105948475438
-0.24925612268253405
-0.1938658731975296
-0.2554105948475438
-0.21232928969253104
-0.17540245670252808
-0.15078456804251686
-0.15693904020752658
-0.12001220721752358
-0.10770326288750408
-0.10770326288750408
-0.15693904020752658
-0.12001220721752358
-0.12001220721752358
-0.14463009587750708
-0.18155692886753785
-0.1692479845375183
-0.14463009587750708
-0.07693090206251085
-0.1384756237125251
-0.13232115154751534
-0.1261666793825056
-0.10770326288750408
-0.10770326288750408
0.08308537422752059
0.42158134330255725
-0.2984919000025288
-0.5569797309325777
-0.396963454642546
-0.28618295567253704
-0.2246382340225228
-0.21232928969253104
-0.18771140103251985
-0.1692479845375183
-0.15078456804251686
-0.2000203453625393
-0.18155692886753785
-0.1692479845375183
-0.14463009587750708
-0.15693904020752658
-0.1692479845375183
-0.1261666793825056
-0.09539431855751236
-0.16309351237253633
-0.1261666793825056
-0.10770326288750408
-0.09539431855751236
-0.08308537422752059
-0.08308537422752059
-0.0707764298975011
-0.02769512474251612
-0.10770326288750408
-0.1261666793825056
-0.14463009587750708
-0.13232115154751534
-0.1384756237125251
-0.16309351237253633
-0.1692479845375183
-0.13232115154751534
-0.18155692886753785
-0.15078456804251686
-0.18155692886753785
-0.18155692886753785
-0.15078456804251686
-0.14463009587750708
-0.1384756237125251
-0.08308537422752059
-0.1384756237125251
-0.11385773505251384
-0.11385773505251384
-0.1261666793825056
-0.12001220721752358
-0.1384756237125251
-0.1384756237125251
-0.12001220721752358
-0.15693904020752658
-0.15693904020752658
-0.13232115154751534
-0.15078456804251686
-0.17540245670252808
-0.14463009587750708
-0.1384756237125251
-0.14463009587750708
-0.18771140103251985
-0.17540245670252808
-0.1938658731975296
-0.12001220721752358
-0.1692479845375183
-0.575443147427579
-0.02769512474251612
0.04000406907250786
-0.12001220721752358
-0.10770326288750408
-0.1015487907225221
-0.11385773505251384
-0.1015487907225221
-0.07693090206251085
-0.04615854123751762
-0.01538618041249662
-0.06462195773251911
-0.08308537422752059
-0.14463009587750708
-0.1692479845375183
-0.2061748175275213
-0.18771140103251985
-0.15078456804251686
-0.14463009587750708
-0.2000203453625393
-0.18771140103251985
-0.18771140103251985
-0.1938658731975296
-0.1692479845375183
-0.15693904020752658
-0.14463009587750708
-0.10770326288750408
-0.1384756237125251
-0.07693090206251085
-0.13232115154751534
-0.1384756237125251
-0.15693904020752658
-0.13232115154751534
-0.10770326288750408
-0.09539431855751236
-0.1261666793825056
-0.1261666793825056
-0.1261666793825056
-0.16309351237253633
-0.1938658731975296
-0.2246382340225228
-0.12001220721752358
0.433890287632549
-0.1938658731975296
-0.14463009587750708
-0.12001220721752358
-0.1261666793825056
-0.16309351237253633
-0.1692479845375183
-0.17540245670252808
-0.4523537041275505
-0.433890287632549
-0.29233742783754685
-0.24925612268253405
-0.2061748175275213
-0.2000203453625393
-0.1938658731975296
-0.18155692886753785
0.05231301340249961
0.390808982477564
-0.12001220721752358
-0.07693090206251085
-0.08308537422752059
-0.11385773505251384
-0.1384756237125251
-0.2061748175275213
-0.5323618422725662
-0.4831260649525715
-0.36619109381755277
-0.3108008443325483
-0.2738740113425453
-0.2554105948475438
-0.2431016505175243
-0.23079270618753256
-0.2431016505175243
-0.2061748175275213
-0.18155692886753785
-0.2000203453625393
-0.21232928969253104
-0.2000203453625393
-0.18771140103251985
-0.2184837618575408
-0.2000203453625393
-0.1384756237125251
-0.17540245670252808
-0.17540245670252808
-0.15078456804251686
-0.13232115154751534
-0.06462195773251911
-0.15693904020752658
-0.1938658731975296
-0.2000203453625393
-0.1938658731975296
-0.18771140103251985
-0.21232928969253104
-0.2061748175275213
-0.1938658731975296
-0.1938658731975296
-0.2061748175275213
-0.23079270618753256
-0.1938658731975296
-0.16309351237253633
-0.21232928969253104
-0.23079270618753256
-0.2184837618575408
-0.2000203453625393
-0.2554105948475438
-0.26771953917753555
-0.24925612268253405
-0.2431016505175243
-0.2554105948475438
-0.23079270618753256
-0.2184837618575408
-0.2184837618575408
-0.24925612268253405
-0.24925612268253405
-0.2369471783525424
-0.23079270618753256
-0.29233742783754685
-0.32310978866254003
-0.26771953917753555
-0.30464637216753854
-0.6492968134075847
-0.10770326288750408
-0.0707764298975011
-0.2061748175275213
-0.2246382340225228
-0.2431016505175243
-0.2554105948475438
-0.23079270618753256
-0.26156506701252585
-0.2800284835075273
-0.2984919000025288
-0.2061748175275213
-0.2369471783525424
-0.2431016505175243
-0.23079270618753256
-0.18771140103251985
-0.16309351237253633
-0.1261666793825056
-0.11385773505251384
-0.1261666793825056
-0.13232115154751534
-0.15078456804251686
-0.17540245670252808
0.14463009587750708
-0.10770326288750408
-0.36619109381755277
-0.2554105948475438
-0.2184837618575408
-0.2369471783525424
-0.28618295567253704
-0.2984919000025288
-0.2431016505175243
-0.2800284835075273
-0.2984919000025288
-0.26771953917753555
-0.26771953917753555
-0.2431016505175243
-0.2246382340225228
-0.23079270618753256
-0.17540245670252808
-0.17540245670252808
0.003077236082504875
0.02769512474251612
-0.04615854123751762
-0.06462195773251911
-0.09539431855751236
-0.15078456804251686
-0.13232115154751534
-0.18771140103251985
-0.1938658731975296
-0.18771140103251985
-0.18771140103251985
-0.18155692886753785
-0.18155692886753785
-0.24925612268253405
-0.2369471783525424
-0.4523537041275505
-0.4831260649525715
-0.1692479845375183
0.29233742783754685
-0.30464637216753854
-0.2184837618575408
-0.2061748175275213
-0.3108008443325483
-0.6554512855725947
-0.46466264845757
-0.31695531649755804
-0.2431016505175243
-0.2061748175275213
-0.2061748175275213
-0.1692479845375183
-0.05231301340249961
-0.14463009587750708
-0.1384756237125251
-0.11385773505251384
-0.1261666793825056
-0.11385773505251384
-0.1015487907225221
-0.08923984639250257
-0.02769512474251612
-0.08923984639250257
-0.08923984639250257
-0.05846748556750937
-0.04615854123751762
-0.04615854123751762
-0.003077236082504875
0.04615854123751762
-0.033849596907498114
-0.0707764298975011
-0.05231301340249961
-0.04000406907250786
-0.02769512474251612
-0.02154065257750637
-0.02769512474251612
0.003077236082504875
0.033849596907498114
-0.009231708247514623
0.003077236082504875
0.05231301340249961
0.05231301340249961
0.06462195773251911
0.15078456804251686
0.15078456804251686
0.18155692886753785
0.08923984639250257
0.10770326288750408
0.12001220721752358
0.10770326288750408
0.06462195773251911
0.02769512474251612
0.06462195773251911
0.11385773505251384
0.02154065257750637
0.003077236082504875
-0.05846748556750937
-0.08923984639250257
-0.24925612268253405
-0.2554105948475438
-0.2000203453625393
-0.12001220721752358
-0.17540245670252808
-0.2554105948475438
-0.5877520917575707
-0.01538618041249662
0.07693090206251085
0.009231708247514623
0.04615854123751762
0.08923984639250257
0.04000406907250786
0.06462195773251911
0.08308537422752059
0.21232928969253104
0.24925612268253405
0.17540245670252808
0.12001220721752358
0.1261666793825056
0.04000406907250786
0.04615854123751762
0.05846748556750937
0.09539431855751236
0.15078456804251686
0.15693904020752658
0.2061748175275213
0.2554105948475438
0.1692479845375183
0.23079270618753256
0.26156506701252585
0.2000203453625393
0.1938658731975296
0.1692479845375183
0.1261666793825056
0.11385773505251384
0.02154065257750637
0.05231301340249961
0.05231301340249961
0.05846748556750937
0.08923984639250257
0.1692479845375183
0.2184837618575408
0.18155692886753785
0.1261666793825056
0.15693904020752658
0.04615854123751762
0.009231708247514623
-0.009231708247514623
-0.02769512474251612
-0.06462195773251911
-0.0707764298975011
-0.1692479845375183
-0.15693904020752658
-0.15693904020752658
-0.1692479845375183
-0.1938658731975296
-0.2000203453625393
-0.18771140103251985
-0.18155692886753785
-0.2369471783525424
-0.2000203453625393
-0.18771140103251985
-0.17540245670252808
0.009231708247514623
0.4523537041275505
-0.14463009587750708
-0.3723455659825625
-0.5877520917575707
-0.40927239897256545
-0.34772767732255133
-0.2984919000025288
-0.2984919000025288
-0.33541873299255964
-0.29233742783754685
-0.009231708247514623
-0.14463009587750708
-0.2369471783525424
-0.26156506701252585
-0.24925612268253405
-0.2800284835075273
-0.3108008443325483
-0.3108008443325483
-0.2738740113425453
-0.33541873299255964
-0.33541873299255964
-0.30464637216753854
-0.2554105948475438
-0.2431016505175243
-0.26771953917753555
-0.37850003814754446
-0.2800284835075273
-0.2800284835075273
-0.2554105948475438
-0.2000203453625393
-0.15078456804251686
-0.11385773505251384
-0.08308537422752059
-0.05846748556750937
-0.02154065257750637
-0.06462195773251911
0.02154065257750637
0.07693090206251085
0.15078456804251686
0.1938658731975296
0.21232928969253104
0.2246382340225228
0.3108008443325483
0.28618295567253704
0.34772767732255133
0.36619109381755277
0.4154268711375475
0.46466264845757
0.45850817629256013
0.427735815467567
0.4154268711375475
0.32310978866254003
0.3108008443325483
0.23079270618753256
0.2000203453625393
0.21232928969253104
0.18771140103251985
0.21232928969253104
0.6554512855725947
-0.2184837618575408
0.2800284835075273
0.2369471783525424
0.1384756237125251
0.08923984639250257
0.04000406907250786
0.009231708247514623
-0.33541873299255964
-0.3846545103125543
-0.21232928969253104
-0.16309351237253633
-0.1015487907225221
-0.15693904020752658
-0.17540245670252808
-0.2000203453625393
-0.1938658731975296
-0.2554105948475438
-0.2554105948475438
-0.2800284835075273
-0.30464637216753854
-0.3415732051575415
-0.3723455659825625
-0.3846545103125543
-0.427735815467567
-0.5200528979425745
-0.5015894814475731
-0.5262073701075842
-0.575443147427579
-0.5877520917575707
-0.6246789247476012
-0.6616057577376044
-0.6616057577376044
-0.7293049515526008
-0.7354594237176102
-0.7539228402126119
-0.8216220340276081
-0.895475700007614
-0.9508659494926462
-1.0124106711426328
-1.0678009206276373
-1.0862643371226666
-1.0616464484626553
-1.0616464484626553
-1.0124106711426328
-0.9262480608326351
-0.8031586175326066
-0.6185244525825918
-0.47697159278756174
-0.33541873299255964
-0.14463009587750708
0.01538618041249662
0.1261666793825056
0.17540245670252808
0.2246382340225228
0.21232928969253104
0.15693904020752658
-0.009231708247514623
0.02154065257750637
0.11385773505251384
0.14463009587750708
0.08923984639250257
-0.01538618041249662
-0.2800284835075273
0.26156506701252585
0.08308537422752059
-0.11385773505251384
-0.2431016505175243
-0.33541873299255964
-0.4523537041275505
-0.5569797309325777
-0.5323618422725662
-0.7846952010376053
-0.901630172172624
-0.8031586175326066
-0.8093130896976164
-0.7662317845426038
-0.7293049515526008
-0.7108415350575992
-0.6431423412426027
-0.5508252587675677
-0.42158134330255725
-0.2800284835075273
-0.12001220721752358
0.033849596907498114
0.10770326288750408
0.2246382340225228
0.360036621652543
0.26156506701252585
0.1692479845375183
0.12001220721752358
0.04000406907250786
-0.009231708247514623
-0.009231708247514623
-0.05231301340249961
-0.1015487907225221
-0.11385773505251384
-0.0707764298975011
-0.003077236082504875
-0.01538618041249662
-0.05846748556750937
0.003077236082504875
0.05231301340249961
-0.003077236082504875
-0.12001220721752358
-0.21232928969253104
-0.2738740113425453
-0.32310978866254003
-0.3415732051575415
-0.32310978866254003
-0.26156506701252585
-0.15693904020752658
-0.09539431855751236
-0.05231301340249961
0.04615854123751762
0.0707764298975011
0.05231301340249961
-0.04615854123751762
0.003077236082504875
0.07693090206251085
0.003077236082504875
0.009231708247514623
0.02769512474251612
0.01538618041249662
-0.02769512474251612
-0.003077236082504875
-0.02769512474251612
-0.36619109381755277
0.1692479845375183
0.2000203453625393
0.04000406907250786
0.033849596907498114
0.08923984639250257
0.033849596907498114
0.003077236082504875
0.01538618041249662
-0.033849596907498114
-0.08308537422752059
-0.13232115154751534
-0.15693904020752658
-0.2246382340225228
-0.2246382340225228
-0.1938658731975296
-0.14463009587750708
-0.11385773505251384
-0.07693090206251085
-0.09539431855751236
-0.1692479845375183
-0.06462195773251911
0.02769512474251612
0.05846748556750937
0.42158134330255725
0.26156506701252585
0.05846748556750937
0.2184837618575408
0.26771953917753555
0.26771953917753555
0.2800284835075273
0.2369471783525424
0.2554105948475438
0.23079270618753256
0.23079270618753256
0.2184837618575408
0.1938658731975296
0.13232115154751534
0.04615854123751762
-0.04615854123751762
-0.10770326288750408
-0.29233742783754685
-0.3846545103125543
-0.46466264845757
-0.5262073701075842
-0.5446707866025856
-0.5631342030975872
-0.5939065639225805
-0.5508252587675677
-0.5631342030975872
-0.5692886752625692
-0.575443147427579
-0.5508252587675677
-0.5508252587675677
-0.5508252587675677
-0.5446707866025856
-0.4892805371175811
-0.5138984257775646
-0.28618295567253704
0.0707764298975011
-0.40927239897256545
-0.35388214948756086
-0.36619109381755277
-0.3723455659825625
-0.390808982477564
-0.6862236463975879
-0.5262073701075842
-0.390808982477564
-0.32310978866254003
-0.3108008443325483
-0.2800284835075273
-0.3108008443325483
-0.3108008443325483
-0.37850003814754446
-0.34772767732255133
-0.36619109381755277
-0.3846545103125543
-0.40927239897256545
-0.4523537041275505
-0.4400447597975588
-0.44619923196256844
-0.5138984257775646
-0.4892805371175811
-0.4831260649525715
-0.4831260649525715
-0.49543500928256323
-0.5015894814475731
-0.49543500928256323
-0.44619923196256844
-0.5446707866025856
-0.5631342030975872
-0.5446707866025856
-0.4892805371175811
-0.47697159278756174
-0.4523537041275505
-0.4154268711375475
-0.33541873299255964
-0.35388214948756086
-0.30464637216753854
-0.2984919000025288
-0.2800284835075273
-0.26771953917753555
-0.2431016505175243
-0.2184837618575408
-0.17540245670252808
-0.2431016505175243
-0.2800284835075273
-0.17540245670252808
-0.13232115154751534
-0.1261666793825056
-0.1261666793825056
-0.09539431855751236
-0.02769512474251612
-0.1015487907225221
-0.10770326288750408
-0.11385773505251384
-0.1015487907225221
-0.09539431855751236
-0.1261666793825056
-0.15078456804251686
-0.10770326288750408
-0.28618295567253704
-0.6677602299025862
-0.10770326288750408
-0.003077236082504875
-0.12001220721752358
-0.17540245670252808
-0.1938658731975296
-0.13232115154751534
-0.1938658731975296
-0.18155692886753785
-0.16309351237253633
-0.14463009587750708
-0.15693904020752658
-0.16309351237253633
-0.15693904020752658
-0.13232115154751534
-0.2061748175275213
-0.21232928969253104
-0.15078456804251686
-0.26156506701252585
-0.2554105948475438
-0.26156506701252585
-0.24925612268253405
-0.24925612268253405
-0.33541873299255964
-0.33541873299255964
-0.36619109381755277
-0.35388214948756086
-0.33541873299255964
-0.34772767732255133
-0.35388214948756086
-0.28618295567253704
-0.3108008443325483
-0.28618295567253704
-0.2984919000025288
-0.28618295567253704
-0.26771953917753555
-0.28618295567253704
-0.28618295567253704
-0.26771953917753555
-0.3292642608275498
-0.30464637216753854
-0.3292642608275498
-0.3292642608275498
-0.30464637216753854
-0.29233742783754685
-0.2738740113425453
-0.26156506701252585
-0.29233742783754685
-0.2554105948475438
-0.2431016505175243
-0.24925612268253405
-0.2246382340225228
-0.21232928969253104
-0.1938658731975296
-0.15693904020752658
-0.1938658731975296
-0.13232115154751534
-0.12001220721752358
0.09539431855751236
0.433890287632549
-0.06462195773251911
0.009231708247514623
-0.14463009587750708
-0.40311792680755576
-0.2184837618575408
-0.15693904020752658
-0.13232115154751534
-0.12001220721752358
-0.12001220721752358
-0.1261666793825056
0.37850003814754446
-0.44619923196256844
-0.05231301340249961
0.05846748556750937
-0.08308537422752059
-0.15693904020752658
-0.17540245670252808
-0.1938658731975296
-0.47697159278756174
-0.6554512855725947
-0.4892805371175811
-0.42158134330255725
-0.390808982477564
-0.390808982477564
-0.37850003814754446
-0.3415732051575415
-0.3292642608275498
-0.390808982477564
-0.390808982477564
-0.3846545103125543
-0.3846545103125543
-0.396963454642546
-0.30464637216753854
-0.26771953917753555
-0.2738740113425453
-0.35388214948756086
-0.3415732051575415
-0.33541873299255964
-0.33541873299255964
-0.3415732051575415
-0.36619109381755277
-0.36619109381755277
-0.33541873299255964
-0.37850003814754446
-0.35388214948756086
-0.34772767732255133
-0.3292642608275498
-0.2431016505175243
-0.1938658731975296
-0.13232115154751534
-0.08923984639250257
-0.1692479845375183
-0.16309351237253633
-0.15693904020752658
-0.1384756237125251
-0.13232115154751534
-0.10770326288750408
-0.09539431855751236
-0.07693090206251085
-0.11385773505251384
-0.08923984639250257
-0.04615854123751762
0.18771140103251985
0.31695531649755804
0.2738740113425453
0.3108008443325483
0.33541873299255964
0.26156506701252585
0.2738740113425453
0.2800284835075273
0.26771953917753555
0.26156506701252585
0.28618295567253704
0.02154065257750637
0.16309351237253633
0.6246789247476012
0.4892805371175811
0.1938658731975296
0.2000203453625393
0.390808982477564
0.42158134330255725
0.45850817629256013
0.5877520917575707
0.46466264845757
0.42158134330255725
0.37850003814754446
0.34772767732255133
0.34772767732255133
0.4154268711375475
0.46466264845757
0.390808982477564
0.28618295567253704
0.2738740113425453
0.17540245670252808
0.01538618041249662
-0.10770326288750408
-0.28618295567253704
-0.34772767732255133
-0.42158134330255725
-0.5015894814475731
-0.538516314437576
-0.6000610360875902
-0.6923781185625978
-0.7970041453676248
-0.7908496732026148
-0.7723862567076134
-0.7354594237176102
-0.6739147020675963
-0.5692886752625692
-0.44619923196256844
-0.396963454642546
-0.360036621652543
-0.360036621652543
-0.32310978866254003
-0.2554105948475438
-0.2554105948475438
-0.26771953917753555
-0.2984919000025288
-0.3108008443325483
-0.32310978866254003
-0.1261666793825056
0.34772767732255133
-0.6492968134075847
-0.6985325907276074
-0.5692886752625692
-0.5692886752625692
-0.5631342030975872
-0.4831260649525715
-0.3846545103125543
-0.2431016505175243
-0.15693904020752658
-0.04000406907250786
0.08308537422752059
0.23079270618753256
0.31695531649755804
0.35388214948756086
0.4154268711375475
0.6246789247476012
0.6677602299025862
0.6246789247476012
0.6492968134075847
0.6062155082525723
0.5569797309325777
0.5569797309325777
0.5323618422725662
0.5631342030975872
0.5015894814475731
0.34772767732255133
0.2554105948475438
0.15078456804251686
0.10770326288750408
0.07693090206251085
-0.04000406907250786
-0.1384756237125251
-0.12001220721752358
-0.12001220721752358
-0.09539431855751236
-0.11385773505251384
-0.10770326288750408
-0.11385773505251384
-0.16309351237253633
-0.11385773505251384
-0.10770326288750408
-0.04615854123751762
0.11385773505251384
0.2984919000025288
0.5877520917575707
0.7908496732026148
1.0308740876376343
1.3570611123826792
1.8432644134177558
2.3663945474428347
2.495638462907845
2.2802319371328093
1.8124920525927626
1.4186058340326935
1.221662724752659
1.0554919762976458
0.8523943948526291
0.7354594237176102
0.7354594237176102
0.8216220340276081
0.9939472546476313
1.0616464484626553
0.7600773123775938
1.1170366979476598
0.8216220340276081
0.46466264845757
0.2369471783525424
-0.009231708247514623
-0.2246382340225228
-0.37850003814754446
-0.5138984257775646
-0.6000610360875902
-0.7539228402126119
-0.895475700007614
-0.9324025329976448
-0.9570204216576284
-1.0185651433076426
-0.9877927824826491
-0.9447114773276367
-0.889321227842632
-0.9262480608326351
-0.895475700007614
-0.8462399226876194
-0.7970041453676248
-0.8400854505226096
-0.8462399226876194
-0.7600773123775938
-0.3723455659825625
-0.5877520917575707
-0.7970041453676248
-0.6554512855725947
-0.6123699804175823
-0.49543500928256323
-0.45850817629256013
-0.4523537041275505
-0.44619923196256844
-0.5077439536125827
-0.5015894814475731
-0.4831260649525715
-0.4892805371175811
-0.46466264845757
-0.433890287632549
-0.4154268711375475
-0.33541873299255964
-0.2984919000025288
-0.16309351237253633
-0.04615854123751762
0.08308537422752059
0.16309351237253633
0.3415732051575415
0.46466264845757
0.5939065639225805
0.6000610360875902
0.7046870628925892
0.7354594237176102
0.7477683680476023
0.7108415350575992
0.7108415350575992
0.6923781185625978
0.7723862567076134
1.000101726812641
1.289361918567683
0.8708578113476306
1.0185651433076426
1.0308740876376343
1.0062561989776508
0.9385570051626267
0.7846952010376053
0.3292642608275498
0.36619109381755277
0.360036621652543
0.29233742783754685
0.18771140103251985
-0.05846748556750937
-0.2369471783525424
-0.23079270618753256
-0.7293049515526008
-1.0431830319676536
-1.1539635309376628
-1.178581419597674
-1.1170366979476598
-0.9877927824826491
-0.8462399226876194
-0.7539228402126119
-0.8031586175326066
-0.7539228402126119
-0.7231504793875909
-0.6431423412426027
-0.6862236463975879
-0.7477683680476023
-0.9200935886676254
-0.7477683680476023
-0.7600773123775938
-0.7416138958825924
-0.7600773123775938
-0.7108415350575992
-0.6985325907276074
-0.7169960072226089
-0.7046870628925892
-0.6616057577376044
-0.7477683680476023
-0.7662317845426038
-0.7723862567076134
-0.8031586175326066
-0.7600773123775938
-0.8093130896976164
-0.9200935886676254
-0.889321227842632
-0.9816383103176396
-0.9816383103176396
-1.0247196154726523
-1.0678009206276373
-1.0370285598026439
-1.0431830319676536
-1.0431830319676536
-1.0247196154726523
-1.11088222578265
-1.11088222578265
-1.1231911701126696
-1.1355001144426613
-1.2031993082576575
-1.2585895577426898
-1.2708985020726815
-1.3447521680526875
-1.8124920525927626
-1.2462806134126705
-1.1662724752676545
-1.2278171969176688
-1.2708985020726815
-1.2401261412476885
-1.178581419597674
-1.0985732814526583
-1.0678009206276373
-0.9939472546476313
-0.8770122835126126
-0.7785407288726233
-0.8093130896976164
-0.7908496732026148
-0.7108415350575992
-0.6123699804175823
-0.5877520917575707
-0.4892805371175811
-0.4154268711375475
-0.3292642608275498
-0.24925612268253405
-0.14463009587750708
0.009231708247514623
0.40311792680755576
0.6862236463975879
0.427735815467567
0.7169960072226089
0.6123699804175823
0.5508252587675677
0.5262073701075842
0.47697159278756174
0.26156506701252585
0.003077236082504875
0.1692479845375183
0.21232928969253104
0.2738740113425453
0.29233742783754685
0.30464637216753854
0.2800284835075273
0.2800284835075273
0.08308537422752059
-0.06462195773251911
-0.06462195773251911
-0.04615854123751762
-0.05231301340249961
-0.0707764298975011
-0.05231301340249961
0.04615854123751762
-0.02769512474251612
-0.02769512474251612
-0.02154065257750637
-0.01538618041249662
0.12001220721752358
0.3846545103125543
0.6923781185625978
0.9693293659876481
1.11088222578265
1.1478090587726528
1.326288751557686
1.578622110322725
0.9631748938226381
0.895475700007614
0.8154675618626261
0.5077439536125827
0.1692479845375183
0.30464637216753854
0.30464637216753854
0.28618295567253704
0.26771953917753555
0.2554105948475438
0.17540245670252808
0.009231708247514623
-0.09539431855751236
-0.14463009587750708
-0.2800284835075273
-0.5015894814475731
-0.9324025329976448
-1.4555326670226965
-1.8678823020777668
-2.052516467027782
-2.120215660842805
-2.070979883522784
-1.9048091350677696
-1.7694107474377496
-1.7078660257877356
-1.7263294422827367
-1.7201749701177547
-1.5970855268177266
-1.6217034154777374
-1.5232318608377204
-1.4493781948577145
-1.467841611352716
-1.5170773886727107
-1.4863050278477177
-1.3816790010426905
-1.3016708628976748
-1.2647440299076718
-1.1478090587726528
-1.0493375041326358
-0.9754838381526297
-0.8154675618626261
-0.6431423412426027
-0.7416138958825924
-0.6923781185625978
-0.6739147020675963
-0.5877520917575707
-0.5138984257775646
-0.47697159278756174
-0.4892805371175811
-0.4892805371175811
-0.5138984257775646
-0.538516314437576
-0.6062155082525723
-0.6123699804175823
-0.6062155082525723
-0.7046870628925892
-0.8770122835126126
-0.7231504793875909
-0.6123699804175823
-0.5200528979425745
-0.46466264845757
-0.433890287632549
-0.6739147020675963
-0.033849596907498114
0.13232115154751534
0.08923984639250257
0.2000203453625393
0.33541873299255964
0.3723455659825625
0.433890287632549
0.49543500928256323
0.49543500928256323
0.4708171206225797
0.4154268711375475
0.4708171206225797
0.4892805371175811
0.360036621652543
0.2554105948475438
0.18771140103251985
0.16309351237253633
0.15693904020752658
0.14463009587750708
0.11385773505251384
0.05846748556750937
-0.02154065257750637
0.07693090206251085
0.05846748556750937
0.033849596907498114
0.033849596907498114
0.05846748556750937
0.1015487907225221
0.1384756237125251
0.08923984639250257
0.07693090206251085
0.04615854123751762
-0.003077236082504875
-0.033849596907498114
-0.10770326288750408
-0.1938658731975296
-0.26771953917753555
-0.2738740113425453
-0.2554105948475438
-0.24925612268253405
-0.2738740113425453
-0.26771953917753555
-0.23079270618753256
-0.2000203453625393
-0.1938658731975296
-0.2246382340225228
-0.2061748175275213
-0.2369471783525424
-0.23079270618753256
-0.2431016505175243
-0.2000203453625393
-0.2000203453625393
-0.21232928969253104
-0.2800284835075273
-0.24925612268253405
-0.2369471783525424
-0.26156506701252585
-0.13232115154751534
0.17540245670252808
-0.2738740113425453
-0.5200528979425745
-0.575443147427579
-0.49543500928256323
-0.433890287632549
-0.40311792680755576
-0.40311792680755576
-0.42158134330255725
-0.36619109381755277
-0.4154268711375475
-0.4523537041275505
-0.4523537041275505
-0.4892805371175811
-0.4831260649525715
-0.45850817629256013
-0.433890287632549
-0.3723455659825625
-0.31695531649755804
-0.3108008443325483
-0.26771953917753555
-0.2554105948475438
-0.26771953917753555
-0.2984919000025288
-0.2800284835075273
-0.31695531649755804
-0.33541873299255964
-0.35388214948756086
-0.36619109381755277
-0.360036621652543
-0.3723455659825625
-0.40311792680755576
-0.44619923196256844
-0.4708171206225797
-0.5446707866025856
-0.5939065639225805
-0.6000610360875902
-0.6308333969125834
-0.6185244525825918
-0.6000610360875902
-0.6923781185625978
-0.6492968134075847
-0.6554512855725947
-0.6246789247476012
-0.5446707866025856
-0.4892805371175811
-0.396963454642546
-0.36619109381755277
-0.3292642608275498
-0.29233742783754685
-0.3108008443325483
-0.360036621652543
-0.34772767732255133
-0.2984919000025288
-0.2431016505175243
-0.26156506701252585
-0.3415732051575415
-0.44619923196256844
-0.5815976195925888
-0.6492968134075847
-0.6739147020675963
-0.6800691742326057
-0.7293049515526008
-1.0247196154726523
-0.433890287632549
-0.36619109381755277
-0.5200528979425745
-0.575443147427579
-0.5446707866025856
-0.49543500928256323
-0.46466264845757
-0.36619109381755277
-0.32310978866254003
-0.2738740113425453
-0.30464637216753854
-0.34772767732255133
-0.3846545103125543
-0.42158134330255725
-0.396963454642546
-0.36619109381755277
-0.360036621652543
-0.3415732051575415
-0.40311792680755576
-0.4523537041275505
-0.433890287632549
-0.46466264845757
-0.45850817629256013
-0.4523537041275505
-0.42158134330255725
-0.32310978866254003
-0.3108008443325483
-0.2431016505175243
-0.18155692886753785
-0.18155692886753785
-0.17540245670252808
-0.1692479845375183
-0.17540245670252808
0.15693904020752658
-0.1015487907225221
-0.3108008443325483
-0.21232928969253104
-0.11385773505251384
-0.04615854123751762
-0.009231708247514623
-0.033849596907498114
0.003077236082504875
-0.06462195773251911
-0.08923984639250257
-0.05846748556750937
-0.0707764298975011
-0.1384756237125251
-0.1938658731975296
-0.2184837618575408
-0.1692479845375183
-0.1692479845375183
-0.1384756237125251
-0.05231301340249961
-0.09539431855751236
-0.1384756237125251
-0.12001220721752358
-0.14463009587750708
0.08923984639250257
0.3292642608275498
-0.18771140103251985
-0.16309351237253633
-0.2246382340225228
-0.2369471783525424
-0.2738740113425453
-0.3292642608275498
-0.390808982477564
-0.8339309783576276
-0.6985325907276074
-0.6000610360875902
-0.5877520917575707
-0.5692886752625692
-0.575443147427579
-0.5631342030975872
-0.5077439536125827
-0.5446707866025856
-0.538516314437576
-0.5077439536125827
-0.4400447597975588
-0.37850003814754446
-0.3292642608275498
-0.1384756237125251
-0.15693904020752658
-0.29233742783754685
-0.32310978866254003
-0.40311792680755576
-0.427735815467567
-0.4154268711375475
-0.4400447597975588
-0.49543500928256323
-0.47697159278756174
-0.5508252587675677
-0.5446707866025856
-0.5569797309325777
-0.5446707866025856
-0.5015894814475731
-0.45850817629256013
-0.45850817629256013
-0.05846748556750937
-0.16309351237253633
-0.390808982477564
0.12001220721752358
0.003077236082504875
-0.033849596907498114
-0.04000406907250786
0.003077236082504875
-0.1384756237125251
-0.4400447597975588
-0.1938658731975296
-0.07693090206251085
-0.009231708247514623
0.02154065257750637
0.06462195773251911
0.08923984639250257
0.12001220721752358
-0.01538618041249662
-0.02154065257750637
-0.02769512474251612
-0.02769512474251612
-0.003077236082504875
0.02154065257750637
0.033849596907498114
0.04615854123751762
0.003077236082504875
0.04615854123751762
0.16309351237253633
0.30464637216753854
0.26156506701252585
0.30464637216753854
0.34772767732255133
0.3846545103125543
0.2000203453625393
0.11385773505251384
-0.07693090206251085
-0.40311792680755576
-0.5569797309325777
-0.6308333969125834
-0.7169960072226089
-0.7231504793875909
-0.901630172172624
-1.0370285598026439
-1.1970448360926755
-1.3447521680526875
-1.3570611123826792
-1.4309147783627132
-1.467841611352716
-1.3755245288776807
-1.510922916507701
-1.5724676381577152
-1.6217034154777374
-1.6278578876427194
-1.5355408051677124
-1.4062968897027015
-1.3755245288776807
-1.2278171969176688
-1.1170366979476598
-0.9200935886676254
-0.8031586175326066
-0.6185244525825918
-0.4154268711375475
-0.29233742783754685
-0.28618295567253704
-0.34772767732255133
0.40311792680755576
0.4831260649525715
0.5262073701075842
0.6123699804175823
0.6369878690775933
0.6923781185625978
0.7600773123775938
0.8770122835126126
0.9200935886676254
1.0062561989776508
0.9877927824826491
1.0431830319676536
1.0985732814526583
1.0185651433076426
0.9508659494926462
0.8093130896976164
0.5077439536125827
0.5262073701075842
0.8093130896976164
0.2738740113425453
0.2000203453625393
0.0707764298975011
-0.003077236082504875
-0.2738740113425453
-0.575443147427579
-0.44619923196256844
-0.4154268711375475
-0.30464637216753854
-0.04615854123751762
0.2431016505175243
0.5815976195925888
0.7908496732026148
0.7539228402126119
0.7231504793875909
0.6246789247476012
0.42158134330255725
0.21232928969253104
0.08923984639250257
0.003077236082504875
-0.10770326288750408
-0.2800284835075273
-0.360036621652543
-0.4708171206225797
-0.6308333969125834
-0.8339309783576276
-0.9508659494926462
-1.0247196154726523
-1.1478090587726528
-1.3324432237226955
-1.4432237226927047
-1.5601586938277234
-1.6278578876427194
-1.6340123598077294
-1.6217034154777374
-1.5355408051677124
-1.3201342793926762
-1.221662724752659
-1.073955392792647
-0.9200935886676254
-0.7539228402126119
-0.6185244525825918
-0.49543500928256323
-0.3846545103125543
-0.28618295567253704
-0.1938658731975296
0.01538618041249662
0.1692479845375183
0.37850003814754446
0.6062155082525723
0.7600773123775938
0.895475700007614
0.9139391165026156
0.6308333969125834
0.3415732051575415
0.46466264845757
0.7970041453676248
1.0924188092876486
1.2585895577426898
1.3324432237226955
1.3201342793926762
1.1170366979476598
0.6616057577376044
1.1170366979476598
1.0431830319676536
0.8093130896976164
0.6739147020675963
0.5446707866025856
0.4708171206225797
0.32310978866254003
0.2431016505175243
0.1938658731975296
0.12001220721752358
0.04000406907250786
-0.08308537422752059
-0.17540245670252808
-0.2184837618575408
-0.31695531649755804
-0.29233742783754685
-0.2984919000025288
-0.32310978866254003
-0.29233742783754685
-0.3108008443325483
-0.3292642608275498
-0.33541873299255964
-0.3723455659825625
-0.3723455659825625
-0.3723455659825625
-0.37850003814754446
-0.390808982477564
-0.427735815467567
-0.40311792680755576
-0.40927239897256545
-0.45850817629256013
-0.5939065639225805
-0.5631342030975872
-0.4892805371175811
-0.433890287632549
-0.45850817629256013
-0.40311792680755576
-0.3415732051575415
-0.34772767732255133
-0.30464637216753854
-0.24925612268253405
-0.21232928969253104
-0.2000203453625393
-0.1261666793825056
-0.08923984639250257
0.02769512474251612
0.26156506701252585
0.15078456804251686
0.07693090206251085
0.02154065257750637
0.02154065257750637
0.003077236082504875
-0.02769512474251612
-0.033849596907498114
-0.08923984639250257
-0.09539431855751236
-0.1261666793825056
0.08308537422752059
0.5446707866025856
-0.10770326288750408
-0.0707764298975011
-0.3723455659825625
-0.396963454642546
-0.24925612268253405
-0.1938658731975296
-0.16309351237253633
-0.1261666793825056
-0.09539431855751236
-0.0707764298975011
-0.04615854123751762
-0.07693090206251085
-0.05846748556750937
-0.07693090206251085
-0.1015487907225221
-0.1384756237125251
-0.18155692886753785
-0.28618295567253704
-0.18771140103251985
-0.2061748175275213
-0.2061748175275213
-0.1938658731975296
-0.18155692886753785
-0.18155692886753785
-0.15693904020752658
-0.14463009587750708
-0.15078456804251686
-0.18155692886753785
-0.1692479845375183
-0.1692479845375183
-0.1692479845375183
-0.18771140103251985
-0.16309351237253633
-0.15693904020752658
-0.2000203453625393
-0.21232928969253104
-0.1938658731975296
-0.2000203453625393
-0.21232928969253104
-0.23079270618753256
-0.2431016505175243
-0.23079270618753256
-0.2738740113425453
-0.3108008443325483
-0.3108008443325483
-0.31695531649755804
-0.3108008443325483
-0.31695531649755804
-0.30464637216753854
-0.31695531649755804
-0.34772767732255133
-0.3723455659825625
-0.360036621652543
-0.36619109381755277
-0.36619109381755277
-0.33541873299255964
-0.33541873299255964
-0.32310978866254003
-0.33541873299255964
-0.360036621652543
-0.360036621652543
-0.40927239897256545
-0.7662317845426038
-0.2000203453625393
-0.1261666793825056
-0.2369471783525424
-0.2738740113425453
-0.2984919000025288
-0.2984919000025288
-0.2800284835075273
-0.28618295567253704
-0.2984919000025288
-0.32310978866254003
-0.3108008443325483
-0.31695531649755804
-0.3415732051575415
-0.3292642608275498
-0.28618295567253704
-0.2984919000025288
-0.31695531649755804
-0.29233742783754685
-0.26771953917753555
-0.2800284835075273
-0.26771953917753555
-0.2554105948475438
-0.2554105948475438
-0.2431016505175243
-0.2246382340225228
-0.23079270618753256
-0.2061748175275213
-0.2431016505175243
-0.2184837618575408
-0.1938658731975296
-0.21232928969253104
-0.21232928969253104
-0.2246382340225228
-0.24925612268253405
-0.2800284835075273
-0.2800284835075273
-0.2738740113425453
-0.2738740113425453
-0.2738740113425453
-0.28618295567253704
-0.31695531649755804
-0.31695531649755804
-0.009231708247514623
-0.23079270618753256
-0.5631342030975872
-0.4400447597975588
-0.40927239897256545
-0.390808982477564
-0.37850003814754446
-0.396963454642546
-0.16309351237253633
0.21232928969253104
-0.390808982477564
-0.31695531649755804
-0.33541873299255964
-0.390808982477564
-0.42158134330255725
-0.29233742783754685
-0.18771140103251985
-0.9447114773276367
-0.7539228402126119
-0.6616057577376044
-0.6246789247476012
-0.5939065639225805
-0.5631342030975872
-0.5077439536125827
-0.390808982477564
-0.390808982477564
-0.34772767732255133
-0.3108008443325483
-0.2800284835075273
-0.3108008443325483
-0.30464637216753854
-0.28618295567253704
-0.2184837618575408
-0.3108008443325483
-0.33541873299255964
-0.32310978866254003
-0.2984919000025288
-0.29233742783754685
-0.2800284835075273
-0.26156506701252585
-0.2369471783525424
-0.29233742783754685
-0.2554105948475438
-0.24925612268253405
-0.2738740113425453
-0.32310978866254003
-0.40927239897256545
-0.5323618422725662
-0.44619923196256844
-0.4892805371175811
-0.4892805371175811
-0.5015894814475731
-0.4708171206225797
-0.46466264845757
-0.4523537041275505
-0.44619923196256844
-0.40927239897256545
-0.4708171206225797
-0.427735815467567
-0.46466264845757
-0.47697159278756174
-0.40927239897256545
-0.396963454642546
-0.433890287632549
-0.40311792680755576
-0.47697159278756174
-0.46466264845757
-0.42158134330255725
-0.4400447597975588
-0.4708171206225797
-0.427735815467567
-0.390808982477564
-0.33541873299255964
-0.42158134330255725
-0.3723455659825625
-0.2738740113425453
-0.1384756237125251
-0.15693904020752658
-0.1692479845375183
-0.4708171206225797
0.2000203453625393
0.21232928969253104
0.15078456804251686
0.1938658731975296
0.2061748175275213
0.2246382340225228
0.2554105948475438
0.3108008443325483
0.396963454642546
0.33541873299255964
0.3292642608275498
0.2984919000025288
0.2800284835075273
0.2984919000025288
0.28618295567253704
0.29233742783754685
0.32310978866254003
0.26156506701252585
0.26771953917753555
0.26771953917753555
0.2800284835075273
0.2800284835075273
0.2246382340225228
0.1938658731975296
0.21232928969253104
0.12001220721752358
0.10770326288750408
0.033849596907498114
-0.009231708247514623
-0.02154065257750637
-0.08923984639250257
-0.1015487907225221
-0.06462195773251911
-0.15693904020752658
-0.15693904020752658
-0.15693904020752658
-0.1692479845375183
-0.18155692886753785
-0.18771140103251985
-0.2246382340225228
-0.1938658731975296
-0.2984919000025288
-0.33541873299255964
-0.3292642608275498
-0.33541873299255964
-0.3415732051575415
-0.33541873299255964
-0.34772767732255133
-0.28618295567253704
-0.3415732051575415
-0.3292642608275498
-0.30464637216753854
-0.2800284835075273
-0.2738740113425453
-0.2800284835075273
-0.2246382340225228
-0.1384756237125251
-0.02769512474251612
0.40311792680755576
-0.2431016505175243
-0.21232928969253104
-0.24925612268253405
-0.2431016505175243
-0.2554105948475438
-0.44619923196256844
-0.6185244525825918
-0.40927239897256545
-0.3292642608275498
-0.2738740113425453
-0.2431016505175243
-0.2554105948475438
-0.2738740113425453
-0.26771953917753555
-0.3108008443325483
-0.31695531649755804
-0.2984919000025288
-0.2984919000025288
-0.32310978866254003
-0.31695531649755804
-0.2984919000025288
-0.2738740113425453
-0.33541873299255964
-0.3292642608275498
-0.33541873299255964
-0.35388214948756086
-0.36619109381755277
-0.3292642608275498
-0.33541873299255964
-0.3108008443325483
-0.390808982477564
-0.396963454642546
-0.396963454642546
-0.3846545103125543
-0.35388214948756086
-0.32310978866254003
-0.30464637216753854
-0.2738740113425453
-0.3108008443325483
-0.31695531649755804
-0.29233742783754685
-0.2738740113425453
-0.2984919000025288
-0.2800284835075273
-0.2246382340225228
-0.2184837618575408
-0.28618295567253704
-0.2431016505175243
-0.21232928969253104
-0.1938658731975296
-0.2061748175275213
-0.17540245670252808
-0.14463009587750708
-0.1261666793825056
-0.1938658731975296
-0.2246382340225228
-0.18771140103251985
0.04000406907250786
0.05846748556750937
-0.04000406907250786
-0.08923984639250257
-0.18155692886753785
-0.575443147427579
-0.02154065257750637
0.04000406907250786
-0.09539431855751236
-0.14463009587750708
-0.14463009587750708
-0.12001220721752358
-0.1261666793825056
-0.2061748175275213
-0.1938658731975296
-0.2984919000025288
-0.36619109381755277
-0.26156506701252585
-0.21232928969253104
-0.18155692886753785
-0.15693904020752658
-0.2061748175275213
-0.17540245670252808
-0.16309351237253633
-0.14463009587750708
-0.1261666793825056
-0.14463009587750708
-0.1261666793825056
-0.08923984639250257
-0.11385773505251384
-0.08923984639250257
-0.1261666793825056
-0.1015487907225221
-0.10770326288750408
-0.09539431855751236
-0.08923984639250257
-0.05231301340249961
-0.06462195773251911
-0.07693090206251085
-0.08923984639250257
-0.08308537422752059
-0.09539431855751236
-0.11385773505251384
-0.12001220721752358
-0.10770326288750408
-0.1692479845375183
-0.1692479845375183
-0.15078456804251686
-0.14463009587750708
-0.1384756237125251
-0.14463009587750708
-0.15693904020752658
-0.16309351237253633
-0.18771140103251985
-0.2000203453625393
-0.16309351237253633
-0.15078456804251686
-0.1692479845375183
-0.18771140103251985
-0.16309351237253633
-0.08923984639250257
-0.1261666793825056
-0.1261666793825056
0.05846748556750937
0.49543500928256323
-0.16309351237253633
-0.0707764298975011
-0.07693090206251085
-0.396963454642546
-0.42158134330255725
-0.2800284835075273
-0.2554105948475438
-0.2738740113425453
-0.24925612268253405
-0.2369471783525424
-0.1692479845375183
-0.18771140103251985
-0.2246382340225228
-0.18771140103251985
-0.18155692886753785
-0.18771140103251985
-0.18155692886753785
-0.18155692886753785
-0.17540245670252808
-0.13232115154751534
-0.1692479845375183
-0.18155692886753785
-0.2000203453625393
-0.21232928969253104
-0.2061748175275213
-0.14463009587750708
-0.13232115154751534
-0.14463009587750708
-0.18771140103251985
-0.15693904020752658
-0.13232115154751534
-0.15078456804251686
-0.1692479845375183
-0.17540245670252808
-0.14463009587750708
-0.14463009587750708
-0.1938658731975296
-0.18771140103251985
-0.1938658731975296
-0.1938658731975296
-0.02769512474251612
-0.05231301340249961
-0.0707764298975011
-0.12001220721752358
-0.15078456804251686
-0.16309351237253633
-0.15078456804251686
-0.13232115154751534
-0.14463009587750708
-0.14463009587750708
-0.1261666793825056
-0.13232115154751534
-0.14463009587750708
-0.1692479845375183
-0.1938658731975296
-0.35388214948756086
-0.32310978866254003
-0.26771953917753555
-0.2061748175275213
-0.21232928969253104
-0.2369471783525424
-0.30464637216753854
-0.6431423412426027
-0.08923984639250257
0.003077236082504875
-0.1015487907225221
0.04615854123751762
0.4831260649525715
0.009231708247514623
0.08923984639250257
0.1384756237125251
0.16309351237253633
0.23079270618753256
0.26156506701252585
0.21232928969253104
-0.11385773505251384
-0.033849596907498114
0.07693090206251085
0.08308537422752059
0.08923984639250257
0.1015487907225221
0.10770326288750408
0.1384756237125251
0.06462195773251911
0.02154065257750637
-0.04615854123751762
-0.04000406907250786
-0.02769512474251612
-0.033849596907498114
-0.04000406907250786
-0.02769512474251612
-0.05231301340249961
-0.07693090206251085
-0.0707764298975011
-0.1015487907225221
-0.09539431855751236
-0.09539431855751236
-0.12001220721752358
-0.15693904020752658
-0.15078456804251686
-0.009231708247514623
-0.0707764298975011
-0.1261666793825056
-0.1938658731975296
-0.2000203453625393
-0.2000203453625393
0.09539431855751236
-0.1692479845375183
-0.396963454642546
-0.2738740113425453
-0.2800284835075273
-0.26771953917753555
-0.26156506701252585
-0.28618295567253704
-0.2738740113425453
-0.31695531649755804
-0.3415732051575415
-0.32310978866254003
-0.3415732051575415
-0.3292642608275498
-0.1384756237125251
0.3108008443325483
-0.396963454642546
-0.7169960072226089
-0.575443147427579
-0.433890287632549
-0.396963454642546
-0.37850003814754446
-0.360036621652543
-0.31695531649755804
-0.3108008443325483
-0.40311792680755576
-0.33541873299255964
-0.28618295567253704
-0.28618295567253704
-0.2984919000025288
-0.28618295567253704
-0.26771953917753555
-0.2431016505175243
-0.28618295567253704
-0.2800284835075273
-0.2738740113425453
-0.2554105948475438
-0.2800284835075273
-0.2246382340225228
-0.26156506701252585
-0.2369471783525424
-0.26156506701252585
-0.2738740113425453
-0.26771953917753555
-0.2369471783525424
-0.2369471783525424
-0.2369471783525424
-0.21232928969253104
-0.16309351237253633
-0.26771953917753555
-0.2431016505175243
-0.2369471783525424
-0.2369471783525424
-0.18771140103251985
-0.06462195773251911
-0.1261666793825056
-0.10770326288750408
-0.18155692886753785
-0.21232928969253104
-0.2369471783525424
-0.2184837618575408
-0.21232928969253104
-0.2184837618575408
-0.2061748175275213
-0.17540245670252808
-0.2369471783525424
-0.2000203453625393
-0.18771140103251985
-0.2061748175275213
-0.2431016505175243
-0.2061748175275213
-0.1938658731975296
-0.1692479845375183
-0.24925612268253405
-0.24925612268253405
-0.2184837618575408
-0.2246382340225228
-0.2984919000025288
-0.6616057577376044
-0.11385773505251384
-0.033849596907498114
-0.1938658731975296
-0.2246382340225228
-0.23079270618753256
-0.2000203453625393
-0.1938658731975296
-0.21232928969253104
-0.18771140103251985
-0.1261666793825056
-0.2246382340225228
-0.21232928969253104
-0.18155692886753785
-0.18155692886753785
-0.18771140103251985
-0.18155692886753785
-0.21232928969253104
-0.18155692886753785
-0.2554105948475438
-0.2738740113425453
-0.3108008443325483
-0.2554105948475438
-0.2554105948475438
-0.2431016505175243
-0.2369471783525424
-0.21232928969253104
-0.2554105948475438
-0.26156506701252585
-0.28618295567253704
-0.2800284835075273
-0.29233742783754685
-0.30464637216753854
-0.2984919000025288
-0.2738740113425453
-0.33541873299255964
-0.35388214948756086
-0.2984919000025288
-0.2800284835075273
-0.26156506701252585
-0.26156506701252585
-0.2431016505175243
-0.15078456804251686
-0.18771140103251985
-0.17540245670252808
-0.15693904020752658
-0.15693904020752658
-0.1384756237125251
-0.1384756237125251
-0.15078456804251686
-0.1384756237125251
-0.18771140103251985
-0.2246382340225228
-0.2061748175275213
-0.2061748175275213
-0.2184837618575408
-0.2061748175275213
-0.2000203453625393
0.04615854123751762
0.31695531649755804
-0.15693904020752658
-0.15078456804251686
-0.14463009587750708
-0.1384756237125251
-0.14463009587750708
-0.1261666793825056
-0.35388214948756086
-0.6062155082525723
-0.4400447597975588
-0.3415732051575415
-0.2800284835075273
-0.2738740113425453
-0.2738740113425453
-0.24925612268253405
-0.2246382340225228
-0.2984919000025288
-0.2738740113425453
-0.2800284835075273
-0.29233742783754685
-0.28618295567253704
-0.2184837618575408
-0.26156506701252585
-0.2431016505175243
-0.28618295567253704
-0.2738740113425453
-0.2554105948475438
-0.2738740113425453
-0.2738740113425453
-0.2431016505175243
-0.2184837618575408
-0.1938658731975296
-0.2431016505175243
-0.21232928969253104
-0.21232928969253104
-0.23079270618753256
-0.1692479845375183
-0.21232928969253104
-0.2000203453625393
-0.15693904020752658
-0.2246382340225228
-0.2246382340225228
-0.23079270618753256
-0.2431016505175243
-0.23079270618753256
-0.2246382340225228
-0.2061748175275213
-0.2000203453625393
-0.2431016505175243
-0.2184837618575408
-0.2246382340225228
-0.2061748175275213
-0.2061748175275213
-0.18771140103251985
-0.17540245670252808
-0.12001220721752358
-0.18155692886753785
-0.17540245670252808
-0.15078456804251686
-0.14463009587750708
-0.15078456804251686
-0.15078456804251686
-0.21232928969253104
-0.5446707866025856
-0.04615854123751762
0.01538618041249662
-0.0707764298975011
-0.07693090206251085
-0.08923984639250257
-0.13232115154751534
-0.15078456804251686
-0.12001220721752358
-0.1692479845375183
-0.15693904020752658
-0.16309351237253633
-0.15693904020752658
-0.14463009587750708
-0.13232115154751534
-0.13232115154751534
-0.12001220721752358
-0.18155692886753785
-0.1692479845375183
-0.18771140103251985
-0.18155692886753785
-0.15078456804251686
-0.1261666793825056
-0.13232115154751534
-0.13232115154751534
-0.15693904020752658
-0.15078456804251686
-0.12001220721752358
-0.1261666793825056
-0.11385773505251384
-0.11385773505251384
-0.10770326288750408
-0.08923984639250257
-0.08308537422752059
-0.12001220721752358
-0.1384756237125251
-0.15693904020752658
-0.15078456804251686
-0.1692479845375183
-0.1692479845375183
-0.1384756237125251
-0.16309351237253633
-0.15078456804251686
-0.15078456804251686
-0.1692479845375183
-0.15693904020752658
-0.1692479845375183
-0.17540245670252808
-0.1015487907225221
-0.23079270618753256
-0.21232928969253104
-0.17540245670252808
-0.15078456804251686
-0.1384756237125251
-0.14463009587750708
-0.14463009587750708
-0.14463009587750708
-0.15693904020752658
0.0707764298975011
0.427735815467567
-0.1015487907225221
-0.05231301340249961
-0.0707764298975011
-0.08308537422752059
-0.40927239897256545
-0.433890287632549
-0.2984919000025288
-0.24925612268253405
-0.2061748175275213
-0.18771140103251985
-0.2061748175275213
-0.18155692886753785
-0.18155692886753785
-0.1938658731975296
-0.15078456804251686
-0.14463009587750708
-0.18771140103251985
-0.18155692886753785
-0.1261666793825056
-0.06462195773251911
0.2800284835075273
-0.5262073701075842
0.15078456804251686
0.04615854123751762
-0.04615854123751762
-0.08308537422752059
-0.07693090206251085
-0.10770326288750408
-0.46466264845757
-0.45850817629256013
-0.3108008443325483
-0.2554105948475438
-0.23079270618753256
-0.15693904020752658
-0.21232928969253104
-0.17540245670252808
-0.17540245670252808
-0.2000203453625393
-0.21232928969253104
-0.2246382340225228
-0.21232928969253104
-0.2184837618575408
-0.21232928969253104
-0.17540245670252808
-0.2061748175275213
-0.2184837618575408
-0.1938658731975296
-0.2061748175275213
-0.18155692886753785
-0.2000203453625393
-0.16309351237253633
-0.12001220721752358
-0.13232115154751534
-0.13232115154751534
-0.1384756237125251
-0.14463009587750708
-0.12001220721752358
-0.11385773505251384
-0.15078456804251686
-0.1261666793825056
-0.1261666793825056
-0.14463009587750708
-0.12001220721752358
-0.08923984639250257
-0.10770326288750408
-0.07693090206251085
-0.06462195773251911
-0.06462195773251911
-0.0707764298975011
-0.09539431855751236
-0.11385773505251384
-0.12001220721752358
-0.12001220721752358
-0.10770326288750408
-0.11385773505251384
-0.10770326288750408
-0.13232115154751534
-0.14463009587750708
-0.12001220721752358
-0.15078456804251686
-0.15078456804251686
-0.17540245670252808
-0.24925612268253405
-0.6185244525825918
-0.2246382340225228
-0.02154065257750637
-0.14463009587750708
-0.1938658731975296
-0.21232928969253104
-0.21232928969253104
-0.2061748175275213
-0.1938658731975296
-0.2184837618575408
-0.3108008443325483
-0.33541873299255964
-0.26771953917753555
-0.2554105948475438
-0.23079270618753256
-0.2184837618575408
-0.1938658731975296
-0.21232928969253104
-0.2000203453625393
-0.21232928969253104
-0.2369471783525424
-0.2369471783525424
-0.2554105948475438
-0.24925612268253405
0.1015487907225221
0.2061748175275213
-0.009231708247514623
-0.0707764298975011
-0.13232115154751534
-0.14463009587750708
-0.16309351237253633
-0.17540245670252808
-0.11385773505251384
-0.1384756237125251
-0.15078456804251686
-0.1692479845375183
-0.18155692886753785
0.033849596907498114
0.4892805371175811
-0.2184837618575408
-0.42158134330255725
-0.8154675618626261
-0.6000610360875902
-0.40927239897256545
-0.30464637216753854
-0.28618295567253704
-0.26156506701252585
-0.23079270618753256
-0.2061748175275213
-0.2738740113425453
-0.28618295567253704
-0.2738740113425453
-0.29233742783754685
-0.28618295567253704
-0.33541873299255964
-0.2554105948475438
-0.2061748175275213
-0.2554105948475438
-0.2431016505175243
-0.2246382340225228
-0.2061748175275213
-0.2246382340225228
-0.2246382340225228
-0.2061748175275213
-0.14463009587750708
-0.2061748175275213
-0.2000203453625393
-0.2000203453625393
-0.18771140103251985
-0.1938658731975296
-0.15693904020752658
-0.17540245670252808
-0.16309351237253633
-0.2000203453625393
-0.18155692886753785
-0.2061748175275213
-0.2061748175275213
-0.2000203453625393
-0.21232928969253104
-0.2000203453625393
-0.13232115154751534
-0.18155692886753785
-0.17540245670252808
-0.2061748175275213
-0.18155692886753785
-0.13232115154751534
-0.15693904020752658
-0.15078456804251686
-0.10770326288750408
-0.18155692886753785
-0.1692479845375183
-0.17540245670252808
-0.17540245670252808
-0.16309351237253633
-0.21232928969253104
-0.2000203453625393
-0.15693904020752658
-0.2246382340225228
-0.2369471783525424
-0.2184837618575408
-0.2184837618575408
-0.5939065639225805
-0.04615854123751762
0.04615854123751762
-0.01538618041249662
-0.1261666793825056
-0.10770326288750408
-0.11385773505251384
-0.08923984639250257
-0.1015487907225221
-0.12001220721752358
-0.08923984639250257
-0.01538618041249662
-0.12001220721752358
-0.08923984639250257
0.16309351237253633
0.08923984639250257
0.009231708247514623
-0.01538618041249662
-0.04615854123751762
-0.04615854123751762
-0.09539431855751236
-0.09539431855751236
-0.10770326288750408
-0.1261666793825056
-0.14463009587750708
-0.1261666793825056
-0.1261666793825056
-0.14463009587750708
-0.2984919000025288
-0.5877520917575707
-0.5138984257775646
-0.4523537041275505
-0.4154268711375475
-0.396963454642546
-0.36619109381755277
-0.3108008443325483
-0.37850003814754446
-0.3292642608275498
-0.30464637216753854
-0.32310978866254003
-0.32310978866254003
-0.29233742783754685
-0.30464637216753854
-0.26156506701252585
-0.2184837618575408
-0.23079270618753256
-0.23079270618753256
-0.21232928969253104
-0.21232928969253104
-0.2000203453625393
-0.2000203453625393
-0.14463009587750708
-0.2061748175275213
-0.2184837618575408
-0.21232928969253104
-0.2000203453625393
-0.21232928969253104
-0.24925612268253405
-0.02154065257750637
0.42158134330255725
-0.23079270618753256
-0.1692479845375183
-0.16309351237253633
-0.1938658731975296
-0.2246382340225228
-0.2000203453625393
-0.18155692886753785
-0.390808982477564
-0.6369878690775933
-0.433890287632549
-0.360036621652543
-0.31695531649755804
-0.30464637216753854
-0.24925612268253405
-0.02154065257750637
-0.04000406907250786
-0.16309351237253633
-0.1938658731975296
-0.2061748175275213
-0.1938658731975296
-0.21232928969253104
-0.21232928969253104
-0.2000203453625393
-0.1938658731975296
-0.2738740113425453
-0.24925612268253405
-0.23079270618753256
-0.2431016505175243
-0.30464637216753854
-0.45850817629256013
-0.35388214948756086
-0.26156506701252585
-0.31695531649755804
-0.2554105948475438
-0.2061748175275213
-0.2000203453625393
-0.18155692886753785
-0.18155692886753785
-0.17540245670252808
-0.1261666793825056
-0.1692479845375183
-0.16309351237253633
-0.1938658731975296
-0.18771140103251985
-0.18155692886753785
-0.2246382340225228
-0.1938658731975296
-0.15078456804251686
-0.2369471783525424
-0.2246382340225228
-0.1938658731975296
-0.1938658731975296
-0.18771140103251985
-0.16309351237253633
-0.1384756237125251
-0.10770326288750408
-0.14463009587750708
-0.1384756237125251
-0.08308537422752059
-0.05231301340249961
-0.1015487907225221
-0.18155692886753785
-0.538516314437576
0.01538618041249662
-0.003077236082504875
-0.11385773505251384
-0.16309351237253633
-0.1938658731975296
-0.2061748175275213
-0.2246382340225228
-0.2246382340225228
-0.2246382340225228
-0.31695531649755804
-0.24925612268253405
-0.13232115154751534
-0.15693904020752658
-0.1692479845375183
-0.2061748175275213
-0.2000203453625393
-0.17540245670252808
-0.2246382340225228
-0.21232928969253104
-0.2184837618575408
-0.2184837618575408
-0.21232928969253104
-0.2184837618575408
-0.2369471783525424
-0.2369471783525424
-0.24925612268253405
-0.18155692886753785
-0.1938658731975296
-0.2000203453625393
-0.2061748175275213
-0.2246382340225228
-0.18155692886753785
0.28618295567253704
-0.2369471783525424
-0.1938658731975296
-0.21232928969253104
-0.21232928969253104
-0.18771140103251985
-0.18155692886753785
-0.2246382340225228
-0.49543500928256323
-0.47697159278756174
-0.3415732051575415
-0.29233742783754685
-0.2554105948475438
-0.2431016505175243
-0.2738740113425453
-0.2369471783525424
-0.2061748175275213
-0.26771953917753555
-0.2369471783525424
-0.2369471783525424
-0.2369471783525424
-0.2738740113425453
-0.2738740113425453
-0.1938658731975296
-0.04000406907250786
0.033849596907498114
0.360036621652543
-0.1384756237125251
-0.08308537422752059
-0.09539431855751236
-0.09539431855751236
-0.15078456804251686
-0.44619923196256844
-0.47697159278756174
-0.3292642608275498
-0.29233742783754685
-0.2800284835075273
-0.29233742783754685
-0.427735815467567
-0.6739147020675963
-0.5077439536125827
-0.42158134330255725
-0.3108008443325483
-0.2800284835075273
-0.2554105948475438
-0.2246382340225228
-0.2000203453625393
-0.15693904020752658
-0.13232115154751534
-0.16309351237253633
-0.14463009587750708
-0.1692479845375183
-0.1938658731975296
-0.15078456804251686
-0.2246382340225228
-0.2431016505175243
-0.18771140103251985
-0.24925612268253405
-0.2369471783525424
-0.2369471783525424
-0.23079270618753256
-0.23079270618753256
-0.2184837618575408
-0.18155692886753785
-0.2000203453625393
-0.2061748175275213
-0.2000203453625393
-0.2000203453625393
-0.17540245670252808
-0.1938658731975296
-0.2184837618575408
-0.21232928969253104
-0.23079270618753256
-0.24925612268253405
-0.23079270618753256
-0.2184837618575408
-0.2369471783525424
-0.2431016505175243
-0.2246382340225228
-0.2000203453625393
-0.2061748175275213
-0.2554105948475438
-0.2554105948475438
-0.18155692886753785
-0.2431016505175243
-0.2184837618575408
-0.23079270618753256
-0.18771140103251985
-0.26156506701252585
-0.6554512855725947
-0.10770326288750408
-0.04000406907250786
-0.1261666793825056
-0.16309351237253633
-0.1692479845375183
-0.15078456804251686
-0.18771140103251985
-0.2246382340225228
-0.14463009587750708
-0.18155692886753785
-0.2061748175275213
-0.21232928969253104
-0.2184837618575408
-0.2000203453625393
-0.2369471783525424
-0.23079270618753256
-0.2184837618575408
-0.2246382340225228
-0.1938658731975296
-0.18155692886753785
-0.1692479845375183
-0.15693904020752658
-0.2000203453625393
-0.1938658731975296
-0.21232928969253104
-0.2369471783525424
-0.2246382340225228
-0.1938658731975296
-0.21232928969253104
-0.21232928969253104
-0.2184837618575408
-0.2061748175275213
-0.1938658731975296
-0.2061748175275213
-0.2246382340225228
-0.2431016505175243
-0.2061748175275213
-0.17540245670252808
-0.1938658731975296
-0.18155692886753785
-0.18771140103251985
-0.18771140103251985
-0.1938658731975296
-0.2061748175275213
-0.2000203453625393
-0.18771140103251985
-0.2184837618575408
-0.2061748175275213
-0.2061748175275213
-0.1938658731975296
-0.2061748175275213
-0.2184837618575408
-0.23079270618753256
0.12001220721752358
-0.15078456804251686
-0.396963454642546
-0.26156506701252585
-0.033849596907498114
0.34772767732255133
-0.1692479845375183
-0.12001220721752358
-0.18155692886753785
-0.5323618422725662
-0.40927239897256545
-0.30464637216753854
-0.26156506701252585
-0.2369471783525424
-0.21232928969253104
-0.15693904020752658
-0.13232115154751534
-0.18771140103251985
-0.1938658731975296
-0.18155692886753785
-0.1692479845375183
-0.18155692886753785
-0.1938658731975296
-0.1938658731975296
-0.1692479845375183
-0.2184837618575408
-0.2000203453625393
-0.18771140103251985
-0.16309351237253633
-0.1692479845375183
-0.12001220721752358
-0.07693090206251085
-0.04615854123751762
-0.09539431855751236
-0.1015487907225221
-0.10770326288750408
-0.1261666793825056
-0.12001220721752358
-0.1384756237125251
-0.15693904020752658
-0.1015487907225221
-0.1384756237125251
-0.1692479845375183
-0.13232115154751534
-0.1261666793825056
-0.11385773505251384
-0.17540245670252808
-0.18155692886753785
-0.13232115154751534
-0.16309351237253633
-0.1692479845375183
-0.16309351237253633
-0.15693904020752658
-0.16309351237253633
-0.15693904020752658
-0.18155692886753785
-0.12001220721752358
-0.18155692886753785
-0.2061748175275213
-0.2000203453625393
-0.17540245670252808
-0.24925612268253405
-0.1938658731975296
-0.1692479845375183
-0.14463009587750708
-0.18771140103251985
-0.17540245670252808
-0.2554105948475438
-0.6000610360875902
-0.05231301340249961
-0.009231708247514623
-0.13232115154751534
-0.15693904020752658
-0.2184837618575408
-0.16309351237253633
-0.21232928969253104
-0.2184837618575408
-0.18155692886753785
-0.18771140103251985
-0.16309351237253633
-0.1261666793825056
-0.1938658731975296
-0.16309351237253633
-0.15078456804251686
-0.17540245670252808
-0.1938658731975296
-0.2000203453625393
-0.18155692886753785
-0.12001220721752358
-0.2000203453625393
-0.16309351237253633
-0.16309351237253633
-0.1692479845375183
-0.15078456804251686
-0.1692479845375183
-0.2000203453625393
-0.17540245670252808
-0.2554105948475438
-0.2431016505175243
-0.2061748175275213
-0.2000203453625393
-0.1938658731975296
-0.18155692886753785
-0.18155692886753785
-0.14463009587750708
-0.21232928969253104
-0.2184837618575408
-0.18771140103251985
-0.18155692886753785
-0.1938658731975296
-0.18771140103251985
-0.2000203453625393
-0.17540245670252808
-0.24925612268253405
-0.21232928969253104
-0.1938658731975296
-0.2000203453625393
-0.2000203453625393
-0.18771140103251985
-0.18771140103251985
-0.15693904020752658
-0.2369471783525424
-0.1938658731975296
-0.18771140103251985
-0.14463009587750708
-0.11385773505251384
0.0707764298975011
0.427735815467567
-0.2554105948475438
-0.44619923196256844
-0.28618295567253704
-0.2184837618575408
-0.18155692886753785
-0.15078456804251686
-0.1692479845375183
-0.15078456804251686
-0.1261666793825056
-0.17540245670252808
-0.15078456804251686
-0.15078456804251686
-0.1692479845375183
-0.14463009587750708
-0.15078456804251686
-0.18155692886753785
-0.13232115154751534
-0.18155692886753785
-0.1384756237125251
-0.13232115154751534
-0.10770326288750408
-0.09539431855751236
-0.05846748556750937
-0.0707764298975011
-0.04000406907250786
-0.13232115154751534
-0.16309351237253633
-0.15693904020752658
-0.17540245670252808
-0.18771140103251985
-0.17540245670252808
-0.13232115154751534
-0.05231301340249961
-0.15078456804251686
-0.12001220721752358
-0.12001220721752358
-0.1261666793825056
-0.09539431855751236
-0.1384756237125251
-0.18771140103251985
-0.2246382340225228
-0.18771140103251985
-0.18155692886753785
-0.18155692886753785
-0.15693904020752658
-0.15693904020752658
-0.12001220721752358
-0.06462195773251911
0.427735815467567
-0.37850003814754446
0.05231301340249961
0.13232115154751534
-0.003077236082504875
-0.06462195773251911
-0.08308537422752059
-0.12001220721752358
-0.40311792680755576
-0.5446707866025856
-0.3292642608275498
-0.26771953917753555
-0.2246382340225228
-0.1692479845375183
-0.18155692886753785
-0.1692479845375183
-0.1384756237125251
-0.2061748175275213
-0.17540245670252808
-0.1692479845375183
-0.1692479845375183
-0.16309351237253633
-0.1261666793825056
-0.10770326288750408
-0.09539431855751236
-0.16309351237253633
-0.15693904020752658
-0.15693904020752658
-0.16309351237253633
-0.17540245670252808
-0.1692479845375183
-0.16309351237253633
-0.17540245670252808
-0.21232928969253104
-0.17540245670252808
-0.18155692886753785
-0.17540245670252808
-0.18771140103251985
-0.2000203453625393
-0.17540245670252808
-0.16309351237253633
-0.21232928969253104
-0.18771140103251985
-0.18155692886753785
-0.15693904020752658
-0.16309351237253633
-0.1692479845375183
-0.18771140103251985
-0.13232115154751534
0.02154065257750637
-0.01538618041249662
-0.10770326288750408
-0.1384756237125251
-0.2000203453625393
-0.2369471783525424
-0.2246382340225228
-0.2061748175275213
-0.29233742783754685
-0.24925612268253405
-0.2184837618575408
-0.2184837618575408
-0.21232928969253104
-0.2246382340225228
-0.5446707866025856
-0.47697159278756174
-0.033849596907498114
-0.16309351237253633
-0.2000203453625393
-0.2061748175275213
-0.18155692886753785
-0.18771140103251985
-0.18771140103251985
0.04000406907250786
0.31695531649755804
-0.18771140103251985
-0.14463009587750708
-0.13232115154751534
-0.17540245670252808
-0.1938658731975296
-0.34772767732255133
-0.6677602299025862
-0.6062155082525723
-0.40927239897256545
-0.35388214948756086
-0.31695531649755804
-0.2984919000025288
-0.26771953917753555
-0.2431016505175243
-0.2369471783525424
-0.2738740113425453
-0.2738740113425453
-0.26156506701252585
-0.2554105948475438
-0.2246382340225228
-0.2800284835075273
-0.31695531649755804
-0.26156506701252585
-0.2738740113425453
-0.26771953917753555
-0.26156506701252585
-0.2431016505175243
-0.23079270618753256
-0.2554105948475438
-0.2431016505175243
-0.2369471783525424
-0.28618295567253704
-0.2554105948475438
-0.2738740113425453
-0.18771140103251985
0.23079270618753256
0.09539431855751236
-0.04000406907250786
-0.12001220721752358
-0.17540245670252808
-0.1384756237125251
-0.16309351237253633
-0.18771140103251985
-0.18155692886753785
-0.17540245670252808
-0.17540245670252808
-0.18771140103251985
-0.2000203453625393
-0.1938658731975296
-0.29233742783754685
-0.6246789247476012
-0.5262073701075842
-0.37850003814754446
-0.31695531649755804
-0.2984919000025288
-0.2738740113425453
-0.2369471783525424
-0.2000203453625393
-0.2061748175275213
-0.18771140103251985
-0.2000203453625393
-0.2738740113425453
-0.6554512855725947
-0.15693904020752658
-0.0707764298975011
-0.16309351237253633
-0.2061748175275213
-0.2061748175275213
-0.2000203453625393
-0.21232928969253104
-0.2184837618575408
-0.2369471783525424
-0.2554105948475438
-0.24925612268253405
-0.21232928969253104
-0.21232928969253104
-0.23079270618753256
-0.1938658731975296
-0.2554105948475438
-0.24925612268253405
-0.2000203453625393
-0.2246382340225228
-0.2246382340225228
-0.2184837618575408
-0.2000203453625393
-0.15078456804251686
-0.18771140103251985
-0.1938658731975296
-0.21232928969253104
-0.2184837618575408
-0.2431016505175243
-0.2431016505175243
-0.26156506701252585
-0.2369471783525424
-0.2184837618575408
-0.2246382340225228
-0.2369471783525424
-0.23079270618753256
-0.18771140103251985
-0.17540245670252808
-0.2000203453625393
-0.17540245670252808
-0.18155692886753785
-0.14463009587750708
-0.13232115154751534
-0.13232115154751534
-0.1261666793825056
-0.13232115154751534
-0.14463009587750708
-0.1261666793825056
-0.14463009587750708
-0.1692479845375183
-0.1692479845375183
-0.15693904020752658
-0.1384756237125251
-0.15078456804251686
-0.1384756237125251
-0.1384756237125251
-0.1384756237125251
-0.1261666793825056
0.05846748556750937
0.5077439536125827
-0.1384756237125251
-0.08308537422752059
-0.02154065257750637
0.2800284835075273
-0.35388214948756086
-0.5077439536125827
-0.28618295567253704
-0.18771140103251985
-0.16309351237253633
-0.15078456804251686
-0.12001220721752358
-0.09539431855751236
-0.13232115154751534
-0.1384756237125251
-0.1384756237125251
-0.15078456804251686
-0.18771140103251985
-0.15693904020752658
-0.10770326288750408
-0.11385773505251384
-0.18771140103251985
-0.1692479845375183
-0.14463009587750708
-0.13232115154751534
-0.14463009587750708
-0.11385773505251384
-0.08923984639250257
-0.02769512474251612
-0.08308537422752059
-0.1015487907225221
-0.07693090206251085
-0.05231301340249961
-0.1261666793825056
-0.26156506701252585
-0.17540245670252808
-0.1015487907225221
-0.15078456804251686
-0.12001220721752358
-0.10770326288750408
-0.08923984639250257
-0.05846748556750937
-0.08923984639250257
-0.06462195773251911
0.003077236082504875
-0.06462195773251911
-0.0707764298975011
-0.0707764298975011
-0.04000406907250786
-0.02154065257750637
-0.08308537422752059
-0.08308537422752059
-0.04000406907250786
-0.16309351237253633
-0.1261666793825056
-0.13232115154751534
-0.1384756237125251
-0.13232115154751534
-0.1384756237125251
-0.1384756237125251
-0.08308537422752059
-0.15693904020752658
-0.28618295567253704
-0.4892805371175811
0.33541873299255964
0.21232928969253104
0.02769512474251612
-0.033849596907498114
-0.05231301340249961
-0.15078456804251686
-0.14463009587750708
-0.15078456804251686
-0.1384756237125251
-0.12001220721752358
-0.12001220721752358
-0.1384756237125251
-0.10770326288750408
-0.1938658731975296
-0.36619109381755277
-0.6000610360875902
-0.42158134330255725
-0.3292642608275498
-0.2800284835075273
-0.2431016505175243
-0.18771140103251985
-0.23079270618753256
-0.2000203453625393
-0.18771140103251985
-0.18771140103251985
-0.17540245670252808
-0.18771140103251985
-0.18155692886753785
-0.12001220721752358
-0.2369471783525424
-0.2184837618575408
-0.2000203453625393
-0.2184837618575408
-0.23079270618753256
-0.24925612268253405
-0.2369471783525424
-0.2061748175275213
-0.2554105948475438
-0.2554105948475438
-0.26771953917753555
-0.2738740113425453
-0.2554105948475438
-0.24925612268253405
-0.24925612268253405
-0.033849596907498114
0.10770326288750408
-0.05846748556750937
-0.12001220721752358
-0.15693904020752658
-0.15693904020752658
-0.15078456804251686
-0.1692479845375183
-0.12001220721752358
-0.17540245670252808
-0.1692479845375183
-0.1384756237125251
-0.15693904020752658
0.04000406907250786
0.40927239897256545
-0.23079270618753256
-0.15693904020752658
-0.4154268711375475
-0.30464637216753854
-0.2000203453625393
-0.17540245670252808
-0.15693904020752658
-0.15078456804251686
-0.12001220721752358
-0.3108008443325483
-0.5508252587675677
-0.33541873299255964
-0.2431016505175243
-0.2369471783525424
-0.2369471783525424
-0.05231301340249961
0.1384756237125251
0.04000406907250786
-0.08308537422752059
-0.08923984639250257
-0.10770326288750408
-0.11385773505251384
-0.12001220721752358
-0.12001220721752358
-0.10770326288750408
-0.08308537422752059
-0.16309351237253633
-0.13232115154751534
-0.12001220721752358
-0.13232115154751534
-0.26156506701252585
-0.40311792680755576
-0.2800284835075273
-0.1938658731975296
-0.2431016505175243
-0.2246382340225228
-0.17540245670252808
-0.15078456804251686
-0.16309351237253633
-0.13232115154751534
-0.14463009587750708
-0.12001220721752358
-0.1692479845375183
-0.13232115154751534
-0.1015487907225221
-0.02769512474251612
-0.06462195773251911
-0.11385773505251384
-0.1261666793825056
-0.1261666793825056
-0.17540245670252808
-0.12001220721752358
-0.11385773505251384
-0.08923984639250257
-0.05846748556750937
-0.02154065257750637
-0.01538618041249662
0.003077236082504875
-0.07693090206251085
-0.1015487907225221
-0.06462195773251911
-0.18771140103251985
-0.2246382340225228
-0.24925612268253405
-0.5077439536125827
-0.6616057577376044
-0.1261666793825056
-0.26771953917753555
-0.31695531649755804
-0.31695531649755804
-0.3292642608275498
-0.33541873299255964
-0.30464637216753854
-0.26771953917753555
-0.31695531649755804
-0.2738740113425453
-0.2984919000025288
-0.2800284835075273
-0.2800284835075273
-0.2431016505175243
-0.21232928969253104
-0.18155692886753785
-0.2000203453625393
-0.17540245670252808
-0.18771140103251985
-0.2000203453625393
-0.2000203453625393
-0.1938658731975296
-0.2061748175275213
-0.18771140103251985
-0.21232928969253104
-0.2000203453625393
-0.2184837618575408
-0.2061748175275213
-0.2184837618575408
-0.2369471783525424
-0.26156506701252585
-0.2738740113425453
-0.32310978866254003
-0.3108008443325483
-0.32310978866254003
-0.360036621652543
-0.31695531649755804
-0.3108008443325483
-0.29233742783754685
-0.2369471783525424
-0.26771953917753555
-0.26156506701252585
-0.26771953917753555
-0.2554105948475438
-0.2554105948475438
-0.23079270618753256
-0.2246382340225228
-0.2000203453625393
-0.23079270618753256
-0.2246382340225228
-0.2554105948475438
-0.2369471783525424
-0.2369471783525424
-0.24925612268253405
-0.0707764298975011
0.26156506701252585
-0.2000203453625393
-0.1384756237125251
-0.16309351237253633
-0.1938658731975296
-0.1938658731975296
-0.18771140103251985
-0.2061748175275213
-0.5015894814475731
-0.5077439536125827
-0.34772767732255133
-0.2738740113425453
-0.2184837618575408
-0.1692479845375183
-0.13232115154751534
-0.07693090206251085
-0.06462195773251911
-0.11385773505251384
-0.1384756237125251
-0.1384756237125251
-0.10770326288750408
-0.1015487907225221
-0.11385773505251384
-0.10770326288750408
-0.1015487907225221
-0.14463009587750708
-0.1692479845375183
-0.1938658731975296
-0.18155692886753785
-0.18771140103251985
-0.2000203453625393
-0.15078456804251686
-0.1384756237125251
-0.18155692886753785
-0.1938658731975296
-0.2000203453625393
-0.2000203453625393
-0.2184837618575408
-0.2184837618575408
-0.18771140103251985
-0.1938658731975296
-0.21232928969253104
-0.23079270618753256
-0.2184837618575408
-0.1692479845375183
-0.1384756237125251
-0.1384756237125251
-0.1261666793825056
-0.16309351237253633
-0.15078456804251686
-0.11385773505251384
-0.1261666793825056
-0.10770326288750408
-0.08923984639250257
-0.09539431855751236
-0.05846748556750937
-0.0707764298975011
-0.15078456804251686
-0.12001220721752358
-0.1015487907225221
-0.11385773505251384
-0.12001220721752358
-0.24925612268253405
-0.7231504793875909
-0.02154065257750637
-0.04615854123751762
-0.1261666793825056
0.01538618041249662
0.02769512474251612
-0.14463009587750708
-0.1261666793825056
-0.08923984639250257
-0.11385773505251384
-0.14463009587750708
-0.10770326288750408
-0.08308537422752059
-0.08308537422752059
-0.08923984639250257
-0.07693090206251085
-0.05846748556750937
-0.09539431855751236
-0.13232115154751534
-0.11385773505251384
-0.11385773505251384
-0.12001220721752358
-0.14463009587750708
-0.14463009587750708
-0.1384756237125251
-0.17540245670252808
-0.16309351237253633
-0.16309351237253633
-0.1692479845375183
-0.17540245670252808
-0.14463009587750708
-0.15078456804251686
-0.14463009587750708
-0.1384756237125251
-0.10770326288750408
-0.09539431855751236
-0.05231301340249961
-0.04000406907250786
-0.05231301340249961
-0.04615854123751762
-0.02154065257750637
0.02154065257750637
-0.12001220721752358
0.02769512474251612
0.05846748556750937
0.02154065257750637
0.01538618041249662
0.1261666793825056
0.02154065257750637
-0.0707764298975011
-0.04000406907250786
-0.009231708247514623
-0.01538618041249662
-0.02769512474251612
-0.04000406907250786
-0.05231301340249961
-0.08308537422752059
-0.12001220721752358
0.0707764298975011
0.5323618422725662
-0.1384756237125251
-0.10770326288750408
-0.1261666793825056
-0.15078456804251686
0.033849596907498114
-0.5939065639225805
-0.7046870628925892
-0.46466264845757
-0.396963454642546
-0.390808982477564
-0.33541873299255964
-0.31695531649755804
-0.3415732051575415
-0.33541873299255964
-0.35388214948756086
-0.3415732051575415
-0.31695531649755804
-0.3108008443325483
-0.28618295567253704
-0.26156506701252585
-0.2184837618575408
-0.26156506701252585
-0.23079270618753256
-0.1938658731975296
-0.1938658731975296
-0.16309351237253633
-0.13232115154751534
-0.21232928969253104
-0.1938658731975296
-0.2369471783525424
-0.2061748175275213
-0.1938658731975296
-0.16309351237253633
-0.16309351237253633
-0.16309351237253633
-0.16309351237253633
-0.15078456804251686
-0.2246382340225228
-0.21232928969253104
-0.2246382340225228
-0.18155692886753785
-0.09539431855751236
-0.14463009587750708
-0.1384756237125251
-0.10770326288750408
-0.2061748175275213
-0.18155692886753785
-0.16309351237253633
-0.17540245670252808
-0.14463009587750708
-0.15078456804251686
-0.13232115154751534
-0.07693090206251085
-0.1692479845375183
-0.1938658731975296
-0.1938658731975296
-0.1938658731975296
-0.1692479845375183
-0.1384756237125251
-0.14463009587750708
-0.11385773505251384
-0.24925612268253405
-0.5939065639225805
-0.02769512474251612
0.04000406907250786
-0.09539431855751236
-0.1384756237125251
-0.1692479845375183
-0.11385773505251384
-0.2369471783525424
-0.2184837618575408
-0.18155692886753785
-0.18155692886753785
-0.18155692886753785
-0.18155692886753785
-0.1692479845375183
0.18771140103251985
0.34772767732255133
-0.1692479845375183
-0.12001220721752358
-0.08308537422752059
-0.08308537422752059
-0.12001220721752358
-0.10770326288750408
-0.24925612268253405
-0.5508252587675677
-0.24925612268253405
-0.18771140103251985
-0.1938658731975296
-0.1692479845375183
-0.17540245670252808
-0.1692479845375183
-0.1261666793825056
-0.18771140103251985
-0.17540245670252808
-0.15078456804251686
-0.16309351237253633
-0.1692479845375183
-0.14463009587750708
-0.15693904020752658
-0.1384756237125251
-0.30464637216753854
-0.30464637216753854
-0.2431016505175243
-0.21232928969253104
-0.18771140103251985
-0.2061748175275213
-0.18771140103251985
-0.1692479845375183
-0.23079270618753256
-0.2000203453625393
-0.2000203453625393
-0.2061748175275213
-0.2000203453625393
-0.2000203453625393
-0.18771140103251985
-0.12001220721752358
-0.18771140103251985
-0.16309351237253633
-0.15693904020752658
0.04615854123751762
0.40311792680755576
-0.04615854123751762
0.009231708247514623
-0.18155692886753785
-0.46466264845757
-0.2738740113425453
-0.18771140103251985
-0.18771140103251985
-0.2061748175275213
-0.15693904020752658
-0.13232115154751534
-0.14463009587750708
-0.21232928969253104
-0.21232928969253104
-0.2061748175275213
-0.2061748175275213
-0.2000203453625393
-0.21232928969253104
-0.18771140103251985
-0.13232115154751534
-0.2061748175275213
-0.1938658731975296
-0.15693904020752658
-0.1692479845375183
-0.16309351237253633
-0.21232928969253104
-0.2431016505175243
-0.18771140103251985
-0.2738740113425453
-0.2554105948475438
-0.2246382340225228
-0.23079270618753256
-0.2554105948475438
-0.24925612268253405
-0.2369471783525424
-0.2000203453625393
-0.2800284835075273
-0.2738740113425453
-0.26771953917753555
-0.1938658731975296
-0.04000406907250786
-0.11385773505251384
-0.12001220721752358
-0.07693090206251085
-0.1692479845375183
-0.18771140103251985
-0.1938658731975296
-0.18155692886753785
-0.16309351237253633
-0.1692479845375183
-0.15693904020752658
-0.12001220721752358
-0.1938658731975296
-0.21232928969253104
-0.2061748175275213
-0.26771953917753555
-0.2369471783525424
-0.1938658731975296
-0.17540245670252808
-0.12001220721752358
-0.1692479845375183
-0.15693904020752658
-0.23079270618753256
-0.5877520917575707
-0.009231708247514623
0.04615854123751762
-0.05231301340249961
-0.06462195773251911
-0.15078456804251686
-0.1261666793825056
-0.11385773505251384
-0.1261666793825056
-0.15693904020752658
-0.1692479845375183
-0.15693904020752658
-0.14463009587750708
-0.2061748175275213
-0.2000203453625393
-0.1692479845375183
-0.2061748175275213
-0.1261666793825056
-0.12001220721752358
-0.10770326288750408
-0.1384756237125251
-0.05231301340249961
0.15693904020752658
-0.003077236082504875
-0.07693090206251085
-0.10770326288750408
-0.10770326288750408
-0.10770326288750408
-0.11385773505251384
-0.15693904020752658
-0.1692479845375183
-0.15693904020752658
-0.15078456804251686
-0.15693904020752658
-0.16309351237253633
-0.15693904020752658
-0.26156506701252585
-0.575443147427579
-0.390808982477564
-0.32310978866254003
-0.29233742783754685
-0.2738740113425453
-0.2431016505175243
-0.2184837618575408
-0.18155692886753785
-0.2246382340225228
-0.2061748175275213
-0.2000203453625393
-0.1938658731975296
-0.2184837618575408
-0.2184837618575408
-0.18771140103251985
-0.2246382340225228
-0.29233742783754685
-0.2554105948475438
-0.2246382340225228
-0.2246382340225228
-0.21232928969253104
0.003077236082504875
0.4708171206225797
-0.47697159278756174
-0.4892805371175811
-0.31695531649755804
-0.26156506701252585
-0.2554105948475438
-0.2184837618575408
-0.13232115154751534
-0.05846748556750937
-0.09539431855751236
-0.1692479845375183
-0.16309351237253633
-0.1692479845375183
-0.1938658731975296
-0.17540245670252808
-0.15693904020752658
-0.15078456804251686
-0.16309351237253633
-0.1938658731975296
-0.1938658731975296
-0.1692479845375183
-0.17540245670252808
-0.1692479845375183
-0.15078456804251686
-0.14463009587750708
-0.1261666793825056
-0.1692479845375183
-0.2000203453625393
-0.21232928969253104
-0.2246382340225228
-0.2246382340225228
-0.2184837618575408
-0.18771140103251985
-0.17540245670252808
-0.2184837618575408
-0.2000203453625393
-0.2000203453625393
-0.18771140103251985
-0.1938658731975296
-0.18771140103251985
-0.17540245670252808
-0.18155692886753785
-0.2061748175275213
-0.18155692886753785
-0.18771140103251985
-0.18155692886753785
-0.15693904020752658
-0.15693904020752658
-0.15693904020752658
-0.16309351237253633
-0.2184837618575408
-0.21232928969253104
-0.1938658731975296
-0.18155692886753785
-0.2061748175275213
-0.21232928969253104
-0.1938658731975296
-0.18771140103251985
-0.2000203453625393
-0.1938658731975296
-0.18155692886753785
-0.16309351237253633
-0.2246382340225228
-0.5692886752625692
-0.003077236082504875
0.05846748556750937
-0.05231301340249961
-0.07693090206251085
-0.09539431855751236
-0.12001220721752358
-0.13232115154751534
-0.1261666793825056
-0.09539431855751236
-0.13232115154751534
-0.1938658731975296
-0.17540245670252808
-0.18155692886753785
-0.18155692886753785
-0.18771140103251985
-0.2061748175275213
-0.15693904020752658
-0.16309351237253633
-0.003077236082504875
0.0707764298975011
-0.05231301340249961
-0.09539431855751236
-0.1015487907225221
-0.11385773505251384
-0.08308537422752059
-0.12001220721752358
-0.18155692886753785
-0.18155692886753785
-0.18771140103251985
-0.1938658731975296
-0.17540245670252808
-0.17540245670252808
-0.1692479845375183
-0.28618295567253704
-0.2984919000025288
-0.23079270618753256
-0.1938658731975296
-0.16309351237253633
-0.16309351237253633
-0.17540245670252808
-0.1692479845375183
-0.18771140103251985
-0.18155692886753785
-0.1938658731975296
-0.2246382340225228
-0.2061748175275213
-0.2000203453625393
-0.23079270618753256
-0.2246382340225228
-0.2800284835075273
-0.26156506701252585
-0.2184837618575408
-0.18771140103251985
-0.1938658731975296
-0.1692479845375183
-0.17540245670252808
-0.1692479845375183
0.02154065257750637
0.360036621652543
-0.15078456804251686
-0.08308537422752059
-0.10770326288750408
-0.15693904020752658
-0.1692479845375183
-0.2246382340225228
-0.5446707866025856
-0.4523537041275505
-0.33541873299255964
-0.2738740113425453
-0.2431016505175243
0.7662317845426038
4.40967930622313
2.7418173495078744
1.3324432237226955
0.5877520917575707
0.40311792680755576
0.2184837618575408
0.1015487907225221
0.07693090206251085
-0.0707764298975011
-0.05846748556750937
-0.11385773505251384
-0.1261666793825056
-0.15078456804251686
-0.15693904020752658
-0.17540245670252808
-0.18771140103251985
-0.1938658731975296
0.08308537422752059
0.07693090206251085
-0.44619923196256844
0.14463009587750708
-0.02154065257750637
-0.033849596907498114
-0.04615854123751762
-0.09539431855751236
-0.23079270618753256
-0.6246789247476012
-0.45850817629256013
-0.33541873299255964
-0.2554105948475438
-0.2061748175275213
-0.1938658731975296
-0.18771140103251985
-0.1384756237125251
-0.18771140103251985
-0.15078456804251686
-0.1384756237125251
-0.2246382340225228
-0.29233742783754685
-0.2184837618575408
-0.2061748175275213
-0.15078456804251686
-0.21232928969253104
-0.2061748175275213
-0.1938658731975296
-0.18771140103251985
-0.2000203453625393
-0.2246382340225228
-0.2061748175275213
-0.15693904020752658
-0.2431016505175243
-0.2246382340225228
-0.1261666793825056
-0.08923984639250257
-0.10770326288750408
-0.1261666793825056
-0.12001220721752358
-0.10770326288750408
-0.1938658731975296
-0.2061748175275213
-0.2061748175275213
-0.2000203453625393
-0.2246382340225228
-0.2369471783525424
-0.21232928969253104
-0.16309351237253633
-0.2738740113425453
-0.46466264845757
-0.396963454642546
-0.2984919000025288
-0.2800284835075273
-0.2800284835075273
-0.26771953917753555
-0.2246382340225228
-0.26156506701252585
-0.23079270618753256
-0.2061748175275213
-0.16309351237253633
-0.16309351237253633
-0.15693904020752658
-0.2184837618575408
-0.5138984257775646
0.02154065257750637
0.003077236082504875
-0.05846748556750937
-0.06462195773251911
-0.0707764298975011
-0.08308537422752059
-0.07693090206251085
-0.033849596907498114
-0.08308537422752059
-0.08923984639250257
-0.09539431855751236
-0.08308537422752059
-0.08923984639250257
-0.10770326288750408
-0.08308537422752059
0.1384756237125251
0.05846748556750937
-0.009231708247514623
-0.02769512474251612
-0.02154065257750637
-0.02769512474251612
-0.033849596907498114
-0.02154065257750637
-0.003077236082504875
-0.08923984639250257
-0.0707764298975011
0.13232115154751534
0.5446707866025856
-0.08923984639250257
0.009231708247514623
-0.1261666793825056
-0.360036621652543
-0.5446707866025856
-0.3108008443325483
-0.2184837618575408
-0.21232928969253104
-0.18771140103251985
-0.18155692886753785
-0.15693904020752658
-0.14463009587750708
-0.2246382340225228
-0.2000203453625393
-0.1938658731975296
-0.21232928969253104
-0.17540245670252808
-0.009231708247514623
-0.08308537422752059
-0.12001220721752358
-0.23079270618753256
-0.2246382340225228
-0.2554105948475438
-0.24925612268253405
-0.2369471783525424
-0.21232928969253104
-0.2000203453625393
-0.18771140103251985
-0.2554105948475438
-0.21232928969253104
-0.2061748175275213
-0.21232928969253104
-0.32310978866254003
-0.35388214948756086
-0.2800284835075273
-0.23079270618753256
-0.2800284835075273
-0.26771953917753555
-0.24925612268253405
-0.23079270618753256
-0.2369471783525424
-0.23079270618753256
-0.1938658731975296
-0.15693904020752658
-0.2369471783525424
-0.24925612268253405
-0.24925612268253405
-0.17540245670252808
-0.23079270618753256
-0.2554105948475438
-0.2246382340225228
-0.21232928969253104
-0.2738740113425453
-0.24925612268253405
-0.24925612268253405
-0.2431016505175243
-0.2431016505175243
-0.24925612268253405
-0.2061748175275213
-0.1692479845375183
-0.26156506701252585
-0.32310978866254003
-0.6985325907276074
-0.11385773505251384
-0.1015487907225221
-0.1938658731975296
-0.18771140103251985
-0.1692479845375183
-0.21232928969253104
-0.2431016505175243
-0.2431016505175243
-0.24925612268253405
-0.24925612268253405
-0.2431016505175243
-0.26771953917753555
-0.26771953917753555
-0.3292642608275498
-0.2369471783525424
-0.2369471783525424
-0.23079270618753256
-0.2369471783525424
-0.2431016505175243
-0.2554105948475438
-0.2369471783525424
-0.2800284835075273
-0.28618295567253704
-0.2554105948475438
-0.21232928969253104
-0.2061748175275213
-0.21232928969253104
-0.2000203453625393
-0.16309351237253633
-0.2554105948475438
-0.2554105948475438
-0.23079270618753256
-0.2000203453625393
-0.2061748175275213
-0.2000203453625393
-0.1692479845375183
-0.1384756237125251
-0.1938658731975296
-0.16309351237253633
-0.15693904020752658
-0.15078456804251686
-0.1261666793825056
-0.13232115154751534
-0.04615854123751762
0.26156506701252585
0.10770326288750408
-0.003077236082504875
-0.033849596907498114
-0.0707764298975011
-0.12001220721752358
-0.10770326288750408
-0.11385773505251384
-0.09539431855751236
-0.17540245670252808
-0.1692479845375183
-0.15693904020752658
-0.15078456804251686
0.033849596907498114
0.433890287632549
-0.5138984257775646
-0.6492968134075847
-0.6000610360875902
-0.3723455659825625
-0.28618295567253704
-0.24925612268253405
-0.23079270618753256
-0.2000203453625393
-0.1938658731975296
-0.16309351237253633
-0.2061748175275213
-0.18771140103251985
-0.18155692886753785
-0.18155692886753785
-0.17540245670252808
-0.1015487907225221
-0.07693090206251085
-0.0707764298975011
-0.12001220721752358
-0.08308537422752059
-0.04615854123751762
-0.05846748556750937
-0.06462195773251911
-0.05846748556750937
-0.04615854123751762
-0.02769512474251612
-0.07693090206251085
-0.07693090206251085
-0.0707764298975011
-0.0707764298975011
-0.08308537422752059
-0.08923984639250257
-0.07693090206251085
-0.0707764298975011
-0.08308537422752059
-0.1015487907225221
-0.06462195773251911
-0.06462195773251911
-0.05231301340249961
-0.06462195773251911
-0.06462195773251911
-0.05846748556750937
-0.1015487907225221
-0.10770326288750408
-0.05231301340249961
-0.0707764298975011
-0.1261666793825056
-0.1261666793825056
-0.1015487907225221
-0.12001220721752358
-0.15693904020752658
-0.10770326288750408
-0.1261666793825056
-0.13232115154751534
-0.15693904020752658
-0.15078456804251686
-0.1384756237125251
-0.1384756237125251
-0.18155692886753785
-0.1692479845375183
-0.15693904020752658
-0.26156506701252585
-0.6123699804175823
-0.04615854123751762
0.003077236082504875
-0.11385773505251384
-0.15078456804251686
-0.16309351237253633
-0.18771140103251985
-0.2000203453625393
-0.1938658731975296
-0.2061748175275213
-0.17540245670252808
-0.24925612268253405
-0.2738740113425453
-0.35388214948756086
-0.3415732051575415
-0.33541873299255964
-0.3108008443325483
-0.28618295567253704
-0.2738740113425453
-0.31695531649755804
-0.32310978866254003
-0.28618295567253704
-0.26771953917753555
-0.26156506701252585
-0.2369471783525424
-0.2061748175275213
-0.15693904020752658
-0.11385773505251384
-0.04615854123751762
-0.10770326288750408
-0.14463009587750708
-0.1692479845375183
-0.1938658731975296
-0.18155692886753785
-0.1692479845375183
-0.1692479845375183
-0.1692479845375183
-0.16309351237253633
-0.1384756237125251
-0.1261666793825056
-0.11385773505251384
-0.1692479845375183
0.08308537422752059
0.5200528979425745
-0.08308537422752059
-0.033849596907498114
-0.05846748556750937
-0.10770326288750408
-0.13232115154751534
-0.1384756237125251
-0.18771140103251985
-0.5200528979425745
-0.42158134330255725
-0.28618295567253704
-0.2184837618575408
-0.1938658731975296
-0.18771140103251985
-0.09539431855751236
0.2984919000025288
0.4831260649525715
-0.02769512474251612
-0.02769512474251612
-0.06462195773251911
-0.1015487907225221
-0.13232115154751534
-0.1692479845375183
-0.2184837618575408
-0.5446707866025856
-0.44619923196256844
-0.32310978866254003
-0.2369471783525424
-0.2184837618575408
-0.2431016505175243
-0.28618295567253704
0.08923984639250257
-0.1015487907225221
-0.31695531649755804
-0.1692479845375183
-0.1384756237125251
-0.1384756237125251
-0.17540245670252808
-0.18771140103251985
-0.15078456804251686
-0.2246382340225228
-0.2000203453625393
-0.21232928969253104
-0.2369471783525424
-0.2984919000025288
-0.3415732051575415
-0.28618295567253704
-0.2431016505175243
-0.26156506701252585
-0.23079270618753256
-0.21232928969253104
-0.2246382340225228
-0.2246382340225228
-0.18771140103251985
-0.18155692886753785
-0.16309351237253633
-0.2184837618575408
-0.2000203453625393
-0.1938658731975296
-0.2000203453625393
-0.28618295567253704
-0.2554105948475438
-0.2061748175275213
-0.16309351237253633
-0.1938658731975296
-0.17540245670252808
-0.17540245670252808
-0.17540245670252808
-0.15693904020752658
-0.13232115154751534
-0.15078456804251686
-0.11385773505251384
-0.14463009587750708
-0.1015487907225221
-0.06462195773251911
-0.07693090206251085
-0.08308537422752059
-0.08923984639250257
-0.1938658731975296
-0.5138984257775646
-0.02769512474251612
0.01538618041249662
-0.09539431855751236
-0.1384756237125251
-0.16309351237253633
-0.17540245670252808
-0.18155692886753785
-0.15078456804251686
-0.2369471783525424
-0.18155692886753785
-0.1938658731975296
-0.17540245670252808
-0.18771140103251985
-0.2061748175275213
-0.1938658731975296
-0.13232115154751534
-0.1692479845375183
-0.18155692886753785
-0.18771140103251985
-0.1692479845375183
-0.1692479845375183
-0.15693904020752658
-0.18155692886753785
-0.1692479845375183
-0.26156506701252585
-0.29233742783754685
-0.2554105948475438
-0.2369471783525424
-0.23079270618753256
-0.2184837618575408
-0.2246382340225228
-0.2061748175275213
-0.24925612268253405
-0.24925612268253405
-0.2554105948475438
-0.2431016505175243
-0.2431016505175243
-0.26156506701252585
-0.2431016505175243
-0.14463009587750708
-0.26156506701252585
-0.2431016505175243
-0.23079270618753256
-0.2184837618575408
-0.2000203453625393
-0.2061748175275213
-0.2000203453625393
-0.1384756237125251
-0.2061748175275213
-0.17540245670252808
-0.18155692886753785
-0.14463009587750708
-0.13232115154751534
-0.1384756237125251
-0.07693090206251085
-0.07693090206251085
-0.13232115154751534
0.08308537422752059
0.5138984257775646
-0.13232115154751534
-0.05846748556750937
-0.05846748556750937
-0.05846748556750937
-0.23079270618753256
-0.5138984257775646
-0.3108008443325483
-0.2431016505175243
-0.18155692886753785
-0.15078456804251686
-0.12001220721752358
-0.11385773505251384
-0.08923984639250257
-0.15078456804251686
-0.15693904020752658
-0.16309351237253633
-0.1692479845375183
-0.17540245670252808
-0.18771140103251985
-0.18155692886753785
-0.16309351237253633
-0.23079270618753256
-0.2000203453625393
-0.1938658731975296
-0.2369471783525424
-0.15693904020752658
-0.15693904020752658
-0.15693904020752658
-0.13232115154751534
-0.18155692886753785
-0.17540245670252808
-0.18155692886753785
-0.17540245670252808
-0.1692479845375183
-0.17540245670252808
-0.15693904020752658
-0.12001220721752358
-0.2061748175275213
-0.18771140103251985
-0.18155692886753785
-0.15078456804251686
-0.16309351237253633
-0.17540245670252808
-0.1692479845375183
-0.1384756237125251
-0.2246382340225228
-0.2184837618575408
-0.1938658731975296
-0.23079270618753256
-0.2431016505175243
-0.2369471783525424
-0.21232928969253104
-0.15693904020752658
-0.2800284835075273
-0.2369471783525424
-0.24925612268253405
-0.2554105948475438
-0.21232928969253104
-0.1938658731975296
-0.1692479845375183
-0.1261666793825056
-0.2738740113425453
-0.6185244525825918
-0.05231301340249961
-0.003077236082504875
-0.11385773505251384
-0.1261666793825056
-0.14463009587750708
-0.1015487907225221
-0.18155692886753785
-0.13232115154751534
-0.1384756237125251
-0.1261666793825056
-0.13232115154751534
-0.11385773505251384
-0.1015487907225221
-0.1015487907225221
-0.1692479845375183
-0.13232115154751534
-0.12001220721752358
-0.12001220721752358
-0.10770326288750408
-0.10770326288750408
-0.09539431855751236
-0.08308537422752059
-0.1384756237125251
-0.10770326288750408
-0.08923984639250257
-0.1015487907225221
-0.1261666793825056
-0.15078456804251686
-0.16309351237253633
-0.16309351237253633
-0.2369471783525424
-0.2431016505175243
-0.2369471783525424
-0.2184837618575408
-0.23079270618753256
-0.23079270618753256
-0.2061748175275213
-0.15693904020752658
-0.2369471783525424
-0.21232928969253104
-0.2369471783525424
-0.2369471783525424
-0.2554105948475438
-0.2800284835075273
-0.2800284835075273
-0.26771953917753555
-0.2984919000025288
-0.26156506701252585
-0.26156506701252585
-0.2369471783525424
-0.2184837618575408
-0.21232928969253104
-0.14463009587750708
-0.17540245670252808
-0.2000203453625393
-0.1692479845375183
-0.17540245670252808
0.04000406907250786
0.47697159278756174
-0.16309351237253633
-0.14463009587750708
-0.45850817629256013
-0.5262073701075842
-0.35388214948756086
-0.30464637216753854
-0.2984919000025288
-0.2984919000025288
-0.2738740113425453
-0.2738740113425453
-0.2431016505175243
-0.2984919000025288
-0.29233742783754685
-0.28618295567253704
-0.2984919000025288
-0.29233742783754685
-0.2800284835075273
-0.26156506701252585
-0.23079270618753256
-0.24925612268253405
-0.2061748175275213
-0.2000203453625393
-0.23079270618753256
-0.2369471783525424
-0.26156506701252585
-0.2554105948475438
-0.26771953917753555
-0.29233742783754685
-0.29233742783754685
-0.2800284835075273
-0.26156506701252585
-0.2984919000025288
-0.2984919000025288
-0.28618295567253704
-0.2800284835075273
-0.28618295567253704
-0.2738740113425453
-0.2800284835075273
-0.09539431855751236
-0.08308537422752059
-0.18771140103251985
-0.2000203453625393
-0.2246382340225228
-0.2800284835075273
-0.26156506701252585
-0.26771953917753555
-0.2369471783525424
-0.1938658731975296
-0.1938658731975296
-0.18771140103251985
-0.2000203453625393
-0.2431016505175243
-0.24925612268253405
-0.3723455659825625
-0.427735815467567
-0.360036621652543
-0.3415732051575415
-0.17540245670252808
0.17540245670252808
-0.5877520917575707
0.033849596907498114
-0.07693090206251085
-0.15693904020752658
-0.14463009587750708
-0.1692479845375183
-0.2184837618575408
-0.5446707866025856
-0.5138984257775646
-0.32310978866254003
-0.28618295567253704
-0.2554105948475438
-0.23079270618753256
-0.2061748175275213
-0.17540245670252808
-0.2184837618575408
-0.24925612268253405
-0.2184837618575408
-0.21232928969253104
-0.2184837618575408
-0.2061748175275213
-0.1938658731975296
-0.1692479845375183
-0.1692479845375183
-0.18155692886753785
-0.16309351237253633
-0.14463009587750708
-0.1261666793825056
-0.1384756237125251
-0.15693904020752658
-0.16309351237253633
-0.1938658731975296
-0.21232928969253104
-0.18771140103251985
-0.1938658731975296
-0.2000203453625393
-0.2061748175275213
-0.2184837618575408
-0.18771140103251985
-0.18155692886753785
-0.2431016505175243
-0.1938658731975296
-0.1938658731975296
-0.2246382340225228
-0.2061748175275213
-0.18771140103251985
-0.18771140103251985
-0.21232928969253104
-0.1938658731975296
-0.18771140103251985
-0.16309351237253633
-0.16309351237253633
-0.18771140103251985
-0.14463009587750708
-0.13232115154751534
-0.18771140103251985
-0.2000203453625393
-0.21232928969253104
-0.21232928969253104
-0.18155692886753785
-0.1938658731975296
-0.04000406907250786
-0.10770326288750408
-0.6985325907276074
-0.08308537422752059
-0.1261666793825056
-0.1384756237125251
-0.1692479845375183
-0.1692479845375183
-0.04000406907250786
-0.0707764298975011
-0.15693904020752658
-0.15693904020752658
-0.16309351237253633
-0.1938658731975296
-0.17540245670252808
-0.17540245670252808
-0.2061748175275213
-0.1938658731975296
-0.2184837618575408
-0.2000203453625393
-0.18155692886753785
-0.2000203453625393
-0.16309351237253633
-0.26156506701252585
-0.28618295567253704
0.05846748556750937
-0.18771140103251985
-0.427735815467567
-0.32310978866254003
-0.2800284835075273
-0.2369471783525424
-0.24925612268253405
-0.24925612268253405
-0.21232928969253104
-0.2431016505175243
-0.23079270618753256
-0.2184837618575408
-0.15693904020752658
0.18155692886753785
0.08923984639250257
-0.04000406907250786
-0.033849596907498114
-0.1261666793825056
-0.14463009587750708
-0.12001220721752358
-0.1384756237125251
-0.14463009587750708
-0.12001220721752358
-0.09539431855751236
-0.07693090206251085
-0.12001220721752358
-0.09539431855751236
-0.17540245670252808
-0.538516314437576
-0.44619923196256844
-0.30464637216753854
-0.2554105948475438
-0.21232928969253104
-0.2431016505175243
-0.23079270618753256
-0.2431016505175243
-0.2554105948475438
-0.2554105948475438
-0.5138984257775646
-0.5631342030975872
0.04000406907250786
-0.2061748175275213
-0.21232928969253104
-0.2184837618575408
-0.2369471783525424
-0.2431016505175243
-0.2554105948475438
-0.23079270618753256
-0.16309351237253633
-0.2431016505175243
-0.2184837618575408
-0.18771140103251985
-0.17540245670252808
-0.1692479845375183
-0.16309351237253633
-0.15693904020752658
-0.1261666793825056
-0.13232115154751534
-0.04000406907250786
-0.07693090206251085
-0.07693090206251085
-0.06462195773251911
-0.08308537422752059
-0.08308537422752059
-0.02769512474251612
-0.08308537422752059
-0.08923984639250257
-0.08308537422752059
-0.1015487907225221
-0.10770326288750408
-0.11385773505251384
-0.13232115154751534
-0.05231301340249961
-0.1384756237125251
-0.18155692886753785
-0.15693904020752658
-0.15078456804251686
-0.15078456804251686
-0.14463009587750708
-0.1384756237125251
-0.08308537422752059
-0.13232115154751534
-0.1261666793825056
-0.14463009587750708
-0.1261666793825056
-0.11385773505251384
-0.14463009587750708
-0.08308537422752059
-0.003077236082504875
-0.15078456804251686
-0.1384756237125251
-0.13232115154751534
-0.1261666793825056
-0.11385773505251384
-0.09539431855751236
-0.08923984639250257
-0.06462195773251911
0.07693090206251085
0.49543500928256323
-0.15693904020752658
-0.05846748556750937
-0.08923984639250257
-0.05231301340249961
0.02154065257750637
-0.2061748175275213
-0.4708171206225797
-0.33541873299255964
-0.2061748175275213
-0.1692479845375183
-0.1692479845375183
-0.14463009587750708
-0.16309351237253633
-0.15078456804251686
-0.2061748175275213
-0.18155692886753785
-0.1938658731975296
-0.2000203453625393
-0.11385773505251384
0.0707764298975011
0.01538618041249662
0.003077236082504875
-0.10770326288750408
-0.11385773505251384
-0.10770326288750408
-0.07693090206251085
-0.05231301340249961
-0.04000406907250786
-0.01538618041249662
0.02769512474251612
-0.06462195773251911
-0.06462195773251911
-0.1015487907225221
-0.1692479845375183
-0.32310978866254003
-0.2246382340225228
-0.17540245670252808
-0.1384756237125251
-0.2000203453625393
-0.21232928969253104
-0.2184837618575408
-0.2369471783525424
-0.2431016505175243
-0.24925612268253405
-0.2246382340225228
-0.16309351237253633
-0.2431016505175243
-0.21232928969253104
-0.2369471783525424
-0.29233742783754685
-0.2184837618575408
-0.1692479845375183
-0.13232115154751534
-0.11385773505251384
-0.16309351237253633
-0.14463009587750708
-0.13232115154751534
-0.1384756237125251
-0.13232115154751534
-0.14463009587750708
-0.15693904020752658
-0.2184837618575408
-0.6431423412426027
-0.02154065257750637
0.10770326288750408
-0.01538618041249662
-0.05846748556750937
-0.08923984639250257
-0.05846748556750937
-0.009231708247514623
-0.09539431855751236
-0.1261666793825056
-0.13232115154751534
-0.10770326288750408
-0.10770326288750408
-0.15078456804251686
-0.15078456804251686
-0.14463009587750708
-0.15693904020752658
-0.1015487907225221
-0.15078456804251686
-0.17540245670252808
-0.1938658731975296
-0.18155692886753785
-0.15078456804251686
-0.1261666793825056
-0.18155692886753785
-0.15078456804251686
-0.13232115154751534
-0.1261666793825056
-0.11385773505251384
-0.10770326288750408
-0.10770326288750408
-0.1015487907225221
-0.2184837618575408
-0.17540245670252808
-0.15693904020752658
-0.1692479845375183
-0.15078456804251686
-0.14463009587750708
-0.15693904020752658
-0.14463009587750708
-0.18771140103251985
-0.1938658731975296
-0.2000203453625393
-0.18155692886753785
-0.1938658731975296
-0.18155692886753785
-0.1015487907225221
-0.02769512474251612
-0.14463009587750708
-0.1261666793825056
-0.13232115154751534
-0.1261666793825056
-0.10770326288750408
-0.11385773505251384
-0.11385773505251384
-0.10770326288750408
-0.15078456804251686
-0.14463009587750708
0.04615854123751762
0.5200528979425745
-0.15693904020752658
0.033849596907498114
0.2800284835075273
-0.18155692886753785
-0.360036621652543
-0.2246382340225228
-0.1692479845375183
-0.14463009587750708
-0.1692479845375183
-0.18155692886753785
-0.08308537422752059
0.396963454642546
-0.45850817629256013
0.12001220721752358
0.09539431855751236
-0.02154065257750637
-0.08923984639250257
-0.0707764298975011
-0.0707764298975011
-0.360036621652543
-0.46466264845757
-0.3108008443325483
-0.24925612268253405
-0.24925612268253405
-0.2431016505175243
-0.24925612268253405
-0.2246382340225228
-0.23079270618753256
-0.2738740113425453
-0.2738740113425453
-0.2431016505175243
-0.31695531649755804
-0.33541873299255964
-0.2369471783525424
-0.2000203453625393
-0.1692479845375183
-0.18771140103251985
-0.1692479845375183
-0.18771140103251985
-0.17540245670252808
-0.15078456804251686
-0.17540245670252808
-0.17540245670252808
-0.18155692886753785
-0.2554105948475438
-0.2431016505175243
-0.15078456804251686
-0.07693090206251085
-0.1692479845375183
-0.18771140103251985
-0.21232928969253104
-0.2184837618575408
-0.2369471783525424
-0.2554105948475438
-0.2246382340225228
-0.23079270618753256
-0.24925612268253405
-0.21232928969253104
-0.16309351237253633
-0.16309351237253633
-0.2000203453625393
-0.36619109381755277
-0.5138984257775646
-0.36619109381755277
-0.2800284835075273
-0.26771953917753555
-0.2246382340225228
-0.23079270618753256
-0.2184837618575408
-0.2000203453625393
-0.2184837618575408
-0.18155692886753785
-0.1692479845375183
-0.2061748175275213
-0.5446707866025856
-0.29233742783754685
0.04000406907250786
-0.11385773505251384
-0.1692479845375183
-0.17540245670252808
-0.1938658731975296
-0.16309351237253633
-0.15078456804251686
-0.18771140103251985
-0.1938658731975296
-0.1938658731975296
-0.16309351237253633
-0.15693904020752658
-0.17540245670252808
-0.18155692886753785
-0.1692479845375183
-0.18155692886753785
-0.2061748175275213
-0.18155692886753785
-0.17540245670252808
-0.1692479845375183
-0.16309351237253633
-0.1692479845375183
-0.16309351237253633
-0.1692479845375183
-0.1692479845375183
-0.1692479845375183
-0.1692479845375183
-0.1692479845375183
-0.2061748175275213
-0.1938658731975296
-0.15693904020752658
-0.2000203453625393
-0.2246382340225228
-0.2246382340225228
-0.2184837618575408
-0.2061748175275213
-0.24925612268253405
-0.24925612268253405
-0.2184837618575408
-0.2554105948475438
-0.26156506701252585
-0.26156506701252585
-0.2369471783525424
-0.24925612268253405
-0.04000406907250786
0.4708171206225797
-0.2431016505175243
-0.5262073701075842
-0.427735815467567
-0.2984919000025288
-0.2246382340225228
-0.21232928969253104
-0.2000203453625393
-0.2000203453625393
-0.1938658731975296
-0.2246382340225228
-0.21232928969253104
-0.2000203453625393
-0.2184837618575408
-0.2061748175275213
-0.15078456804251686
-0.14463009587750708
-0.10770326288750408
-0.13232115154751534
-0.1261666793825056
-0.16309351237253633
-0.2061748175275213
-0.14463009587750708
-0.14463009587750708
-0.1384756237125251
0.46466264845757
-0.12001220721752358
-0.6554512855725947
-0.427735815467567
-0.3723455659825625
-0.35388214948756086
-0.3108008443325483
-0.2369471783525424
-0.1692479845375183
-0.2184837618575408
-0.1938658731975296
-0.2184837618575408
-0.2369471783525424
-0.2431016505175243
-0.24925612268253405
-0.30464637216753854
-0.30464637216753854
-0.40311792680755576
