-0.2184837618575408
-0.2184837618575408
-0.2184837618575408
-0.2184837618575408
-0.2184837618575408
-0.2184837618575408
-0.21232928969253104
-0.2184837618575408
-0.2184837618575408
-0.2061748175275213
-0.2061748175275213
-0.21232928969253104
-0.2061748175275213
-0.2000203453625393
-0.2061748175275213
-0.1938658731975296
-0.2000203453625393
-0.1938658731975296
-0.1938658731975296
-0.2000203453625393
-0.1938658731975296
-0.18771140103251985
-0.1938658731975296
-0.1938658731975296
-0.18771140103251985
-0.18771140103251985
-0.18771140103251985
-0.1938658731975296
-0.18771140103251985
-0.1938658731975296
-0.2000203453625393
-0.2061748175275213
-0.21232928969253104
-0.23079270618753256
-0.21232928969253104
-0.2184837618575408
-0.2184837618575408
-0.23079270618753256
-0.2369471783525424
-0.24925612268253405
-0.26156506701252585
-0.2554105948475438
-0.2554105948475438
-0.2554105948475438
-0.26156506701252585
-0.26156506701252585
-0.26156506701252585
-0.2554105948475438
-0.2554105948475438
-0.2554105948475438
-0.2554105948475438
-0.26156506701252585
-0.2554105948475438
-0.2554105948475438
-0.24925612268253405
-0.2554105948475438
-0.2554105948475438
-0.24925612268253405
-0.2554105948475438
-0.24925612268253405
-0.2800284835075273
-0.5508252587675677
-0.7846952010376053
-0.8647033391826209
-0.9324025329976448
-0.8523943948526291
-0.8093130896976164
-0.8216220340276081
-0.7970041453676248
-0.7539228402126119
-0.7354594237176102
-0.7416138958825924
-0.7908496732026148
-0.7354594237176102
-0.6800691742326057
-0.5939065639225805
-0.5508252587675677
-0.538516314437576
-0.5569797309325777
-0.5446707866025856
-0.6554512855725947
-0.6923781185625978
-0.7416138958825924
-0.7600773123775938
-0.7477683680476023
-0.7477683680476023
-0.7293049515526008
-0.7416138958825924
-0.7908496732026148
-0.7600773123775938
-0.7293049515526008
-0.7046870628925892
-0.6862236463975879
-0.6739147020675963
-0.6554512855725947
-0.7231504793875909
-1.178581419597674
-0.5262073701075842
-0.4523537041275505
-0.5692886752625692
-0.5631342030975872
-0.5446707866025856
-0.5446707866025856
-0.5939065639225805
-0.6185244525825918
-0.6246789247476012
-0.6369878690775933
-0.6616057577376044
-0.6862236463975879
-0.6923781185625978
-0.6862236463975879
-0.6554512855725947
-0.6862236463975879
-0.6369878690775933
-0.6616057577376044
-0.6554512855725947
-0.6000610360875902
-0.5692886752625692
-0.6000610360875902
-0.6123699804175823
-0.6492968134075847
-0.6308333969125834
-0.6554512855725947
-0.6985325907276074
-0.6923781185625978
-0.6923781185625978
-0.6677602299025862
-0.6369878690775933
-0.6000610360875902
-0.575443147427579
-0.5569797309325777
-0.4892805371175811
-0.46466264845757
-0.44619923196256844
-0.396963454642546
-0.3846545103125543
-0.4154268711375475
-0.40311792680755576
-0.3846545103125543
-0.3846545103125543
-0.3846545103125543
-0.37850003814754446
-0.34772767732255133
-0.3108008443325483
-0.34772767732255133
-0.2984919000025288
-0.29233742783754685
-0.26156506701252585
-0.2431016505175243
-0.18771140103251985
-0.1384756237125251
-0.13232115154751534
-0.18155692886753785
-0.15078456804251686
0.033849596907498114
0.3415732051575415
-0.24925612268253405
-0.15078456804251686
-0.11385773505251384
-0.427735815467567
-0.33541873299255964
-0.12001220721752358
-0.1015487907225221
-0.05846748556750937
-0.009231708247514623
0.009231708247514623
0.033849596907498114
0.01538618041249662
-0.02154065257750637
0.003077236082504875
-0.01538618041249662
-0.06462195773251911
-0.05846748556750937
-0.033849596907498114
-0.01538618041249662
-0.0707764298975011
-0.10770326288750408
-0.08308537422752059
-0.08923984639250257
-0.05846748556750937
-0.04000406907250786
-0.06462195773251911
-0.05231301340249961
-0.09539431855751236
-0.10770326288750408
-0.1384756237125251
-0.16309351237253633
-0.15693904020752658
-0.1692479845375183
-0.2000203453625393
-0.2246382340225228
-0.28618295567253704
-0.35388214948756086
-0.396963454642546
-0.46466264845757
-0.5015894814475731
-0.5200528979425745
-0.5631342030975872
-0.3846545103125543
-0.1938658731975296
-0.9077846443376336
-0.13232115154751534
-0.31695531649755804
-0.33541873299255964
-0.34772767732255133
-0.3846545103125543
-0.44619923196256844
-0.7723862567076134
-0.6677602299025862
-0.5323618422725662
-0.5200528979425745
-0.5323618422725662
-0.5692886752625692
-0.6431423412426027
-0.6985325907276074
-0.8154675618626261
-0.8523943948526291
-0.8770122835126126
-0.8585488670176111
-0.7846952010376053
-0.6923781185625978
-0.6062155082525723
-0.2061748175275213
-0.5015894814475731
-0.6985325907276074
-0.5200528979425745
-0.46466264845757
-0.44619923196256844
-0.4400447597975588
-0.433890287632549
-0.35388214948756086
-0.396963454642546
-0.40311792680755576
-0.2800284835075273
-0.2061748175275213
-0.26156506701252585
-0.24925612268253405
-0.31695531649755804
-0.3723455659825625
-0.44619923196256844
-0.44619923196256844
-0.37850003814754446
-0.28618295567253704
-0.21232928969253104
-0.12001220721752358
-0.02154065257750637
0.08923984639250257
0.02154065257750637
0.08308537422752059
0.08923984639250257
0.1015487907225221
0.1261666793825056
0.1692479845375183
0.15078456804251686
0.21232928969253104
0.18771140103251985
0.15693904020752658
0.16309351237253633
0.2061748175275213
0.2800284835075273
0.360036621652543
0.31695531649755804
-0.033849596907498114
0.575443147427579
0.7046870628925892
0.538516314437576
0.5262073701075842
0.5262073701075842
0.5323618422725662
0.5692886752625692
0.7046870628925892
0.6985325907276074
0.7293049515526008
0.7785407288726233
0.8277765061926179
0.8708578113476306
0.9754838381526297
0.7416138958825924
0.1015487907225221
0.04615854123751762
0.04000406907250786
0.033849596907498114
0.033849596907498114
0.01538618041249662
0.01538618041249662
0.003077236082504875
-0.003077236082504875
-0.003077236082504875
-0.009231708247514623
-0.02154065257750637
-0.01538618041249662
-0.02154065257750637
-0.02769512474251612
-0.04000406907250786
-0.033849596907498114
-0.04000406907250786
-0.04615854123751762
-0.04615854123751762
-0.04615854123751762
-0.05231301340249961
-0.05231301340249961
-0.05231301340249961
-0.05846748556750937
-0.06462195773251911
-0.0707764298975011
-0.0707764298975011
-0.07693090206251085
-0.07693090206251085
-0.07693090206251085
-0.08308537422752059
-0.08308537422752059
-0.08923984639250257
-0.08923984639250257
-0.09539431855751236
-0.08923984639250257
-0.09539431855751236
-0.09539431855751236
-0.08923984639250257
-0.08923984639250257
-0.09539431855751236
-0.09539431855751236
-0.09539431855751236
-0.09539431855751236
-0.09539431855751236
-0.1015487907225221
-0.1015487907225221
-0.10770326288750408
-0.11385773505251384
-0.10770326288750408
-0.10770326288750408
-0.12001220721752358
-0.12001220721752358
-0.12001220721752358
-0.1261666793825056
-0.1261666793825056
-0.13232115154751534
-0.13232115154751534
-0.1261666793825056
-0.1384756237125251
-0.14463009587750708
-0.1384756237125251
-0.1384756237125251
-0.14463009587750708
-0.15078456804251686
-0.15078456804251686
-0.15078456804251686
-0.15078456804251686
-0.15078456804251686
-0.15693904020752658
-0.15693904020752658
-0.16309351237253633
-0.16309351237253633
-0.16309351237253633
-0.15693904020752658
-0.1692479845375183
-0.1692479845375183
-0.16309351237253633
-0.16309351237253633
-0.1692479845375183
-0.17540245670252808
-0.1692479845375183
-0.1692479845375183
-0.17540245670252808
-0.17540245670252808
-0.17540245670252808
-0.17540245670252808
-0.17540245670252808
-0.1692479845375183
-0.17540245670252808
-0.1692479845375183
-0.18155692886753785
-0.17540245670252808
-0.1692479845375183
-0.17540245670252808
-0.17540245670252808
-0.18155692886753785
-0.18155692886753785
-0.18155692886753785
-0.18771140103251985
-0.18155692886753785
-0.18771140103251985
-0.18771140103251985
-0.18155692886753785
-0.18771140103251985
-0.1938658731975296
-0.18771140103251985
-0.18771140103251985
-0.1938658731975296
-0.18771140103251985
-0.1938658731975296
-0.2000203453625393
-0.18771140103251985
-0.1938658731975296
-0.1938658731975296
-0.2000203453625393
-0.2000203453625393
-0.2000203453625393
-0.2000203453625393
-0.2061748175275213
-0.2061748175275213
-0.1938658731975296
-0.1938658731975296
-0.1938658731975296
-0.1938658731975296
-0.1938658731975296
-0.1938658731975296
-0.21232928969253104
-0.2061748175275213
-0.2061748175275213
-0.2061748175275213
-0.2000203453625393
-0.2061748175275213
-0.2061748175275213
-0.2061748175275213
-0.2000203453625393
-0.2061748175275213
-0.21232928969253104
-0.2000203453625393
-0.2061748175275213
-0.2061748175275213
-0.21232928969253104
-0.2061748175275213
-0.2184837618575408
-0.2184837618575408
-0.21232928969253104
-0.21232928969253104
-0.21232928969253104
-0.2246382340225228
-0.2184837618575408
-0.23079270618753256
-0.2246382340225228
-0.21232928969253104
-0.2184837618575408
-0.2184837618575408
-0.21232928969253104
-0.2184837618575408
-0.2246382340225228
-0.2184837618575408
-0.2184837618575408
-0.2246382340225228
-0.2184837618575408
-0.2184837618575408
-0.2184837618575408
-0.2246382340225228
-0.2246382340225228
-0.2246382340225228
-0.2246382340225228
-0.2246382340225228
-0.2369471783525424
-0.2431016505175243
-0.2431016505175243
-0.2246382340225228
-0.18771140103251985
-0.1384756237125251
-0.08923984639250257
-0.04000406907250786
-0.02154065257750637
-0.05846748556750937
-0.15078456804251686
-0.23079270618753256
-0.3108008443325483
-0.3292642608275498
-0.32310978866254003
-0.30464637216753854
-0.28618295567253704
-0.2738740113425453
-0.26156506701252585
-0.24925612268253405
-0.24925612268253405
-0.2369471783525424
-0.2431016505175243
-0.2431016505175243
-0.2431016505175243
-0.2431016505175243
-0.23079270618753256
-0.2369471783525424
-0.23079270618753256
-0.23079270618753256
-0.2369471783525424
-0.2369471783525424
-0.2369471783525424
-0.2369471783525424
-0.2369471783525424
-0.2369471783525424
-0.2369471783525424
-0.2369471783525424
-0.2369471783525424
-0.2369471783525424
-0.23079270618753256
-0.23079270618753256
-0.2369471783525424
-0.2431016505175243
-0.2369471783525424
-0.2369471783525424
-0.2369471783525424
-0.2369471783525424
-0.2369471783525424
-0.2431016505175243
-0.2431016505175243
-0.2369471783525424
-0.2431016505175243
-0.2369471783525424
-0.2369471783525424
-0.23079270618753256
-0.23079270618753256
-0.23079270618753256
-0.23079270618753256
-0.2246382340225228
-0.23079270618753256
-0.2246382340225228
-0.23079270618753256
-0.23079270618753256
-0.2246382340225228
-0.23079270618753256
-0.2246382340225228
-0.2184837618575408
-0.23079270618753256
-0.23079270618753256
-0.2369471783525424
-0.21232928969253104
-0.2184837618575408
-0.2369471783525424
-0.2184837618575408
-0.21232928969253104
-0.2184837618575408
-0.2184837618575408
-0.2246382340225228
-0.2246382340225228
-0.21232928969253104
-0.2246382340225228
-0.2246382340225228
-0.2246382340225228
-0.23079270618753256
-0.2431016505175243
-0.2431016505175243
-0.2554105948475438
-0.26156506701252585
-0.2554105948475438
-0.26771953917753555
-0.26771953917753555
-0.26156506701252585
-0.26156506701252585
-0.26771953917753555
-0.26156506701252585
-0.26771953917753555
-0.2738740113425453
-0.2738740113425453
-0.26771953917753555
-0.26771953917753555
-0.2738740113425453
-0.26771953917753555
-0.2738740113425453
-0.2738740113425453
-0.26771953917753555
-0.26771953917753555
-0.26771953917753555
-0.2738740113425453
-0.26771953917753555
-0.26771953917753555
-0.26771953917753555
-0.26771953917753555
-0.26156506701252585
-0.26771953917753555
-0.26771953917753555
-0.26156506701252585
-0.26156506701252585
-0.26156506701252585
-0.26771953917753555
-0.26771953917753555
-0.26771953917753555
-0.26771953917753555
-0.26771953917753555
-0.26771953917753555
-0.2554105948475438
-0.2554105948475438
-0.26156506701252585
-0.26771953917753555
-0.26771953917753555
-0.26156506701252585
-0.2554105948475438
-0.26156506701252585
-0.2554105948475438
-0.2554105948475438
-0.26156506701252585
-0.26156506701252585
-0.26156506701252585
-0.2554105948475438
-0.26156506701252585
-0.26156506701252585
-0.26156506701252585
-0.26156506701252585
-0.26771953917753555
-0.26771953917753555
-0.26771953917753555
-0.26156506701252585
-0.2738740113425453
-0.26771953917753555
-0.26771953917753555
-0.26771953917753555
-0.2738740113425453
-0.2738740113425453
-0.26771953917753555
-0.2800284835075273
-0.2738740113425453
-0.2800284835075273
-0.2738740113425453
-0.2800284835075273
-0.2800284835075273
-0.2738740113425453
-0.2738740113425453
-0.2738740113425453
-0.2738740113425453
-0.2800284835075273
-0.2800284835075273
-0.2800284835075273
-0.28618295567253704
-0.2800284835075273
-0.2800284835075273
-0.2738740113425453
-0.2800284835075273
-0.2800284835075273
-0.28618295567253704
-0.2800284835075273
-0.28618295567253704
-0.2800284835075273
-0.2800284835075273
-0.28618295567253704
-0.28618295567253704
-0.28618295567253704
-0.28618295567253704
-0.2800284835075273
-0.28618295567253704
-0.28618295567253704
-0.2800284835075273
-0.28618295567253704
-0.28618295567253704
-0.28618295567253704
-0.28618295567253704
-0.2800284835075273
-0.28618295567253704
-0.2800284835075273
-0.28618295567253704
-0.28618295567253704
-0.2984919000025288
-0.2800284835075273
-0.28618295567253704
-0.28618295567253704
-0.28618295567253704
-0.28618295567253704
-0.28618295567253704
-0.28618295567253704
-0.2800284835075273
-0.28618295567253704
-0.28618295567253704
-0.28618295567253704
-0.2800284835075273
-0.2800284835075273
-0.28618295567253704
-0.2800284835075273
-0.2800284835075273
-0.28618295567253704
-0.29233742783754685
-0.29233742783754685
-0.28618295567253704
-0.28618295567253704
-0.28618295567253704
-0.2800284835075273
-0.29233742783754685
-0.28618295567253704
-0.28618295567253704
-0.28618295567253704
-0.29233742783754685
-0.29233742783754685
-0.29233742783754685
-0.29233742783754685
-0.28618295567253704
-0.28618295567253704
-0.29233742783754685
-0.2984919000025288
-0.29233742783754685
-0.28618295567253704
-0.2800284835075273
-0.2738740113425453
-0.2800284835075273
-0.2800284835075273
-0.28618295567253704
-0.2800284835075273
-0.28618295567253704
-0.28618295567253704
-0.28618295567253704
-0.2800284835075273
-0.28618295567253704
-0.2800284835075273
-0.28618295567253704
-0.2800284835075273
-0.2800284835075273
-0.2738740113425453
-0.2738740113425453
-0.2800284835075273
-0.28618295567253704
-0.29233742783754685
-0.28618295567253704
-0.26156506701252585
-0.2184837618575408
-0.1692479845375183
-0.12001220721752358
-0.0707764298975011
-0.05846748556750937
-0.1015487907225221
-0.2000203453625393
-0.29233742783754685
-0.37850003814754446
-0.37850003814754446
-0.3723455659825625
-0.35388214948756086
-0.3415732051575415
-0.3292642608275498
-0.30464637216753854
-0.2984919000025288
-0.29233742783754685
-0.2800284835075273
-0.28618295567253704
-0.28618295567253704
-0.2800284835075273
-0.2800284835075273
-0.2800284835075273
-0.26771953917753555
-0.26771953917753555
-0.26771953917753555
-0.26771953917753555
-0.26771953917753555
-0.26771953917753555
-0.26771953917753555
-0.2738740113425453
-0.26156506701252585
-0.26771953917753555
-0.26156506701252585
-0.26156506701252585
-0.26771953917753555
-0.26771953917753555
-0.26156506701252585
-0.26771953917753555
-0.26771953917753555
-0.26156506701252585
-0.26771953917753555
-0.26156506701252585
-0.2554105948475438
-0.26156506701252585
-0.26156506701252585
-0.26156506701252585
-0.26156506701252585
-0.26156506701252585
-0.24925612268253405
-0.24925612268253405
-0.24925612268253405
-0.2554105948475438
-0.2554105948475438
-0.2554105948475438
-0.2554105948475438
-0.2431016505175243
-0.24925612268253405
-0.24925612268253405
-0.24925612268253405
-0.24925612268253405
-0.24925612268253405
-0.26156506701252585
-0.2431016505175243
-0.2369471783525424
-0.2431016505175243
-0.2431016505175243
-0.2431016505175243
-0.2369471783525424
-0.2369471783525424
-0.2431016505175243
-0.2431016505175243
-0.2431016505175243
-0.2431016505175243
-0.2431016505175243
-0.2369471783525424
-0.2431016505175243
-0.24925612268253405
-0.24925612268253405
-0.2554105948475438
-0.26771953917753555
-0.26156506701252585
-0.26771953917753555
-0.2738740113425453
-0.28618295567253704
-0.2800284835075273
-0.29233742783754685
-0.28618295567253704
-0.29233742783754685
-0.29233742783754685
-0.2984919000025288
-0.29233742783754685
-0.2984919000025288
-0.29233742783754685
-0.29233742783754685
-0.2984919000025288
-0.29233742783754685
-0.29233742783754685
-0.28618295567253704
-0.29233742783754685
-0.29233742783754685
-0.29233742783754685
-0.29233742783754685
-0.29233742783754685
-0.29233742783754685
-0.28618295567253704
-0.29233742783754685
-0.28618295567253704
-0.29233742783754685
-0.28618295567253704
-0.29233742783754685
-0.2984919000025288
-0.29233742783754685
-0.28618295567253704
-0.2984919000025288
-0.29233742783754685
-0.28618295567253704
-0.28618295567253704
-0.28618295567253704
-0.28618295567253704
-0.29233742783754685
-0.28618295567253704
-0.29233742783754685
-0.28618295567253704
-0.29233742783754685
-0.29233742783754685
-0.29233742783754685
-0.29233742783754685
-0.29233742783754685
-0.29233742783754685
-0.29233742783754685
-0.28618295567253704
-0.29233742783754685
-0.29233742783754685
-0.3108008443325483
-0.28618295567253704
-0.28618295567253704
-0.28618295567253704
-0.28618295567253704
-0.28618295567253704
-0.29233742783754685
-0.29233742783754685
-0.30464637216753854
-0.30464637216753854
-0.2984919000025288
-0.2984919000025288
-0.29233742783754685
-0.29233742783754685
-0.29233742783754685
-0.28618295567253704
-0.29233742783754685
-0.29233742783754685
-0.29233742783754685
-0.28618295567253704
-0.29233742783754685
-0.28618295567253704
-0.28618295567253704
-0.29233742783754685
-0.28618295567253704
-0.29233742783754685
-0.28618295567253704
-0.29233742783754685
-0.29233742783754685
-0.2800284835075273
-0.28618295567253704
-0.29233742783754685
-0.29233742783754685
-0.29233742783754685
-0.29233742783754685
-0.28618295567253704
-0.29233742783754685
-0.29233742783754685
-0.28618295567253704
-0.28618295567253704
-0.29233742783754685
-0.29233742783754685
-0.2800284835075273
-0.29233742783754685
-0.29233742783754685
-0.28618295567253704
-0.28618295567253704
-0.28618295567253704
-0.29233742783754685
-0.2984919000025288
-0.2984919000025288
-0.28618295567253704
-0.2800284835075273
-0.28618295567253704
-0.29233742783754685
-0.2800284835075273
-0.2984919000025288
-0.29233742783754685
-0.29233742783754685
-0.29233742783754685
-0.28618295567253704
-0.29233742783754685
-0.29233742783754685
-0.2984919000025288
-0.29233742783754685
-0.28618295567253704
-0.29233742783754685
-0.28618295567253704
-0.29233742783754685
-0.28618295567253704
-0.28618295567253704
-0.29233742783754685
-0.29233742783754685
-0.2800284835075273
-0.29233742783754685
-0.28618295567253704
-0.29233742783754685
-0.28618295567253704
-0.28618295567253704
-0.2800284835075273
-0.29233742783754685
-0.28618295567253704
-0.2800284835075273
-0.28618295567253704
-0.28618295567253704
-0.2800284835075273
-0.28618295567253704
-0.29233742783754685
-0.29233742783754685
-0.28618295567253704
-0.28618295567253704
-0.2984919000025288
-0.28618295567253704
-0.2800284835075273
-0.2738740113425453
-0.2738740113425453
-0.2738740113425453
-0.2800284835075273
-0.2800284835075273
-0.28618295567253704
-0.28618295567253704
-0.28618295567253704
-0.28618295567253704
-0.29233742783754685
-0.28618295567253704
-0.28618295567253704
-0.28618295567253704
-0.2800284835075273
-0.28618295567253704
-0.28618295567253704
-0.28618295567253704
-0.29233742783754685
-0.30464637216753854
-0.30464637216753854
-0.2738740113425453
-0.2369471783525424
-0.18155692886753785
-0.13232115154751534
-0.07693090206251085
-0.0707764298975011
-0.1015487907225221
-0.1938658731975296
-0.29233742783754685
-0.3723455659825625
-0.390808982477564
-0.3846545103125543
-0.3723455659825625
-0.35388214948756086
-0.33541873299255964
-0.32310978866254003
-0.2984919000025288
-0.2984919000025288
-0.28618295567253704
-0.28618295567253704
-0.29233742783754685
-0.28618295567253704
-0.28618295567253704
-0.28618295567253704
-0.29233742783754685
-0.29233742783754685
-0.28618295567253704
-0.29233742783754685
-0.28618295567253704
-0.28618295567253704
-0.29233742783754685
-0.28618295567253704
-0.28618295567253704
-0.2800284835075273
-0.28618295567253704
-0.28618295567253704
-0.2800284835075273
-0.28618295567253704
-0.2800284835075273
-0.28618295567253704
-0.28618295567253704
-0.28618295567253704
-0.28618295567253704
-0.28618295567253704
-0.28618295567253704
-0.28618295567253704
-0.28618295567253704
-0.28618295567253704
-0.28618295567253704
-0.2738740113425453
-0.2738740113425453
-0.2738740113425453
-0.2800284835075273
-0.2800284835075273
-0.2800284835075273
-0.2738740113425453
-0.2738740113425453
-0.2738740113425453
-0.28618295567253704
-0.26771953917753555
-0.26771953917753555
-0.2738740113425453
-0.2738740113425453
-0.2738740113425453
-0.26156506701252585
-0.26156506701252585
-0.26156506701252585
-0.2554105948475438
-0.26156506701252585
-0.24925612268253405
-0.2554105948475438
-0.24925612268253405
-0.24925612268253405
-0.2554105948475438
-0.24925612268253405
-0.24925612268253405
-0.2554105948475438
-0.2554105948475438
-0.26156506701252585
-0.26771953917753555
-0.2738740113425453
-0.2800284835075273
-0.28618295567253704
-0.28618295567253704
-0.28618295567253704
-0.2984919000025288
-0.29233742783754685
-0.2984919000025288
-0.30464637216753854
-0.3108008443325483
-0.30464637216753854
-0.30464637216753854
-0.3108008443325483
-0.3108008443325483
-0.3108008443325483
-0.3108008443325483
-0.3108008443325483
-0.3108008443325483
-0.3108008443325483
-0.3108008443325483
-0.30464637216753854
-0.3108008443325483
-0.30464637216753854
-0.2984919000025288
-0.2984919000025288
-0.30464637216753854
-0.30464637216753854
-0.2984919000025288
-0.2984919000025288
-0.29233742783754685
-0.29233742783754685
-0.2984919000025288
-0.29233742783754685
-0.29233742783754685
-0.29233742783754685
-0.28618295567253704
-0.29233742783754685
-0.29233742783754685
-0.28618295567253704
-0.28618295567253704
-0.28618295567253704
-0.28618295567253704
-0.28618295567253704
-0.2800284835075273
-0.2800284835075273
-0.2800284835075273
-0.2800284835075273
-0.2800284835075273
-0.2800284835075273
-0.2800284835075273
-0.28618295567253704
-0.28618295567253704
-0.28618295567253704
-0.28618295567253704
-0.28618295567253704
-0.28618295567253704
-0.29233742783754685
-0.28618295567253704
-0.28618295567253704
-0.34772767732255133
-0.6185244525825918
-0.7908496732026148
-0.9200935886676254
-0.9570204216576284
-0.9570204216576284
-0.9508659494926462
-0.9200935886676254
-0.9139391165026156
-0.8831667556776225
-0.8400854505226096
-0.8708578113476306
-0.8339309783576276
-0.8277765061926179
-0.8031586175326066
-0.8093130896976164
-0.8031586175326066
-0.7539228402126119
-0.7416138958825924
-0.7908496732026148
-0.7662317845426038
-0.7231504793875909
-0.7293049515526008
-0.7539228402126119
-0.7600773123775938
-0.7231504793875909
-0.7046870628925892
-0.7477683680476023
-0.7293049515526008
-0.7231504793875909
-0.6739147020675963
-0.6800691742326057
-0.6923781185625978
-0.6616057577376044
-0.6308333969125834
-0.6677602299025862
-0.6677602299025862
-0.6739147020675963
-0.6616057577376044
-0.6616057577376044
-0.538516314437576
-0.08923984639250257
-0.9939472546476313
-0.895475700007614
-0.6492968134075847
-0.396963454642546
-0.45850817629256013
-0.5200528979425745
-0.538516314437576
-0.5200528979425745
-0.5323618422725662
-0.575443147427579
-0.5508252587675677
-0.5508252587675677
-0.5262073701075842
-0.5508252587675677
-0.5692886752625692
-0.5138984257775646
-0.5508252587675677
-0.6123699804175823
-0.7477683680476023
-0.6985325907276074
-0.6123699804175823
-0.5815976195925888
-0.5631342030975872
-0.37850003814754446
-0.2000203453625393
-0.9816383103176396
-0.12001220721752358
-0.28618295567253704
-0.3846545103125543
-0.390808982477564
-0.3846545103125543
-0.3846545103125543
-0.6739147020675963
-0.6492968134075847
-0.5200528979425745
-0.433890287632549
-0.40311792680755576
-0.3846545103125543
-0.396963454642546
-0.35388214948756086
-0.34772767732255133
-0.3846545103125543
-0.3723455659825625
-0.360036621652543
-0.36619109381755277
-0.390808982477564
-0.45850817629256013
-0.40311792680755576
-0.21232928969253104
-0.33541873299255964
-0.4523537041275505
-0.4708171206225797
-0.4831260649525715
-0.45850817629256013
-0.46466264845757
-0.40927239897256545
-0.42158134330255725
-0.4523537041275505
-0.3846545103125543
-0.3415732051575415
-0.3415732051575415
-0.390808982477564
-0.390808982477564
-0.46466264845757
-0.37850003814754446
-0.3292642608275498
-0.3108008443325483
-0.2800284835075273
-0.2800284835075273
-0.2984919000025288
-0.3292642608275498
-0.2738740113425453
-0.29233742783754685
-0.2984919000025288
-0.29233742783754685
-0.2554105948475438
-0.2984919000025288
-0.29233742783754685
-0.2246382340225228
-0.1938658731975296
-0.21232928969253104
-0.14463009587750708
-0.1384756237125251
-0.1384756237125251
-0.14463009587750708
-0.1938658731975296
-0.29233742783754685
-0.6369878690775933
-0.08308537422752059
0.04000406907250786
-0.1384756237125251
-0.18771140103251985
-0.21232928969253104
-0.17540245670252808
-0.2000203453625393
0.1015487907225221
-0.15078456804251686
-0.2738740113425453
-0.2000203453625393
-0.18155692886753785
-0.21232928969253104
-0.2738740113425453
-0.31695531649755804
-0.26771953917753555
-0.2738740113425453
-0.2431016505175243
-0.2246382340225228
-0.17540245670252808
-0.1384756237125251
-0.1015487907225221
-0.10770326288750408
-0.08308537422752059
-0.10770326288750408
-0.08923984639250257
-0.08308537422752059
-0.08308537422752059
-0.08923984639250257
-0.08308537422752059
-0.05846748556750937
-0.02154065257750637
0.09539431855751236
0.433890287632549
-0.23079270618753256
-0.02154065257750637
-0.003077236082504875
-0.02154065257750637
-0.033849596907498114
-0.07693090206251085
-0.396963454642546
-0.2246382340225228
-0.13232115154751534
-0.0707764298975011
-0.05231301340249961
-0.02769512474251612
-0.009231708247514623
0.04615854123751762
-0.02154065257750637
0.009231708247514623
-0.1015487907225221
-0.10770326288750408
-0.02154065257750637
0.02769512474251612
0.02154065257750637
0.06462195773251911
-0.01538618041249662
-0.009231708247514623
-0.003077236082504875
0.009231708247514623
-0.033849596907498114
-0.033849596907498114
-0.04615854123751762
-0.06462195773251911
-0.1692479845375183
-0.08308537422752059
-0.13232115154751534
-0.18771140103251985
-0.23079270618753256
-0.2246382340225228
-0.1938658731975296
-0.09539431855751236
-0.10770326288750408
-0.08308537422752059
-0.08308537422752059
-0.09539431855751236
-0.08308537422752059
-0.09539431855751236
-0.1261666793825056
-0.07693090206251085
-0.16309351237253633
-0.17540245670252808
-0.16309351237253633
-0.15693904020752658
-0.08923984639250257
-0.033849596907498114
-0.02769512474251612
-0.003077236082504875
-0.10770326288750408
-0.13232115154751534
-0.21232928969253104
-0.1938658731975296
-0.18771140103251985
-0.18771140103251985
-0.11385773505251384
0.16309351237253633
-0.35388214948756086
0.2000203453625393
0.1261666793825056
-0.02154065257750637
-0.07693090206251085
-0.12001220721752358
-0.13232115154751534
-0.13232115154751534
-0.2184837618575408
-0.2061748175275213
-0.26156506701252585
-0.30464637216753854
-0.2984919000025288
-0.33541873299255964
-0.575443147427579
-0.5692886752625692
-0.4708171206225797
-0.390808982477564
-0.35388214948756086
-0.35388214948756086
-0.35388214948756086
-0.30464637216753854
-0.2431016505175243
-0.24925612268253405
-0.3846545103125543
-0.40927239897256545
-0.433890287632549
-0.4831260649525715
-0.4831260649525715
-0.4523537041275505
-0.427735815467567
-0.3415732051575415
-0.34772767732255133
-0.2554105948475438
-0.1692479845375183
-0.14463009587750708
-0.06462195773251911
-0.003077236082504875
0.08923984639250257
0.14463009587750708
0.003077236082504875
-0.06462195773251911
-0.08923984639250257
-0.10770326288750408
-0.06462195773251911
-0.05231301340249961
0.1015487907225221
0.2184837618575408
0.10770326288750408
0.05846748556750937
0.04615854123751762
0.10770326288750408
0.2061748175275213
0.2061748175275213
0.24925612268253405
0.3723455659825625
0.33541873299255964
0.34772767732255133
0.5446707866025856
0.8585488670176111
0.2554105948475438
0.360036621652543
0.3292642608275498
0.1261666793825056
-0.0707764298975011
0.13232115154751534
0.2431016505175243
0.4154268711375475
0.5138984257775646
0.5446707866025856
0.6616057577376044
0.6985325907276074
0.6923781185625978
0.6000610360875902
0.47697159278756174
0.46466264845757
0.4831260649525715
0.427735815467567
0.32310978866254003
0.17540245670252808
0.02769512474251612
-0.06462195773251911
-0.13232115154751534
-0.21232928969253104
-0.2738740113425453
-0.31695531649755804
-0.3415732051575415
-0.35388214948756086
-0.35388214948756086
-0.35388214948756086
-0.34772767732255133
-0.34772767732255133
-0.35388214948756086
-0.34772767732255133
-0.35388214948756086
-0.34772767732255133
-0.3292642608275498
-0.32310978866254003
-0.33541873299255964
-0.3292642608275498
-0.33541873299255964
-0.3292642608275498
-0.33541873299255964
-0.3292642608275498
-0.33541873299255964
-0.33541873299255964
-0.33541873299255964
-0.32310978866254003
-0.3292642608275498
-0.32310978866254003
-0.3292642608275498
-0.32310978866254003
-0.3292642608275498
-0.3292642608275498
-0.3292642608275498
-0.32310978866254003
-0.2984919000025288
-0.2554105948475438
-0.21232928969253104
-0.16309351237253633
-0.13232115154751534
-0.1384756237125251
-0.1938658731975296
-0.26771953917753555
-0.35388214948756086
-0.4154268711375475
-0.40927239897256545
-0.40311792680755576
-0.37850003814754446
-0.36619109381755277
-0.3415732051575415
-0.3292642608275498
-0.3108008443325483
-0.3108008443325483
-0.30464637216753854
-0.2984919000025288
-0.30464637216753854
-0.2984919000025288
-0.2984919000025288
-0.2984919000025288
-0.29233742783754685
-0.2984919000025288
-0.2984919000025288
-0.29233742783754685
-0.29233742783754685
-0.29233742783754685
-0.2984919000025288
-0.28618295567253704
-0.28618295567253704
-0.28618295567253704
-0.28618295567253704
-0.28618295567253704
-0.28618295567253704
-0.28618295567253704
-0.28618295567253704
-0.2800284835075273
-0.2738740113425453
-0.2738740113425453
-0.2738740113425453
-0.2984919000025288
-0.2738740113425453
-0.26771953917753555
-0.26156506701252585
-0.26156506701252585
-0.26156506701252585
-0.26156506701252585
-0.26156506701252585
-0.26771953917753555
-0.2738740113425453
-0.26771953917753555
-0.2554105948475438
-0.2431016505175243
-0.2431016505175243
-0.2431016505175243
-0.2369471783525424
-0.2431016505175243
-0.23079270618753256
-0.2369471783525424
-0.23079270618753256
-0.2369471783525424
-0.23079270618753256
-0.24925612268253405
-0.23079270618753256
-0.2369471783525424
-0.23079270618753256
-0.2246382340225228
-0.23079270618753256
-0.2246382340225228
-0.2184837618575408
-0.2184837618575408
-0.2246382340225228
-0.2246382340225228
-0.2246382340225228
-0.23079270618753256
-0.23079270618753256
-0.2246382340225228
-0.2369471783525424
-0.2431016505175243
-0.2431016505175243
-0.2431016505175243
-0.24925612268253405
-0.2554105948475438
-0.26156506701252585
-0.26156506701252585
-0.26771953917753555
-0.26156506701252585
-0.26156506701252585
-0.26156506701252585
-0.26771953917753555
-0.26771953917753555
-0.26771953917753555
-0.26771953917753555
-0.26771953917753555
-0.26156506701252585
-0.2738740113425453
-0.26771953917753555
-0.2738740113425453
-0.26156506701252585
-0.26156506701252585
-0.26771953917753555
-0.26156506701252585
-0.26771953917753555
-0.26771953917753555
-0.26771953917753555
-0.26771953917753555
-0.26156506701252585
-0.26771953917753555
-0.26156506701252585
-0.26156506701252585
-0.2554105948475438
-0.2554105948475438
-0.26156506701252585
-0.24925612268253405
-0.24925612268253405
-0.24925612268253405
-0.26156506701252585
-0.2554105948475438
-0.26156506701252585
-0.2554105948475438
-0.2554105948475438
-0.26156506701252585
-0.26156506701252585
-0.26771953917753555
-0.26156506701252585
-0.26156506701252585
-0.26156506701252585
-0.2554105948475438
-0.26156506701252585
-0.26771953917753555
-0.26156506701252585
-0.26156506701252585
-0.26156506701252585
-0.26156506701252585
-0.26156506701252585
-0.26156506701252585
-0.26156506701252585
-0.26771953917753555
-0.26771953917753555
-0.26771953917753555
-0.26156506701252585
-0.26156506701252585
-0.26156506701252585
-0.26156506701252585
-0.26156506701252585
-0.26771953917753555
-0.26156506701252585
-0.26156506701252585
-0.26156506701252585
-0.26771953917753555
-0.26156506701252585
-0.26156506701252585
-0.26156506701252585
-0.26771953917753555
-0.26771953917753555
-0.26156506701252585
-0.26156506701252585
-0.26771953917753555
-0.26156506701252585
-0.26156506701252585
-0.26771953917753555
-0.26156506701252585
-0.26771953917753555
-0.26771953917753555
-0.26771953917753555
-0.26771953917753555
-0.26771953917753555
-0.2800284835075273
-0.2738740113425453
-0.26771953917753555
-0.2738740113425453
-0.2800284835075273
-0.28618295567253704
-0.2738740113425453
-0.2738740113425453
-0.2800284835075273
-0.28618295567253704
-0.2800284835075273
-0.2800284835075273
-0.28618295567253704
-0.28618295567253704
-0.28618295567253704
-0.29233742783754685
-0.28618295567253704
-0.2984919000025288
-0.28618295567253704
-0.2800284835075273
-0.28618295567253704
-0.28618295567253704
-0.28618295567253704
-0.29233742783754685
-0.29233742783754685
-0.2984919000025288
-0.2984919000025288
-0.29233742783754685
-0.29233742783754685
-0.29233742783754685
-0.28618295567253704
-0.28618295567253704
-0.29233742783754685
-0.28618295567253704
-0.29233742783754685
-0.28618295567253704
-0.28618295567253704
-0.28618295567253704
-0.28618295567253704
-0.28618295567253704
-0.2800284835075273
-0.2800284835075273
-0.2800284835075273
-0.28618295567253704
-0.2800284835075273
-0.2800284835075273
-0.2800284835075273
-0.28618295567253704
-0.29233742783754685
-0.28618295567253704
-0.2800284835075273
-0.2738740113425453
-0.26771953917753555
-0.26771953917753555
-0.2738740113425453
-0.26771953917753555
-0.26771953917753555
-0.2738740113425453
-0.26771953917753555
-0.26156506701252585
-0.26771953917753555
-0.26156506701252585
-0.26156506701252585
-0.26771953917753555
-0.26156506701252585
-0.26771953917753555
-0.26156506701252585
-0.26156506701252585
-0.26771953917753555
-0.2800284835075273
-0.2800284835075273
-0.2800284835075273
-0.24925612268253405
-0.2061748175275213
-0.15078456804251686
-0.1015487907225221
-0.06462195773251911
-0.0707764298975011
-0.12001220721752358
-0.21232928969253104
-0.31695531649755804
-0.3723455659825625
-0.3723455659825625
-0.36619109381755277
-0.3415732051575415
-0.3292642608275498
-0.3108008443325483
-0.2984919000025288
-0.29233742783754685
-0.2800284835075273
-0.28618295567253704
-0.2738740113425453
-0.2738740113425453
-0.2738740113425453
-0.2800284835075273
-0.2738740113425453
-0.26771953917753555
-0.26771953917753555
-0.26771953917753555
-0.26156506701252585
-0.26156506701252585
-0.2554105948475438
-0.26771953917753555
-0.26156506701252585
-0.26156506701252585
-0.26771953917753555
-0.2554105948475438
-0.26156506701252585
-0.26156506701252585
-0.2554105948475438
-0.2554105948475438
-0.26156506701252585
-0.26156506701252585
-0.24925612268253405
-0.2554105948475438
-0.2554105948475438
-0.24925612268253405
-0.2554105948475438
-0.2554105948475438
-0.2554105948475438
-0.24925612268253405
-0.2554105948475438
-0.2431016505175243
-0.24925612268253405
-0.2431016505175243
-0.2431016505175243
-0.24925612268253405
-0.2431016505175243
-0.2369471783525424
-0.2431016505175243
-0.2369471783525424
-0.23079270618753256
-0.23079270618753256
-0.2369471783525424
-0.2369471783525424
-0.23079270618753256
-0.2246382340225228
-0.2184837618575408
-0.2246382340225228
-0.2369471783525424
-0.21232928969253104
-0.21232928969253104
-0.21232928969253104
-0.2184837618575408
-0.2246382340225228
-0.2184837618575408
-0.2184837618575408
-0.21232928969253104
-0.2184837618575408
-0.2184837618575408
-0.23079270618753256
-0.23079270618753256
-0.2369471783525424
-0.2369471783525424
-0.24925612268253405
-0.24925612268253405
-0.24925612268253405
-0.24925612268253405
-0.2554105948475438
-0.26156506701252585
-0.26771953917753555
-0.26156506701252585
-0.26771953917753555
-0.26771953917753555
-0.26771953917753555
-0.26771953917753555
-0.26771953917753555
-0.26771953917753555
-0.26771953917753555
-0.26156506701252585
-0.26156506701252585
-0.26771953917753555
-0.2554105948475438
-0.26771953917753555
-0.26156506701252585
-0.2554105948475438
-0.2554105948475438
-0.26156506701252585
-0.24925612268253405
-0.2554105948475438
-0.2554105948475438
-0.24925612268253405
-0.24925612268253405
-0.2554105948475438
-0.2554105948475438
-0.24925612268253405
-0.24925612268253405
-0.2554105948475438
-0.24925612268253405
-0.24925612268253405
-0.2431016505175243
-0.24925612268253405
-0.26156506701252585
-0.2431016505175243
-0.2431016505175243
-0.24925612268253405
-0.2431016505175243
-0.24925612268253405
-0.2431016505175243
-0.24925612268253405
-0.2554105948475438
-0.26156506701252585
-0.26156506701252585
-0.2554105948475438
-0.26156506701252585
-0.26156506701252585
-0.2554105948475438
-0.2554105948475438
-0.2554105948475438
-0.2554105948475438
-0.26156506701252585
-0.26156506701252585
-0.2554105948475438
-0.26156506701252585
-0.26156506701252585
-0.26156506701252585
-0.26156506701252585
-0.2554105948475438
-0.26156506701252585
-0.2554105948475438
-0.26156506701252585
-0.26156506701252585
-0.26156506701252585
-0.26156506701252585
-0.2554105948475438
-0.2554105948475438
-0.2554105948475438
-0.26156506701252585
-0.2554105948475438
-0.26156506701252585
-0.2554105948475438
-0.2554105948475438
-0.26156506701252585
-0.26156506701252585
-0.2554105948475438
-0.2554105948475438
-0.2554105948475438
-0.26156506701252585
-0.2554105948475438
-0.2554105948475438
-0.2554105948475438
-0.26156506701252585
-0.24925612268253405
-0.24925612268253405
-0.24925612268253405
-0.2554105948475438
-0.2554105948475438
-0.2554105948475438
-0.24925612268253405
-0.24925612268253405
-0.24925612268253405
-0.2554105948475438
-0.24925612268253405
-0.2431016505175243
-0.24925612268253405
-0.2554105948475438
-0.24925612268253405
-0.2554105948475438
-0.24925612268253405
-0.24925612268253405
-0.24925612268253405
-0.26156506701252585
-0.24925612268253405
-0.2554105948475438
-0.26156506701252585
-0.26156506701252585
-0.24925612268253405
-0.24925612268253405
-0.24925612268253405
-0.2554105948475438
-0.24925612268253405
-0.2431016505175243
-0.24925612268253405
-0.24925612268253405
-0.2431016505175243
-0.24925612268253405
-0.24925612268253405
-0.2431016505175243
-0.24925612268253405
-0.24925612268253405
-0.24925612268253405
-0.24925612268253405
-0.2431016505175243
-0.24925612268253405
-0.2431016505175243
-0.2431016505175243
-0.24925612268253405
-0.2431016505175243
-0.24925612268253405
-0.24925612268253405
-0.2369471783525424
-0.24925612268253405
-0.24925612268253405
-0.24925612268253405
-0.2554105948475438
-0.2554105948475438
-0.24925612268253405
-0.2431016505175243
-0.2431016505175243
-0.2431016505175243
-0.2431016505175243
-0.2431016505175243
-0.24925612268253405
-0.2369471783525424
-0.2431016505175243
-0.24925612268253405
-0.24925612268253405
-0.24925612268253405
-0.24925612268253405
-0.2431016505175243
-0.2431016505175243
-0.2431016505175243
-0.2369471783525424
-0.2431016505175243
-0.2369471783525424
-0.2431016505175243
-0.24925612268253405
-0.2554105948475438
-0.23079270618753256
-0.2061748175275213
-0.15078456804251686
-0.08923984639250257
-0.04615854123751762
-0.01538618041249662
-0.05231301340249961
-0.13232115154751534
-0.23079270618753256
-0.31695531649755804
-0.3415732051575415
-0.3415732051575415
-0.32310978866254003
-0.30464637216753854
-0.28618295567253704
-0.2738740113425453
-0.2554105948475438
-0.2554105948475438
-0.2431016505175243
-0.2431016505175243
-0.24925612268253405
-0.2431016505175243
-0.2369471783525424
-0.2369471783525424
-0.2431016505175243
-0.2369471783525424
-0.2369471783525424
-0.2369471783525424
-0.2431016505175243
-0.2431016505175243
-0.2431016505175243
-0.2369471783525424
-0.2369471783525424
-0.2431016505175243
-0.2431016505175243
-0.2369471783525424
-0.2369471783525424
-0.2369471783525424
-0.2369471783525424
-0.23079270618753256
-0.23079270618753256
-0.2369471783525424
-0.2246382340225228
-0.2246382340225228
-0.2246382340225228
-0.23079270618753256
-0.2246382340225228
-0.2246382340225228
-0.2184837618575408
-0.2184837618575408
-0.2184837618575408
-0.2184837618575408
-0.2246382340225228
-0.2184837618575408
-0.21232928969253104
-0.21232928969253104
-0.2061748175275213
-0.2061748175275213
-0.21232928969253104
-0.2061748175275213
-0.2000203453625393
-0.2061748175275213
-0.2000203453625393
-0.2061748175275213
-0.2000203453625393
-0.2061748175275213
-0.1938658731975296
-0.18771140103251985
-0.18771140103251985
-0.1938658731975296
-0.1938658731975296
-0.1938658731975296
-0.18771140103251985
-0.1938658731975296
-0.2061748175275213
-0.2000203453625393
-0.1938658731975296
-0.2000203453625393
-0.2000203453625393
-0.21232928969253104
-0.21232928969253104
-0.21232928969253104
-0.2184837618575408
-0.2246382340225228
-0.23079270618753256
-0.23079270618753256
-0.23079270618753256
-0.2369471783525424
-0.2431016505175243
-0.24925612268253405
-0.24925612268253405
-0.24925612268253405
-0.24925612268253405
-0.2431016505175243
-0.24925612268253405
-0.24925612268253405
-0.2554105948475438
-0.24925612268253405
-0.24925612268253405
-0.24925612268253405
-0.24925612268253405
-0.2554105948475438
-0.2554105948475438
-0.24925612268253405
-0.24925612268253405
-0.24925612268253405
-0.2554105948475438
-0.24925612268253405
-0.2554105948475438
-0.2554105948475438
-0.2554105948475438
-0.2554105948475438
-0.24925612268253405
-0.24925612268253405
-0.24925612268253405
-0.2554105948475438
-0.24925612268253405
-0.2431016505175243
-0.24925612268253405
-0.2431016505175243
-0.2431016505175243
-0.2431016505175243
-0.24925612268253405
-0.2431016505175243
-0.24925612268253405
-0.2431016505175243
-0.24925612268253405
-0.2554105948475438
-0.24925612268253405
-0.24925612268253405
-0.24925612268253405
-0.26156506701252585
-0.2554105948475438
-0.26156506701252585
-0.26156506701252585
-0.2554105948475438
-0.2554105948475438
-0.26156506701252585
-0.26156506701252585
-0.26156506701252585
-0.26156506701252585
-0.26156506701252585
-0.26156506701252585
-0.26771953917753555
-0.26771953917753555
-0.26156506701252585
-0.2554105948475438
-0.26156506701252585
-0.26156506701252585
-0.26771953917753555
-0.26156506701252585
-0.26771953917753555
-0.26771953917753555
-0.26771953917753555
-0.26156506701252585
-0.26771953917753555
-0.26771953917753555
-0.26771953917753555
-0.2738740113425453
-0.2738740113425453
-0.26771953917753555
-0.26771953917753555
-0.26771953917753555
-0.26771953917753555
-0.2738740113425453
-0.2738740113425453
-0.26771953917753555
-0.26156506701252585
-0.26771953917753555
-0.26771953917753555
-0.2738740113425453
-0.26771953917753555
-0.2738740113425453
-0.2738740113425453
-0.2738740113425453
-0.2738740113425453
-0.26771953917753555
-0.26771953917753555
-0.26771953917753555
-0.26771953917753555
-0.2738740113425453
-0.2738740113425453
-0.26771953917753555
-0.2738740113425453
-0.26771953917753555
-0.26771953917753555
-0.26771953917753555
-0.2800284835075273
-0.26156506701252585
-0.26156506701252585
-0.26771953917753555
-0.2738740113425453
-0.2738740113425453
-0.29233742783754685
-0.28618295567253704
-0.26771953917753555
-0.26771953917753555
-0.2738740113425453
-0.2738740113425453
-0.26156506701252585
-0.2738740113425453
-0.2738740113425453
-0.2738740113425453
-0.2738740113425453
-0.26771953917753555
-0.2738740113425453
-0.26771953917753555
-0.26156506701252585
-0.26156506701252585
-0.26771953917753555
-0.26156506701252585
-0.26771953917753555
-0.26771953917753555
-0.26156506701252585
-0.26771953917753555
-0.26156506701252585
-0.26156506701252585
-0.2554105948475438
-0.26156506701252585
-0.26156506701252585
-0.2554105948475438
-0.26156506701252585
-0.2554105948475438
-0.26156506701252585
-0.2554105948475438
-0.26156506701252585
-0.26156506701252585
-0.26156506701252585
-0.26156506701252585
-0.26156506701252585
-0.2431016505175243
-0.2431016505175243
-0.24925612268253405
-0.24925612268253405
-0.2554105948475438
-0.2554105948475438
-0.2554105948475438
-0.24925612268253405
-0.2554105948475438
-0.24925612268253405
-0.2431016505175243
-0.24925612268253405
-0.2554105948475438
-0.24925612268253405
-0.2431016505175243
-0.24925612268253405
-0.2554105948475438
-0.2554105948475438
-0.26156506701252585
-0.26156506701252585
-0.24925612268253405
-0.2184837618575408
-0.16309351237253633
-0.1015487907225221
-0.04615854123751762
-0.033849596907498114
-0.05846748556750937
-0.14463009587750708
-0.24925612268253405
-0.3292642608275498
-0.36619109381755277
-0.34772767732255133
-0.33541873299255964
-0.3108008443325483
-0.30464637216753854
-0.29233742783754685
-0.2738740113425453
-0.26156506701252585
-0.2554105948475438
-0.24925612268253405
-0.2554105948475438
-0.24925612268253405
-0.2431016505175243
-0.24925612268253405
-0.2369471783525424
-0.2369471783525424
-0.2431016505175243
-0.2431016505175243
-0.2369471783525424
-0.2369471783525424
-0.2369471783525424
-0.2431016505175243
-0.2369471783525424
-0.2369471783525424
-0.2369471783525424
-0.23079270618753256
-0.2369471783525424
-0.2369471783525424
-0.23079270618753256
-0.23079270618753256
-0.2246382340225228
-0.23079270618753256
-0.23079270618753256
-0.2246382340225228
-0.23079270618753256
-0.2246382340225228
-0.2246382340225228
-0.2246382340225228
-0.2246382340225228
-0.2184837618575408
-0.2184837618575408
-0.2246382340225228
-0.2184837618575408
-0.2184837618575408
-0.2184837618575408
-0.2061748175275213
-0.2061748175275213
-0.2061748175275213
-0.2061748175275213
-0.2246382340225228
-0.2000203453625393
-0.2000203453625393
-0.1938658731975296
-0.2061748175275213
-0.2061748175275213
-0.1938658731975296
-0.18771140103251985
-0.1938658731975296
-0.1938658731975296
-0.18771140103251985
-0.18771140103251985
-0.18771140103251985
-0.18155692886753785
-0.18771140103251985
-0.18771140103251985
-0.18771140103251985
-0.18155692886753785
-0.1938658731975296
-0.2000203453625393
-0.1938658731975296
-0.2000203453625393
-0.2061748175275213
-0.21232928969253104
-0.2246382340225228
-0.2246382340225228
-0.2369471783525424
-0.2431016505175243
-0.2431016505175243
-0.2369471783525424
-0.24925612268253405
-0.2431016505175243
-0.2554105948475438
-0.2554105948475438
-0.2554105948475438
-0.2554105948475438
-0.2554105948475438
-0.24925612268253405
-0.2554105948475438
-0.2554105948475438
-0.2554105948475438
-0.24925612268253405
-0.2554105948475438
-0.2554105948475438
-0.2554105948475438
-0.24925612268253405
-0.2554105948475438
-0.24925612268253405
-0.2554105948475438
-0.2554105948475438
-0.2554105948475438
-0.2554105948475438
-0.26156506701252585
-0.2554105948475438
-0.2554105948475438
-0.24925612268253405
-0.24925612268253405
-0.2431016505175243
-0.2431016505175243
-0.24925612268253405
-0.2431016505175243
-0.2431016505175243
-0.2431016505175243
-0.24925612268253405
-0.24925612268253405
-0.24925612268253405
-0.24925612268253405
-0.2431016505175243
-0.2554105948475438
-0.2554105948475438
-0.24925612268253405
-0.24925612268253405
-0.24925612268253405
-0.2554105948475438
-0.2554105948475438
-0.2554105948475438
-0.26156506701252585
-0.24925612268253405
-0.26156506701252585
-0.2554105948475438
-0.2554105948475438
-0.2554105948475438
-0.2554105948475438
-0.2554105948475438
-0.2554105948475438
-0.2554105948475438
-0.24925612268253405
-0.24925612268253405
-0.2554105948475438
-0.2554105948475438
-0.24925612268253405
-0.2554105948475438
-0.24925612268253405
-0.2554105948475438
-0.24925612268253405
-0.2554105948475438
-0.2554105948475438
-0.24925612268253405
-0.24925612268253405
-0.26156506701252585
-0.2554105948475438
-0.26156506701252585
-0.26156506701252585
-0.24925612268253405
-0.2554105948475438
-0.24925612268253405
-0.2554105948475438
-0.2554105948475438
-0.2554105948475438
-0.24925612268253405
-0.24925612268253405
-0.2554105948475438
-0.2554105948475438
-0.24925612268253405
-0.24925612268253405
-0.2554105948475438
-0.24925612268253405
-0.24925612268253405
-0.24925612268253405
-0.24925612268253405
-0.2431016505175243
-0.2554105948475438
-0.2738740113425453
-0.24925612268253405
-0.24925612268253405
-0.2431016505175243
-0.2431016505175243
-0.24925612268253405
-0.2369471783525424
-0.2369471783525424
-0.2369471783525424
-0.2431016505175243
-0.2431016505175243
-0.2431016505175243
-0.2431016505175243
-0.2431016505175243
-0.2369471783525424
-0.2369471783525424
-0.2431016505175243
-0.2431016505175243
-0.2431016505175243
-0.2369471783525424
-0.26771953917753555
-0.433890287632549
-0.538516314437576
-0.575443147427579
-0.5815976195925888
-0.5569797309325777
-0.6062155082525723
-0.5877520917575707
-0.575443147427579
-0.5077439536125827
-0.5138984257775646
-0.5815976195925888
-0.4831260649525715
-0.42158134330255725
-0.4523537041275505
-0.40311792680755576
-0.390808982477564
-0.36619109381755277
-0.34772767732255133
-0.32310978866254003
-0.29233742783754685
-0.2431016505175243
-0.2738740113425453
-0.2431016505175243
-0.2369471783525424
-0.2431016505175243
-0.2738740113425453
-0.26771953917753555
-0.26156506701252585
-0.26771953917753555
-0.3415732051575415
-0.32310978866254003
-0.32310978866254003
-0.36619109381755277
-0.35388214948756086
-0.360036621652543
-0.35388214948756086
-0.360036621652543
-0.47697159278756174
-0.45850817629256013
-0.3723455659825625
-0.32310978866254003
-0.47697159278756174
-0.8770122835126126
-0.15693904020752658
-0.12001220721752358
-0.30464637216753854
-0.2738740113425453
-0.28618295567253704
-0.29233742783754685
-0.26156506701252585
-0.2738740113425453
-0.28618295567253704
-0.33541873299255964
-0.44619923196256844
-0.46466264845757
-0.49543500928256323
-0.4708171206225797
-0.46466264845757
-0.4523537041275505
-0.37850003814754446
0.18155692886753785
-0.6308333969125834
-0.5877520917575707
-0.5815976195925888
-0.575443147427579
-0.5323618422725662
-0.4708171206225797
-0.40927239897256545
-0.575443147427579
-0.6185244525825918
-0.40927239897256545
-0.35388214948756086
-0.360036621652543
-0.3292642608275498
-0.34772767732255133
-0.396963454642546
-0.4400447597975588
-0.6062155082525723
-0.6492968134075847
-0.6677602299025862
-0.6308333969125834
-0.6123699804175823
-0.5815976195925888
-0.5262073701075842
-0.5077439536125827
-0.6000610360875902
-0.6492968134075847
-0.7293049515526008
-0.7600773123775938
-0.7539228402126119
-0.7354594237176102
-0.6985325907276074
-0.6985325907276074
-0.7539228402126119
-0.7539228402126119
-0.7600773123775938
-0.7539228402126119
-0.7600773123775938
-0.6862236463975879
-0.5569797309325777
-0.33541873299255964
0.13232115154751534
-0.5692886752625692
-0.35388214948756086
-0.2738740113425453
-0.2738740113425453
-0.2738740113425453
-0.2554105948475438
-0.5323618422725662
-0.5446707866025856
-0.33541873299255964
-0.2554105948475438
-0.26156506701252585
-0.2984919000025288
-0.31695531649755804
-0.36619109381755277
-0.44619923196256844
-0.5692886752625692
-0.6000610360875902
-0.6369878690775933
-0.6923781185625978
-0.6985325907276074
-0.6862236463975879
-0.6554512855725947
-0.6369878690775933
-0.6308333969125834
-0.6123699804175823
-0.6000610360875902
-0.5877520917575707
-0.5508252587675677
-0.575443147427579
-0.5015894814475731
-0.5200528979425745
-0.5138984257775646
-0.46466264845757
-0.44619923196256844
-0.44619923196256844
-0.45850817629256013
-0.49543500928256323
-0.4708171206225797
-0.4831260649525715
-0.4892805371175811
-0.4831260649525715
-0.4523537041275505
-0.36619109381755277
-0.2738740113425453
-0.2554105948475438
-0.28618295567253704
-0.34772767732255133
-0.396963454642546
-0.44619923196256844
-0.4892805371175811
-0.5015894814475731
-0.5262073701075842
-0.5200528979425745
-0.4708171206225797
-0.427735815467567
-0.35388214948756086
-0.2246382340225228
-0.15693904020752658
-0.11385773505251384
-0.07693090206251085
-0.16309351237253633
-0.2554105948475438
-0.6246789247476012
0.08308537422752059
0.1384756237125251
-0.02154065257750637
-0.04615854123751762
-0.09539431855751236
-0.18155692886753785
-0.2061748175275213
-0.32310978866254003
-0.32310978866254003
-0.2369471783525424
-0.1938658731975296
-0.21232928969253104
-0.23079270618753256
-0.2554105948475438
-0.29233742783754685
-0.360036621652543
-0.3415732051575415
-0.3723455659825625
-0.390808982477564
-0.40927239897256545
-0.3846545103125543
-0.33541873299255964
-0.2800284835075273
-0.33541873299255964
-0.06462195773251911
0.0707764298975011
-0.13232115154751534
-0.1938658731975296
-0.16309351237253633
-0.1384756237125251
0.15078456804251686
-0.2246382340225228
-0.46466264845757
-0.3108008443325483
-0.3292642608275498
-0.3292642608275498
-0.3415732051575415
-0.36619109381755277
-0.28618295567253704
-0.575443147427579
-0.7539228402126119
-0.538516314437576
-0.46466264845757
-0.4708171206225797
-0.5200528979425745
-0.5692886752625692
-0.575443147427579
-0.7046870628925892
-0.7354594237176102
-0.7662317845426038
-0.7477683680476023
-0.7600773123775938
-0.7846952010376053
-0.7416138958825924
-0.433890287632549
-0.37850003814754446
-0.5138984257775646
-0.31695531649755804
0.02769512474251612
-0.5446707866025856
-0.396963454642546
-0.3723455659825625
-0.40927239897256545
-0.7169960072226089
-0.5815976195925888
-0.4708171206225797
-0.390808982477564
-0.360036621652543
-0.36619109381755277
-0.5015894814475731
-0.538516314437576
-0.47697159278756174
-0.427735815467567
-0.4400447597975588
-0.433890287632549
-0.427735815467567
-0.4831260649525715
-0.5262073701075842
-0.5446707866025856
-0.6800691742326057
-0.7108415350575992
-0.7785407288726233
-0.7970041453676248
-0.7846952010376053
-0.7354594237176102
-0.7477683680476023
-0.7231504793875909
-0.7970041453676248
-0.8031586175326066
-0.8154675618626261
-0.8400854505226096
-0.8708578113476306
-0.889321227842632
-0.8770122835126126
-0.8400854505226096
-0.9262480608326351
-0.9324025329976448
-0.9508659494926462
-0.9324025329976448
-0.8462399226876194
-0.8216220340276081
-0.7970041453676248
-0.7108415350575992
-0.7354594237176102
-0.6739147020675963
-0.6431423412426027
-0.6554512855725947
-0.6431423412426027
-0.6000610360875902
-0.5569797309325777
-0.49543500928256323
-0.575443147427579
-0.5508252587675677
-0.5631342030975872
-0.4831260649525715
-0.5508252587675677
-0.5508252587675677
-0.5262073701075842
-0.46466264845757
-0.5446707866025856
-0.6369878690775933
-1.0308740876376343
-0.3108008443325483
-0.24925612268253405
-0.37850003814754446
-0.390808982477564
-0.3108008443325483
-0.44619923196256844
-0.44619923196256844
-0.4523537041275505
-0.47697159278756174
-0.4831260649525715
-0.47697159278756174
-0.4400447597975588
-0.34772767732255133
-0.3846545103125543
-0.433890287632549
-0.4523537041275505
-0.40927239897256545
-0.4523537041275505
-0.47697159278756174
-0.45850817629256013
-0.4154268711375475
-0.46466264845757
-0.36619109381755277
-0.36619109381755277
-0.396963454642546
-0.427735815467567
-0.4523537041275505
-0.47697159278756174
-0.4154268711375475
-0.6000610360875902
-0.5939065639225805
-0.5323618422725662
-0.44619923196256844
-0.3108008443325483
-0.2184837618575408
-0.2061748175275213
-0.16309351237253633
-0.24925612268253405
-0.35388214948756086
-0.427735815467567
-0.4400447597975588
-0.4400447597975588
-0.40927239897256545
-0.3108008443325483
-0.2000203453625393
-0.30464637216753854
-0.30464637216753854
-0.3292642608275498
-0.40311792680755576
-0.4523537041275505
-0.4523537041275505
-0.4831260649525715
-0.5015894814475731
-0.6616057577376044
-0.5323618422725662
-0.44619923196256844
-0.3723455659825625
-0.08923984639250257
0.37850003814754446
-0.35388214948756086
-0.44619923196256844
-0.6431423412426027
-0.45850817629256013
-0.390808982477564
-0.3723455659825625
-0.3415732051575415
-0.35388214948756086
-0.23079270618753256
-0.15693904020752658
-0.30464637216753854
-0.29233742783754685
-0.2984919000025288
-0.2738740113425453
-0.2554105948475438
-0.2554105948475438
-0.2061748175275213
-0.10770326288750408
-0.2184837618575408
-0.15693904020752658
-0.15078456804251686
-0.1692479845375183
-0.17540245670252808
-0.1692479845375183
-0.17540245670252808
-0.14463009587750708
-0.17540245670252808
-0.15078456804251686
-0.14463009587750708
-0.11385773505251384
-0.08308537422752059
-0.08308537422752059
-0.009231708247514623
0.5262073701075842
-0.5015894814475731
0.1692479845375183
0.1938658731975296
0.11385773505251384
0.11385773505251384
0.05846748556750937
0.11385773505251384
0.003077236082504875
-0.06462195773251911
0.09539431855751236
0.09539431855751236
0.05846748556750937
0.033849596907498114
-0.003077236082504875
-0.009231708247514623
-0.033849596907498114
-0.15078456804251686
-0.17540245670252808
-0.13232115154751534
-0.02154065257750637
0.02154065257750637
0.05231301340249961
0.1015487907225221
0.14463009587750708
0.04615854123751762
0.08308537422752059
0.12001220721752358
0.18155692886753785
0.2184837618575408
0.26156506701252585
0.30464637216753854
0.2984919000025288
0.2369471783525424
0.1692479845375183
0.08923984639250257
0.05231301340249961
-0.04000406907250786
-0.0707764298975011
-0.07693090206251085
-0.08923984639250257
-0.14463009587750708
-0.12001220721752358
-0.10770326288750408
-0.09539431855751236
-0.07693090206251085
-0.04000406907250786
-0.009231708247514623
-0.033849596907498114
-0.0707764298975011
-0.04000406907250786
-0.05846748556750937
-0.05231301340249961
-0.08308537422752059
-0.09539431855751236
-0.05231301340249961
-0.02769512474251612
-0.02769512474251612
0.003077236082504875
0.033849596907498114
0.10770326288750408
0.1692479845375183
0.17540245670252808
-0.1015487907225221
0.2184837618575408
0.5815976195925888
0.396963454642546
0.3723455659825625
0.3846545103125543
0.40311792680755576
0.40311792680755576
0.42158134330255725
0.433890287632549
0.4154268711375475
0.433890287632549
0.4400447597975588
0.4400447597975588
0.433890287632549
0.427735815467567
0.433890287632549
0.4154268711375475
0.42158134330255725
0.4154268711375475
0.40927239897256545
0.40927239897256545
0.40311792680755576
0.3846545103125543
0.390808982477564
0.31695531649755804
0.33541873299255964
0.3415732051575415
0.3292642608275498
0.3292642608275498
0.3108008443325483
0.30464637216753854
0.29233742783754685
0.2738740113425453
0.2738740113425453
0.26156506701252585
0.2554105948475438
0.24925612268253405
0.2431016505175243
0.2431016505175243
0.23079270618753256
0.2184837618575408
0.21232928969253104
0.21232928969253104
0.2061748175275213
0.2000203453625393
0.1938658731975296
0.18771140103251985
0.17540245670252808
0.1692479845375183
0.1692479845375183
0.15693904020752658
0.15078456804251686
0.14463009587750708
0.14463009587750708
0.14463009587750708
0.1384756237125251
0.1261666793825056
0.12001220721752358
0.12001220721752358
0.11385773505251384
0.11385773505251384
0.10770326288750408
0.09539431855751236
0.08308537422752059
0.08923984639250257
0.08923984639250257
0.07693090206251085
0.0707764298975011
0.06462195773251911
0.05846748556750937
0.05846748556750937
0.05231301340249961
0.04615854123751762
0.05846748556750937
0.05231301340249961
0.04000406907250786
0.04000406907250786
0.02769512474251612
0.02769512474251612
0.01538618041249662
0.009231708247514623
0.009231708247514623
0.003077236082504875
-0.003077236082504875
-0.009231708247514623
-0.009231708247514623
-0.01538618041249662
-0.003077236082504875
-0.01538618041249662
-0.033849596907498114
-0.04000406907250786
-0.05231301340249961
-0.05231301340249961
-0.04000406907250786
-0.009231708247514623
0.04615854123751762
0.08923984639250257
0.13232115154751534
0.15078456804251686
0.12001220721752358
0.04000406907250786
-0.05846748556750937
-0.1384756237125251
-0.18155692886753785
-0.1692479845375183
-0.15078456804251686
-0.14463009587750708
-0.13232115154751534
-0.12001220721752358
-0.1015487907225221
-0.09539431855751236
-0.09539431855751236
-0.09539431855751236
-0.09539431855751236
-0.09539431855751236
-0.1015487907225221
-0.09539431855751236
-0.09539431855751236
-0.1015487907225221
-0.09539431855751236
-0.1015487907225221
-0.09539431855751236
-0.09539431855751236
-0.1015487907225221
-0.1015487907225221
-0.1015487907225221
-0.1015487907225221
-0.10770326288750408
-0.11385773505251384
-0.10770326288750408
-0.11385773505251384
-0.11385773505251384
-0.11385773505251384
-0.11385773505251384
-0.11385773505251384
-0.11385773505251384
-0.1261666793825056
-0.12001220721752358
-0.1261666793825056
-0.1261666793825056
-0.12001220721752358
-0.1261666793825056
-0.12001220721752358
-0.12001220721752358
-0.12001220721752358
-0.13232115154751534
-0.1384756237125251
-0.12001220721752358
-0.12001220721752358
-0.12001220721752358
-0.12001220721752358
-0.1261666793825056
-0.1384756237125251
-0.13232115154751534
-0.13232115154751534
-0.13232115154751534
-0.1261666793825056
-0.1261666793825056
-0.12001220721752358
-0.1261666793825056
-0.1261666793825056
-0.12001220721752358
-0.12001220721752358
-0.12001220721752358
-0.11385773505251384
-0.12001220721752358
-0.12001220721752358
-0.11385773505251384
-0.1261666793825056
-0.1261666793825056
-0.13232115154751534
-0.13232115154751534
-0.13232115154751534
-0.1384756237125251
-0.14463009587750708
-0.15693904020752658
-0.16309351237253633
-0.15693904020752658
-0.1692479845375183
-0.1692479845375183
-0.1692479845375183
-0.18155692886753785
-0.18771140103251985
-0.18155692886753785
-0.18771140103251985
-0.18771140103251985
-0.18771140103251985
-0.18771140103251985
-0.18155692886753785
-0.18155692886753785
-0.18155692886753785
-0.18155692886753785
-0.18771140103251985
-0.18771140103251985
-0.18155692886753785
-0.18771140103251985
-0.18771140103251985
-0.18771140103251985
-0.18771140103251985
-0.1938658731975296
-0.1938658731975296
-0.18771140103251985
-0.18771140103251985
-0.1938658731975296
-0.2000203453625393
-0.2000203453625393
-0.2000203453625393
-0.2000203453625393
-0.1938658731975296
-0.1938658731975296
-0.18771140103251985
-0.1938658731975296
-0.2000203453625393
-0.2000203453625393
-0.2000203453625393
-0.1938658731975296
-0.1938658731975296
-0.1938658731975296
-0.1938658731975296
-0.1938658731975296
-0.2000203453625393
-0.1938658731975296
-0.1938658731975296
-0.2000203453625393
-0.2061748175275213
-0.2061748175275213
-0.21232928969253104
-0.2061748175275213
-0.2061748175275213
-0.2061748175275213
-0.2000203453625393
-0.2061748175275213
-0.2061748175275213
-0.2061748175275213
-0.2061748175275213
-0.2061748175275213
-0.21232928969253104
-0.21232928969253104
-0.2061748175275213
-0.21232928969253104
-0.2061748175275213
-0.2061748175275213
-0.21232928969253104
-0.21232928969253104
-0.21232928969253104
-0.21232928969253104
-0.21232928969253104
-0.2184837618575408
-0.21232928969253104
-0.2184837618575408
-0.2184837618575408
-0.2061748175275213
-0.21232928969253104
-0.21232928969253104
-0.21232928969253104
-0.23079270618753256
-0.2184837618575408
-0.21232928969253104
-0.21232928969253104
-0.21232928969253104
-0.21232928969253104
-0.21232928969253104
-0.21232928969253104
-0.2246382340225228
-0.23079270618753256
-0.23079270618753256
-0.23079270618753256
-0.23079270618753256
-0.23079270618753256
-0.21232928969253104
-0.21232928969253104
-0.2246382340225228
-0.2184837618575408
-0.23079270618753256
-0.2369471783525424
-0.23079270618753256
-0.2246382340225228
-0.2246382340225228
-0.2246382340225228
-0.23079270618753256
-0.23079270618753256
-0.2246382340225228
-0.23079270618753256
-0.23079270618753256
-0.23079270618753256
-0.23079270618753256
-0.23079270618753256
-0.2369471783525424
-0.2369471783525424
-0.23079270618753256
-0.23079270618753256
-0.23079270618753256
-0.23079270618753256
-0.2369471783525424
-0.2369471783525424
-0.2369471783525424
-0.23079270618753256
-0.2369471783525424
-0.2369471783525424
-0.2369471783525424
-0.23079270618753256
-0.23079270618753256
-0.23079270618753256
-0.2369471783525424
-0.2369471783525424
-0.23079270618753256
-0.2369471783525424
-0.23079270618753256
-0.2369471783525424
-0.23079270618753256
-0.2246382340225228
-0.2184837618575408
-0.2246382340225228
-0.2246382340225228
-0.2246382340225228
-0.23079270618753256
-0.23079270618753256
-0.2431016505175243
-0.2431016505175243
-0.2431016505175243
-0.2431016505175243
-0.2431016505175243
-0.2246382340225228
-0.2246382340225228
-0.2246382340225228
-0.2246382340225228
-0.23079270618753256
-0.23079270618753256
-0.23079270618753256
-0.23079270618753256
-0.23079270618753256
-0.23079270618753256
-0.2369471783525424
-0.2369471783525424
-0.23079270618753256
-0.2369471783525424
-0.23079270618753256
-0.23079270618753256
-0.2431016505175243
-0.2431016505175243
-0.24925612268253405
-0.24925612268253405
-0.2369471783525424
-0.2000203453625393
-0.15078456804251686
-0.1015487907225221
-0.04000406907250786
-0.02154065257750637
-0.04615854123751762
-0.12001220721752358
-0.2246382340225228
-0.31695531649755804
-0.34772767732255133
-0.3415732051575415
-0.31695531649755804
-0.2984919000025288
-0.29233742783754685
-0.2738740113425453
-0.2554105948475438
-0.2431016505175243
-0.2431016505175243
-0.2369471783525424
-0.2431016505175243
-0.2369471783525424
-0.2369471783525424
-0.2246382340225228
-0.2246382340225228
-0.23079270618753256
-0.23079270618753256
-0.2246382340225228
-0.2246382340225228
-0.2246382340225228
-0.2246382340225228
-0.23079270618753256
-0.2246382340225228
-0.2246382340225228
-0.2246382340225228
-0.23079270618753256
-0.2246382340225228
-0.2246382340225228
-0.2246382340225228
-0.2246382340225228
-0.23079270618753256
-0.2246382340225228
-0.23079270618753256
-0.2246382340225228
-0.2184837618575408
-0.2246382340225228
-0.2246382340225228
-0.2246382340225228
-0.2369471783525424
-0.23079270618753256
-0.2246382340225228
-0.2184837618575408
-0.2246382340225228
-0.2184837618575408
-0.2184837618575408
-0.21232928969253104
-0.21232928969253104
-0.21232928969253104
-0.21232928969253104
-0.21232928969253104
-0.21232928969253104
-0.21232928969253104
-0.21232928969253104
-0.2061748175275213
-0.2000203453625393
-0.2061748175275213
-0.2061748175275213
-0.2000203453625393
-0.1938658731975296
-0.2000203453625393
-0.1938658731975296
-0.2000203453625393
-0.1938658731975296
-0.1938658731975296
-0.1938658731975296
-0.2000203453625393
-0.2000203453625393
-0.1938658731975296
-0.2000203453625393
-0.21232928969253104
-0.2184837618575408
-0.2184837618575408
-0.23079270618753256
-0.23079270618753256
-0.2369471783525424
-0.2431016505175243
-0.2369471783525424
-0.2369471783525424
-0.2431016505175243
-0.2554105948475438
-0.24925612268253405
-0.24925612268253405
-0.24925612268253405
-0.24925612268253405
-0.2554105948475438
-0.2554105948475438
-0.2554105948475438
-0.24925612268253405
-0.2554105948475438
-0.24925612268253405
-0.2554105948475438
-0.2554105948475438
-0.24925612268253405
-0.24925612268253405
-0.24925612268253405
-0.24925612268253405
-0.24925612268253405
-0.2554105948475438
-0.2554105948475438
-0.24925612268253405
-0.24925612268253405
-0.24925612268253405
-0.2431016505175243
-0.2431016505175243
-0.2431016505175243
-0.24925612268253405
-0.2431016505175243
-0.24925612268253405
-0.2431016505175243
-0.2431016505175243
-0.2431016505175243
-0.2369471783525424
-0.2431016505175243
-0.2431016505175243
-0.2369471783525424
-0.2369471783525424
-0.2431016505175243
-0.24925612268253405
-0.24925612268253405
-0.2431016505175243
-0.24925612268253405
-0.2431016505175243
-0.2554105948475438
-0.24925612268253405
-0.24925612268253405
-0.2554105948475438
-0.2554105948475438
-0.2554105948475438
-0.24925612268253405
-0.2554105948475438
-0.24925612268253405
-0.2554105948475438
-0.24925612268253405
-0.24925612268253405
-0.26156506701252585
-0.26156506701252585
-0.2554105948475438
-0.2554105948475438
-0.2554105948475438
-0.24925612268253405
-0.24925612268253405
-0.24925612268253405
-0.2431016505175243
-0.2431016505175243
-0.24925612268253405
-0.2369471783525424
-0.2431016505175243
-0.2431016505175243
-0.2369471783525424
-0.2369471783525424
-0.2369471783525424
-0.2431016505175243
-0.2431016505175243
-0.2431016505175243
-0.2369471783525424
-0.2431016505175243
-0.2431016505175243
-0.2431016505175243
-0.2431016505175243
-0.2431016505175243
-0.2554105948475438
-0.2369471783525424
-0.2431016505175243
-0.2431016505175243
-0.2431016505175243
-0.2369471783525424
-0.2431016505175243
-0.2554105948475438
-0.2554105948475438
-0.2431016505175243
-0.2431016505175243
-0.2431016505175243
-0.2554105948475438
-0.2554105948475438
-0.24925612268253405
-0.2369471783525424
-0.2369471783525424
-0.2369471783525424
-0.2369471783525424
-0.23079270618753256
-0.2369471783525424
-0.23079270618753256
-0.2246382340225228
-0.2246382340225228
-0.2184837618575408
-0.2246382340225228
-0.2246382340225228
-0.2184837618575408
-0.2184837618575408
-0.2184837618575408
-0.23079270618753256
-0.2184837618575408
-0.2184837618575408
-0.2246382340225228
-0.2184837618575408
-0.2246382340225228
-0.2246382340225228
-0.2246382340225228
-0.2246382340225228
-0.2184837618575408
-0.2184837618575408
-0.2246382340225228
-0.2184837618575408
-0.2246382340225228
-0.2184837618575408
-0.2184837618575408
-0.2184837618575408
-0.2246382340225228
-0.2184837618575408
-0.2184837618575408
-0.2184837618575408
-0.2246382340225228
-0.2246382340225228
-0.23079270618753256
-0.23079270618753256
-0.2369471783525424
-0.23079270618753256
-0.2246382340225228
-0.23079270618753256
-0.23079270618753256
-0.23079270618753256
-0.2369471783525424
-0.24925612268253405
-0.2431016505175243
-0.23079270618753256
-0.2369471783525424
-0.2246382340225228
-0.2246382340225228
-0.23079270618753256
-0.23079270618753256
-0.2431016505175243
-0.24925612268253405
-0.2431016505175243
-0.2369471783525424
-0.2431016505175243
-0.2554105948475438
-0.2554105948475438
-0.23079270618753256
-0.1938658731975296
-0.13232115154751534
-0.08308537422752059
-0.02769512474251612
-0.01538618041249662
-0.05846748556750937
-0.15078456804251686
-0.2554105948475438
-0.3292642608275498
-0.3415732051575415
-0.3292642608275498
-0.3108008443325483
-0.2984919000025288
-0.28618295567253704
-0.26771953917753555
-0.24925612268253405
-0.2431016505175243
-0.2369471783525424
-0.23079270618753256
-0.23079270618753256
-0.23079270618753256
-0.2246382340225228
-0.23079270618753256
-0.2246382340225228
-0.2246382340225228
-0.2246382340225228
-0.2184837618575408
-0.2246382340225228
-0.2246382340225228
-0.2246382340225228
-0.2246382340225228
-0.2246382340225228
-0.2184837618575408
-0.2184837618575408
-0.2246382340225228
-0.2246382340225228
-0.2184837618575408
-0.2184837618575408
-0.21232928969253104
-0.2184837618575408
-0.21232928969253104
-0.2061748175275213
-0.2061748175275213
-0.21232928969253104
-0.23079270618753256
-0.2061748175275213
-0.2000203453625393
-0.2061748175275213
-0.2184837618575408
-0.2184837618575408
-0.2061748175275213
-0.21232928969253104
-0.2061748175275213
-0.2061748175275213
-0.2061748175275213
-0.2000203453625393
-0.2000203453625393
-0.1938658731975296
-0.18771140103251985
-0.1938658731975296
-0.18771140103251985
-0.18771140103251985
-0.18771140103251985
-0.18771140103251985
-0.1938658731975296
-0.18155692886753785
-0.18155692886753785
-0.18155692886753785
-0.18155692886753785
-0.18155692886753785
-0.18155692886753785
-0.18155692886753785
-0.17540245670252808
-0.18155692886753785
-0.17540245670252808
-0.18155692886753785
-0.18155692886753785
-0.18771140103251985
-0.2000203453625393
-0.2000203453625393
-0.21232928969253104
-0.2184837618575408
-0.21232928969253104
-0.2184837618575408
-0.2246382340225228
-0.2246382340225228
-0.2369471783525424
-0.23079270618753256
-0.2431016505175243
-0.2431016505175243
-0.2431016505175243
-0.2431016505175243
-0.2369471783525424
-0.2431016505175243
-0.2431016505175243
-0.2369471783525424
-0.2369471783525424
-0.2369471783525424
-0.2431016505175243
-0.2431016505175243
-0.2369471783525424
-0.2431016505175243
-0.2369471783525424
-0.23079270618753256
-0.2246382340225228
-0.2369471783525424
-0.23079270618753256
-0.23079270618753256
-0.2369471783525424
-0.2369471783525424
-0.2369471783525424
-0.2369471783525424
-0.23079270618753256
-0.23079270618753256
-0.23079270618753256
-0.23079270618753256
-0.23079270618753256
-0.2246382340225228
-0.23079270618753256
-0.23079270618753256
-0.2246382340225228
-0.2246382340225228
-0.23079270618753256
-0.23079270618753256
-0.23079270618753256
-0.2246382340225228
-0.23079270618753256
-0.2246382340225228
-0.2246382340225228
-0.23079270618753256
-0.2246382340225228
-0.23079270618753256
-0.23079270618753256
-0.2369471783525424
-0.2369471783525424
-0.23079270618753256
-0.2369471783525424
-0.2369471783525424
-0.2369471783525424
-0.2369471783525424
-0.23079270618753256
-0.23079270618753256
-0.2369471783525424
-0.2369471783525424
-0.2369471783525424
-0.2369471783525424
-0.2246382340225228
-0.2246382340225228
-0.2246382340225228
-0.2246382340225228
-0.2246382340225228
-0.2246382340225228
-0.23079270618753256
-0.2246382340225228
-0.2246382340225228
-0.2246382340225228
-0.2246382340225228
-0.2246382340225228
-0.23079270618753256
-0.2246382340225228
-0.2246382340225228
-0.2246382340225228
-0.2246382340225228
-0.2184837618575408
-0.2184837618575408
-0.2431016505175243
-0.5692886752625692
-0.7785407288726233
-1.25243508557768
-1.2585895577426898
-1.1539635309376628
-1.000101726812641
-0.8831667556776225
-0.8154675618626261
-0.7046870628925892
-0.29233742783754685
-0.5631342030975872
-0.7600773123775938
-0.6246789247476012
-0.5631342030975872
-0.5939065639225805
-0.5508252587675677
-0.538516314437576
-0.538516314437576
-0.575443147427579
-0.5692886752625692
-0.5446707866025856
-0.5508252587675677
-0.538516314437576
-0.4708171206225797
-0.44619923196256844
-0.390808982477564
-0.45850817629256013
-0.4708171206225797
-0.37850003814754446
-0.36619109381755277
-0.390808982477564
-0.3723455659825625
-0.3415732051575415
-0.2431016505175243
-0.30464637216753854
-0.24925612268253405
-0.2000203453625393
-0.1938658731975296
-0.1692479845375183
-0.18155692886753785
-0.2000203453625393
0.04000406907250786
0.009231708247514623
-0.15693904020752658
-0.18155692886753785
-0.18155692886753785
-0.2000203453625393
-0.2554105948475438
-0.2554105948475438
-0.23079270618753256
-0.32310978866254003
-0.32310978866254003
-0.3292642608275498
-0.36619109381755277
-0.40311792680755576
-0.4400447597975588
-0.6062155082525723
-0.7046870628925892
-0.6123699804175823
-0.5508252587675677
-0.4708171206225797
-0.3846545103125543
-0.427735815467567
-0.7785407288726233
-0.033849596907498114
0.09539431855751236
-0.1384756237125251
-0.1692479845375183
-0.15693904020752658
-0.10770326288750408
-0.08923984639250257
-0.003077236082504875
0.02154065257750637
0.06462195773251911
0.02769512474251612
0.08923984639250257
0.10770326288750408
0.10770326288750408
0.08308537422752059
0.04615854123751762
0.02769512474251612
0.033849596907498114
-0.05846748556750937
0.009231708247514623
-0.01538618041249662
-0.09539431855751236
-0.14463009587750708
-0.21232928969253104
-0.2061748175275213
-0.2061748175275213
-0.31695531649755804
-0.30464637216753854
-0.32310978866254003
-0.31695531649755804
-0.28618295567253704
-0.16309351237253633
-0.003077236082504875
0.2184837618575408
0.2800284835075273
0.36619109381755277
0.3846545103125543
0.44619923196256844
0.4523537041275505
0.40311792680755576
0.360036621652543
0.3292642608275498
0.1015487907225221
0.009231708247514623
-0.08923984639250257
-0.29233742783754685
-0.427735815467567
-0.5077439536125827
-0.5815976195925888
-0.5692886752625692
-0.6185244525825918
-0.5446707866025856
-0.390808982477564
-0.390808982477564
-0.2800284835075273
-0.1938658731975296
-0.11385773505251384
0.17540245670252808
0.538516314437576
-0.10770326288750408
0.033849596907498114
0.0707764298975011
0.15693904020752658
0.26156506701252585
0.33541873299255964
0.1692479845375183
-0.02769512474251612
0.23079270618753256
0.3723455659825625
0.427735815467567
0.5138984257775646
0.6185244525825918
0.7477683680476023
1.363215584547689
0.6062155082525723
0.9200935886676254
1.2770529742376913
1.1355001144426613
1.0124106711426328
0.7600773123775938
0.8093130896976164
0.6554512855725947
0.3846545103125543
0.5015894814475731
0.5015894814475731
0.5077439536125827
0.5077439536125827
0.47697159278756174
0.433890287632549
0.3846545103125543
0.21232928969253104
0.18771140103251985
0.11385773505251384
0.09539431855751236
0.09539431855751236
0.0707764298975011
0.05846748556750937
0.0707764298975011
-0.02154065257750637
-0.04615854123751762
-0.01538618041249662
0.009231708247514623
0.05846748556750937
0.1261666793825056
0.23079270618753256
0.42158134330255725
0.538516314437576
0.7231504793875909
0.7970041453676248
0.7723862567076134
0.6739147020675963
0.5692886752625692
0.49543500928256323
0.433890287632549
0.46466264845757
0.46466264845757
0.396963454642546
0.35388214948756086
0.2554105948475438
0.1938658731975296
0.08308537422752059
-0.13232115154751534
-0.3292642608275498
-0.4892805371175811
-0.6123699804175823
-0.6616057577376044
-0.6492968134075847
-0.6369878690775933
-0.6308333969125834
-0.6369878690775933
-0.6246789247476012
-0.6123699804175823
-0.6062155082525723
-0.6062155082525723
-0.5939065639225805
-0.5939065639225805
-0.5877520917575707
-0.5815976195925888
-0.575443147427579
-0.5692886752625692
-0.5692886752625692
-0.5631342030975872
-0.5569797309325777
-0.5569797309325777
-0.5446707866025856
-0.5508252587675677
-0.5446707866025856
-0.538516314437576
-0.5323618422725662
-0.5262073701075842
-0.5200528979425745
-0.5200528979425745
-0.5138984257775646
-0.5200528979425745
-0.5138984257775646
-0.5077439536125827
-0.5077439536125827
-0.5015894814475731
-0.4892805371175811
-0.4892805371175811
-0.4892805371175811
-0.4831260649525715
-0.47697159278756174
-0.47697159278756174
-0.47697159278756174
-0.4708171206225797
-0.4708171206225797
-0.45850817629256013
-0.45850817629256013
-0.4523537041275505
-0.45850817629256013
-0.4523537041275505
-0.44619923196256844
-0.4400447597975588
-0.4400447597975588
-0.433890287632549
-0.4400447597975588
-0.427735815467567
-0.427735815467567
-0.433890287632549
-0.44619923196256844
-0.4154268711375475
-0.4154268711375475
-0.40927239897256545
-0.40311792680755576
-0.42158134330255725
-0.4154268711375475
-0.40927239897256545
-0.40311792680755576
-0.40311792680755576
-0.40311792680755576
-0.390808982477564
-0.390808982477564
-0.390808982477564
-0.3846545103125543
-0.390808982477564
-0.3846545103125543
-0.37850003814754446
-0.3723455659825625
-0.3723455659825625
-0.37850003814754446
-0.3723455659825625
-0.36619109381755277
-0.36619109381755277
-0.36619109381755277
-0.36619109381755277
-0.35388214948756086
-0.35388214948756086
-0.360036621652543
-0.35388214948756086
-0.35388214948756086
-0.3415732051575415
-0.3415732051575415
-0.33541873299255964
-0.3415732051575415
-0.3415732051575415
-0.3415732051575415
-0.3415732051575415
-0.33541873299255964
-0.3292642608275498
-0.33541873299255964
-0.33541873299255964
-0.33541873299255964
-0.3292642608275498
-0.3292642608275498
-0.3292642608275498
-0.32310978866254003
-0.32310978866254003
-0.3108008443325483
-0.3108008443325483
-0.31695531649755804
-0.3108008443325483
-0.30464637216753854
-0.31695531649755804
-0.30464637216753854
-0.3108008443325483
-0.30464637216753854
-0.30464637216753854
-0.30464637216753854
-0.2984919000025288
-0.30464637216753854
-0.30464637216753854
-0.29233742783754685
-0.29233742783754685
-0.2984919000025288
-0.30464637216753854
-0.3108008443325483
-0.3108008443325483
-0.28618295567253704
-0.2431016505175243
-0.1938658731975296
-0.14463009587750708
-0.11385773505251384
-0.1015487907225221
-0.1384756237125251
-0.2184837618575408
-0.2984919000025288
-0.3723455659825625
-0.3846545103125543
-0.37850003814754446
-0.35388214948756086
-0.33541873299255964
-0.31695531649755804
-0.30464637216753854
-0.2984919000025288
-0.28618295567253704
-0.2800284835075273
-0.2800284835075273
-0.26771953917753555
-0.26771953917753555
-0.26771953917753555
-0.2738740113425453
-0.26771953917753555
-0.26771953917753555
-0.26156506701252585
-0.2554105948475438
-0.2554105948475438
-0.2554105948475438
-0.26156506701252585
-0.26156506701252585
-0.2554105948475438
-0.24925612268253405
-0.2554105948475438
-0.24925612268253405
-0.24925612268253405
-0.24925612268253405
-0.24925612268253405
-0.2554105948475438
-0.24925612268253405
-0.24925612268253405
-0.2431016505175243
-0.2431016505175243
-0.2431016505175243
-0.2369471783525424
-0.23079270618753256
-0.2369471783525424
-0.23079270618753256
-0.23079270618753256
-0.23079270618753256
-0.23079270618753256
-0.23079270618753256
-0.23079270618753256
-0.24925612268253405
-0.2246382340225228
-0.2246382340225228
-0.2246382340225228
-0.2184837618575408
-0.2184837618575408
-0.2246382340225228
-0.2246382340225228
-0.2246382340225228
-0.2184837618575408
-0.21232928969253104
-0.2184837618575408
-0.21232928969253104
-0.2061748175275213
-0.2061748175275213
-0.2061748175275213
-0.2000203453625393
-0.1938658731975296
-0.1938658731975296
-0.2000203453625393
-0.1938658731975296
-0.2000203453625393
-0.1938658731975296
-0.2061748175275213
-0.21232928969253104
-0.21232928969253104
-0.2184837618575408
-0.2184837618575408
-0.2246382340225228
-0.23079270618753256
-0.2369471783525424
-0.23079270618753256
-0.2369471783525424
-0.2431016505175243
-0.2431016505175243
-0.24925612268253405
-0.24925612268253405
-0.24925612268253405
-0.24925612268253405
-0.2431016505175243
-0.24925612268253405
-0.2431016505175243
-0.24925612268253405
-0.2431016505175243
-0.24925612268253405
-0.2431016505175243
-0.2431016505175243
-0.2431016505175243
-0.2431016505175243
-0.2369471783525424
-0.2369471783525424
-0.2431016505175243
-0.23079270618753256
-0.2369471783525424
-0.2369471783525424
-0.2369471783525424
-0.2369471783525424
-0.2431016505175243
-0.2431016505175243
-0.2431016505175243
-0.2369471783525424
-0.2369471783525424
-0.23079270618753256
-0.2369471783525424
-0.23079270618753256
-0.2369471783525424
-0.2246382340225228
-0.23079270618753256
-0.2246382340225228
-0.2246382340225228
-0.23079270618753256
-0.2246382340225228
-0.23079270618753256
-0.23079270618753256
-0.2246382340225228
-0.2246382340225228
-0.2246382340225228
-0.2246382340225228
-0.2246382340225228
-0.23079270618753256
-0.2246382340225228
-0.23079270618753256
-0.23079270618753256
-0.23079270618753256
-0.2246382340225228
-0.23079270618753256
-0.23079270618753256
-0.2246382340225228
-0.2246382340225228
-0.2246382340225228
-0.2431016505175243
-0.2369471783525424
-0.2246382340225228
-0.2184837618575408
-0.2246382340225228
-0.2246382340225228
-0.23079270618753256
-0.2246382340225228
-0.23079270618753256
-0.23079270618753256
-0.2246382340225228
-0.2184837618575408
-0.21232928969253104
-0.21232928969253104
-0.2061748175275213
-0.2061748175275213
-0.2061748175275213
-0.2061748175275213
-0.2061748175275213
-0.2000203453625393
-0.2000203453625393
-0.1938658731975296
-0.1938658731975296
-0.1938658731975296
-0.2000203453625393
-0.2000203453625393
-0.2000203453625393
-0.2000203453625393
-0.2000203453625393
-0.1938658731975296
-0.2000203453625393
-0.2061748175275213
-0.2184837618575408
-0.2000203453625393
-0.2000203453625393
-0.2061748175275213
-0.2061748175275213
-0.2000203453625393
-0.2061748175275213
-0.21232928969253104
-0.21232928969253104
-0.2184837618575408
-0.21232928969253104
-0.21232928969253104
-0.21232928969253104
-0.21232928969253104
-0.2184837618575408
-0.21232928969253104
-0.2246382340225228
-0.21232928969253104
-0.2184837618575408
-0.2061748175275213
-0.21232928969253104
-0.2000203453625393
-0.2000203453625393
-0.2000203453625393
-0.2061748175275213
-0.2061748175275213
-0.21232928969253104
-0.2000203453625393
-0.21232928969253104
-0.21232928969253104
-0.2000203453625393
-0.2000203453625393
-0.2000203453625393
-0.2061748175275213
-0.2061748175275213
-0.2000203453625393
-0.2000203453625393
-0.2061748175275213
-0.21232928969253104
-0.21232928969253104
-0.2184837618575408
-0.2184837618575408
-0.2061748175275213
-0.1938658731975296
-0.2061748175275213
-0.2000203453625393
-0.2000203453625393
-0.21232928969253104
-0.2061748175275213
-0.2061748175275213
-0.2061748175275213
-0.2061748175275213
-0.2000203453625393
-0.2061748175275213
-0.2061748175275213
-0.2061748175275213
-0.2000203453625393
-0.2000203453625393
-0.2000203453625393
-0.2000203453625393
-0.21232928969253104
-0.21232928969253104
-0.21232928969253104
-0.18771140103251985
-0.13232115154751534
-0.08308537422752059
-0.033849596907498114
0.003077236082504875
0.003077236082504875
-0.05231301340249961
-0.14463009587750708
-0.2369471783525424
-0.2984919000025288
-0.30464637216753854
-0.29233742783754685
-0.2738740113425453
-0.26156506701252585
-0.24925612268253405
-0.2246382340225228
-0.2246382340225228
-0.2184837618575408
-0.21232928969253104
-0.2061748175275213
-0.21232928969253104
-0.2061748175275213
-0.21232928969253104
-0.2061748175275213
-0.2000203453625393
-0.2000203453625393
-0.2000203453625393
-0.2000203453625393
-0.2061748175275213
-0.2061748175275213
-0.2000203453625393
-0.1938658731975296
-0.2000203453625393
-0.1938658731975296
-0.2061748175275213
-0.2000203453625393
-0.2061748175275213
-0.2061748175275213
-0.2061748175275213
-0.2061748175275213
-0.2061748175275213
-0.2000203453625393
-0.2000203453625393
-0.2000203453625393
-0.2061748175275213
-0.1938658731975296
-0.1938658731975296
-0.1938658731975296
-0.1938658731975296
-0.1938658731975296
-0.1938658731975296
-0.1938658731975296
-0.2061748175275213
-0.21232928969253104
-0.2061748175275213
-0.2000203453625393
-0.18771140103251985
-0.18155692886753785
-0.1938658731975296
-0.2184837618575408
-0.2061748175275213
-0.2061748175275213
-0.2184837618575408
-0.2369471783525424
-0.24925612268253405
-0.26156506701252585
-0.26156506701252585
-0.2554105948475438
-0.24925612268253405
-0.23079270618753256
-0.2246382340225228
-0.2184837618575408
-0.21232928969253104
-0.21232928969253104
-0.2061748175275213
-0.2061748175275213
-0.2061748175275213
-0.21232928969253104
-0.21232928969253104
-0.2184837618575408
-0.2246382340225228
-0.2369471783525424
-0.2369471783525424
-0.2431016505175243
-0.24925612268253405
-0.2431016505175243
-0.2554105948475438
-0.2554105948475438
-0.24925612268253405
-0.26156506701252585
-0.26156506701252585
-0.26156506701252585
-0.26156506701252585
-0.26156506701252585
-0.2554105948475438
-0.2554105948475438
-0.2554105948475438
-0.2431016505175243
-0.24925612268253405
-0.2369471783525424
-0.2431016505175243
-0.2431016505175243
-0.2369471783525424
-0.23079270618753256
-0.2369471783525424
-0.23079270618753256
-0.2369471783525424
-0.2369471783525424
-0.23079270618753256
-0.2369471783525424
-0.23079270618753256
-0.2246382340225228
-0.23079270618753256
-0.23079270618753256
-0.2246382340225228
-0.2246382340225228
-0.2246382340225228
-0.2246382340225228
-0.2184837618575408
-0.2184837618575408
-0.2184837618575408
-0.21232928969253104
-0.21232928969253104
-0.2184837618575408
-0.2061748175275213
-0.21232928969253104
-0.2061748175275213
-0.21232928969253104
-0.21232928969253104
-0.2061748175275213
-0.21232928969253104
-0.2000203453625393
-0.2000203453625393
-0.2061748175275213
-0.2061748175275213
-0.2061748175275213
-0.2000203453625393
-0.2061748175275213
-0.2061748175275213
-0.2061748175275213
-0.2000203453625393
-0.2061748175275213
-0.2000203453625393
-0.2000203453625393
-0.2061748175275213
-0.2000203453625393
-0.2000203453625393
-0.21232928969253104
-0.2061748175275213
-0.21232928969253104
-0.21232928969253104
-0.2184837618575408
-0.2184837618575408
-0.2184837618575408
-0.2184837618575408
-0.2184837618575408
-0.2184837618575408
-0.21232928969253104
-0.2184837618575408
-0.21232928969253104
-0.2184837618575408
-0.21232928969253104
-0.21232928969253104
-0.2184837618575408
-0.2184837618575408
-0.21232928969253104
-0.21232928969253104
-0.21232928969253104
-0.21232928969253104
-0.2184837618575408
-0.21232928969253104
-0.2184837618575408
-0.2246382340225228
-0.2184837618575408
-0.2246382340225228
-0.2184837618575408
-0.2246382340225228
-0.2246382340225228
-0.2184837618575408
-0.2184837618575408
-0.2246382340225228
-0.2431016505175243
-0.2184837618575408
-0.2184837618575408
-0.23079270618753256
-0.23079270618753256
-0.23079270618753256
-0.23079270618753256
-0.23079270618753256
-0.2246382340225228
-0.23079270618753256
-0.2246382340225228
-0.2246382340225228
-0.23079270618753256
-0.2246382340225228
-0.2246382340225228
-0.23079270618753256
-0.23079270618753256
-0.2246382340225228
-0.2246382340225228
-0.23079270618753256
-0.2246382340225228
-0.2246382340225228
-0.2246382340225228
-0.23079270618753256
-0.2369471783525424
-0.2246382340225228
-0.23079270618753256
-0.2369471783525424
-0.2369471783525424
-0.2369471783525424
-0.2369471783525424
-0.23079270618753256
-0.2369471783525424
-0.2431016505175243
-0.2369471783525424
-0.24925612268253405
-0.2369471783525424
-0.2246382340225228
-0.2246382340225228
-0.23079270618753256
-0.23079270618753256
-0.2369471783525424
-0.23079270618753256
-0.2431016505175243
-0.24925612268253405
-0.2246382340225228
-0.2246382340225228
-0.2246382340225228
-0.23079270618753256
-0.2369471783525424
-0.2369471783525424
-0.2369471783525424
-0.24925612268253405
-0.24925612268253405
-0.2431016505175243
-0.24925612268253405
-0.24925612268253405
-0.2431016505175243
-0.21232928969253104
-0.15693904020752658
-0.10770326288750408
-0.05846748556750937
-0.01538618041249662
-0.033849596907498114
-0.1015487907225221
-0.2000203453625393
-0.29233742783754685
-0.3415732051575415
-0.33541873299255964
-0.3292642608275498
-0.30464637216753854
-0.2984919000025288
-0.2800284835075273
-0.26156506701252585
-0.2554105948475438
-0.2431016505175243
-0.2431016505175243
-0.2431016505175243
-0.2369471783525424
-0.2431016505175243
-0.2369471783525424
-0.2369471783525424
-0.2369471783525424
-0.23079270618753256
-0.23079270618753256
-0.23079270618753256
-0.2369471783525424
-0.23079270618753256
-0.23079270618753256
-0.23079270618753256
-0.23079270618753256
-0.23079270618753256
-0.23079270618753256
-0.2246382340225228
-0.23079270618753256
-0.23079270618753256
-0.2246382340225228
-0.2246382340225228
-0.2246382340225228
-0.23079270618753256
-0.23079270618753256
-0.2246382340225228
-0.2246382340225228
-0.2246382340225228
-0.2184837618575408
-0.23079270618753256
-0.23079270618753256
-0.2246382340225228
-0.2184837618575408
-0.2184837618575408
-0.2246382340225228
-0.2246382340225228
-0.21232928969253104
-0.2184837618575408
-0.2246382340225228
-0.2184837618575408
-0.21232928969253104
-0.21232928969253104
-0.21232928969253104
-0.2184837618575408
-0.21232928969253104
-0.2061748175275213
-0.2184837618575408
-0.2061748175275213
-0.2061748175275213
-0.2061748175275213
-0.2000203453625393
-0.2000203453625393
-0.2000203453625393
-0.2000203453625393
-0.1938658731975296
-0.2061748175275213
-0.2061748175275213
-0.2000203453625393
-0.2061748175275213
-0.2061748175275213
-0.21232928969253104
-0.2246382340225228
-0.23079270618753256
-0.23079270618753256
-0.2369471783525424
-0.2369471783525424
-0.2369471783525424
-0.2431016505175243
-0.24925612268253405
-0.24925612268253405
-0.2554105948475438
-0.2554105948475438
-0.24925612268253405
-0.26156506701252585
-0.26156506701252585
-0.2554105948475438
-0.26156506701252585
-0.2554105948475438
-0.2554105948475438
-0.26156506701252585
-0.2554105948475438
-0.26156506701252585
-0.2554105948475438
-0.26156506701252585
-0.26156506701252585
-0.2554105948475438
-0.26156506701252585
-0.26771953917753555
-0.26156506701252585
-0.26771953917753555
-0.2554105948475438
-0.2554105948475438
-0.26156506701252585
-0.26156506701252585
-0.2554105948475438
-0.26156506701252585
-0.26156506701252585
-0.2554105948475438
-0.2554105948475438
-0.26156506701252585
-0.24925612268253405
-0.24925612268253405
-0.24925612268253405
-0.24925612268253405
-0.2431016505175243
-0.2431016505175243
-0.2554105948475438
-0.24925612268253405
-0.24925612268253405
-0.2431016505175243
-0.2431016505175243
-0.24925612268253405
-0.24925612268253405
-0.24925612268253405
-0.2431016505175243
-0.2369471783525424
-0.2431016505175243
-0.24925612268253405
-0.24925612268253405
-0.24925612268253405
-0.2431016505175243
-0.24925612268253405
-0.2431016505175243
-0.24925612268253405
-0.2431016505175243
-0.2431016505175243
-0.2431016505175243
-0.24925612268253405
-0.2431016505175243
-0.24925612268253405
-0.24925612268253405
-0.2431016505175243
-0.24925612268253405
-0.24925612268253405
-0.2554105948475438
-0.2431016505175243
-0.24925612268253405
-0.2431016505175243
-0.2431016505175243
-0.24925612268253405
-0.2369471783525424
-0.2431016505175243
-0.2431016505175243
-0.24925612268253405
-0.2431016505175243
-0.2431016505175243
-0.2369471783525424
-0.2431016505175243
-0.2431016505175243
-0.2369471783525424
-0.2431016505175243
-0.2369471783525424
-0.2431016505175243
-0.2369471783525424
-0.2369471783525424
-0.2431016505175243
-0.23079270618753256
-0.2369471783525424
-0.2369471783525424
-0.2369471783525424
-0.2369471783525424
-0.2369471783525424
-0.2369471783525424
-0.23079270618753256
-0.23079270618753256
-0.2369471783525424
-0.2246382340225228
-0.2369471783525424
-0.2431016505175243
-0.23079270618753256
-0.2246382340225228
-0.2246382340225228
-0.2246382340225228
-0.23079270618753256
-0.2246382340225228
-0.2369471783525424
-0.2246382340225228
-0.23079270618753256
-0.2246382340225228
-0.23079270618753256
-0.2246382340225228
-0.2246382340225228
-0.2246382340225228
-0.2184837618575408
-0.2246382340225228
-0.2246382340225228
-0.2246382340225228
-0.2184837618575408
-0.2246382340225228
-0.2184837618575408
-0.2246382340225228
-0.23079270618753256
-0.2246382340225228
-0.2246382340225228
-0.2184837618575408
-0.2184837618575408
-0.2246382340225228
-0.2184837618575408
-0.23079270618753256
-0.2184837618575408
-0.2246382340225228
-0.21232928969253104
-0.2061748175275213
-0.2061748175275213
-0.2184837618575408
-0.2184837618575408
-0.2246382340225228
-0.2184837618575408
-0.2184837618575408
-0.2184837618575408
-0.2184837618575408
-0.21232928969253104
-0.21232928969253104
-0.2184837618575408
-0.21232928969253104
-0.2184837618575408
-0.21232928969253104
-0.2184837618575408
-0.2184837618575408
-0.23079270618753256
-0.2246382340225228
-0.2061748175275213
-0.1692479845375183
-0.12001220721752358
-0.05846748556750937
-0.01538618041249662
0.003077236082504875
-0.033849596907498114
-0.12001220721752358
-0.2184837618575408
-0.30464637216753854
-0.3292642608275498
-0.3108008443325483
-0.2984919000025288
-0.2738740113425453
-0.26156506701252585
-0.2554105948475438
-0.2431016505175243
-0.23079270618753256
-0.23079270618753256
-0.2246382340225228
-0.2246382340225228
-0.2246382340225228
-0.2184837618575408
-0.21232928969253104
-0.21232928969253104
-0.2184837618575408
-0.2246382340225228
-0.2184837618575408
-0.21232928969253104
-0.2184837618575408
-0.2184837618575408
-0.21232928969253104
-0.2184837618575408
-0.21232928969253104
-0.21232928969253104
-0.21232928969253104
-0.2184837618575408
-0.2184837618575408
-0.21232928969253104
-0.2184837618575408
-0.21232928969253104
-0.2061748175275213
-0.21232928969253104
-0.21232928969253104
-0.21232928969253104
-0.21232928969253104
-0.2061748175275213
-0.2000203453625393
-0.2000203453625393
-0.2061748175275213
-0.2061748175275213
-0.2061748175275213
-0.2061748175275213
-0.2061748175275213
-0.2000203453625393
-0.2000203453625393
-0.1938658731975296
-0.2000203453625393
-0.2000203453625393
-0.1938658731975296
-0.18771140103251985
-0.18771140103251985
-0.18771140103251985
-0.18155692886753785
-0.18771140103251985
-0.18155692886753785
-0.18771140103251985
-0.1692479845375183
-0.17540245670252808
-0.2000203453625393
-0.1692479845375183
-0.16309351237253633
-0.16309351237253633
-0.1692479845375183
-0.17540245670252808
-0.1692479845375183
-0.1692479845375183
-0.18155692886753785
-0.18155692886753785
-0.18771140103251985
-0.18771140103251985
-0.1938658731975296
-0.1938658731975296
-0.2000203453625393
-0.2061748175275213
-0.2061748175275213
-0.2184837618575408
-0.2184837618575408
-0.2184837618575408
-0.2246382340225228
-0.2184837618575408
-0.2184837618575408
-0.2246382340225228
-0.2246382340225228
-0.23079270618753256
-0.2246382340225228
-0.2246382340225228
-0.23079270618753256
-0.2246382340225228
-0.2246382340225228
-0.23079270618753256
-0.23079270618753256
-0.23079270618753256
-0.2246382340225228
-0.23079270618753256
-0.2246382340225228
-0.23079270618753256
-0.2184837618575408
-0.2184837618575408
-0.2184837618575408
-0.2246382340225228
-0.2184837618575408
-0.2246382340225228
-0.2184837618575408
-0.2184837618575408
-0.2184837618575408
-0.2246382340225228
-0.2184837618575408
-0.21232928969253104
-0.2061748175275213
-0.2184837618575408
-0.2184837618575408
-0.21232928969253104
-0.21232928969253104
-0.21232928969253104
-0.21232928969253104
-0.2061748175275213
-0.21232928969253104
-0.21232928969253104
-0.21232928969253104
-0.2184837618575408
-0.2184837618575408
-0.2184837618575408
-0.21232928969253104
-0.21232928969253104
-0.2184837618575408
-0.2184837618575408
-0.2184837618575408
-0.2184837618575408
-0.2184837618575408
-0.2184837618575408
-0.2184837618575408
-0.2246382340225228
-0.2184837618575408
-0.2184837618575408
-0.2246382340225228
-0.2246382340225228
-0.2246382340225228
-0.2246382340225228
-0.2184837618575408
-0.2246382340225228
-0.2184837618575408
-0.21232928969253104
-0.2184837618575408
-0.2184837618575408
-0.2184837618575408
-0.2184837618575408
-0.2184837618575408
-0.2246382340225228
-0.2184837618575408
-0.2246382340225228
-0.2246382340225228
-0.2246382340225228
-0.2246382340225228
-0.2184837618575408
-0.2184837618575408
-0.2246382340225228
-0.2184837618575408
-0.2184837618575408
-0.2246382340225228
-0.2246382340225228
-0.2246382340225228
-0.2246382340225228
-0.2246382340225228
-0.2246382340225228
-0.2246382340225228
-0.2184837618575408
-0.2246382340225228
-0.2246382340225228
-0.2246382340225228
-0.2184837618575408
-0.2246382340225228
-0.2246382340225228
-0.2184837618575408
-0.2184837618575408
-0.23079270618753256
-0.2184837618575408
-0.2246382340225228
-0.2246382340225228
-0.2246382340225228
-0.23079270618753256
-0.24925612268253405
-0.2246382340225228
-0.23079270618753256
-0.23079270618753256
-0.23079270618753256
-0.23079270618753256
-0.2246382340225228
-0.23079270618753256
-0.2246382340225228
-0.2246382340225228
-0.2184837618575408
-0.2246382340225228
-0.2184837618575408
-0.2184837618575408
-0.2246382340225228
-0.2184837618575408
-0.2246382340225228
-0.2246382340225228
-0.2184837618575408
-0.2184837618575408
-0.2184837618575408
-0.2246382340225228
-0.2184837618575408
-0.21232928969253104
-0.2184837618575408
-0.21232928969253104
-0.2246382340225228
-0.2184837618575408
-0.2246382340225228
-0.21232928969253104
-0.2184837618575408
-0.2184837618575408
-0.2184837618575408
-0.2184837618575408
-0.21232928969253104
-0.2184837618575408
-0.21232928969253104
-0.2184837618575408
-0.21232928969253104
-0.2246382340225228
-0.23079270618753256
-0.2369471783525424
-0.23079270618753256
-0.18771140103251985
-0.1384756237125251
-0.08923984639250257
-0.04615854123751762
-0.04615854123751762
-0.0707764298975011
-0.14463009587750708
-0.23079270618753256
-0.30464637216753854
-0.3292642608275498
-0.32310978866254003
-0.30464637216753854
-0.29233742783754685
-0.2738740113425453
-0.26156506701252585
-0.24925612268253405
-0.23079270618753256
-0.2184837618575408
-0.21232928969253104
-0.21232928969253104
-0.21232928969253104
-0.21232928969253104
-0.21232928969253104
-0.2184837618575408
-0.2061748175275213
-0.21232928969253104
-0.21232928969253104
-0.2061748175275213
-0.2061748175275213
-0.2000203453625393
-0.2061748175275213
-0.2000203453625393
-0.2000203453625393
-0.2000203453625393
-0.2061748175275213
-0.2061748175275213
-0.2061748175275213
-0.2061748175275213
-0.2000203453625393
-0.21232928969253104
-0.2061748175275213
-0.2061748175275213
-0.2061748175275213
-0.2061748175275213
-0.2000203453625393
-0.2000203453625393
-0.2000203453625393
-0.2000203453625393
-0.1938658731975296
-0.2000203453625393
-0.1938658731975296
-0.18771140103251985
-0.1938658731975296
-0.18155692886753785
-0.18771140103251985
-0.18771140103251985
-0.17540245670252808
-0.17540245670252808
-0.18155692886753785
-0.17540245670252808
-0.1692479845375183
-0.1692479845375183
-0.1692479845375183
-0.17540245670252808
-0.1692479845375183
-0.1692479845375183
-0.1692479845375183
-0.1692479845375183
-0.1692479845375183
-0.16309351237253633
-0.16309351237253633
-0.16309351237253633
-0.16309351237253633
-0.15693904020752658
-0.15693904020752658
-0.16309351237253633
-0.16309351237253633
-0.1692479845375183
-0.18155692886753785
-0.2184837618575408
-0.18771140103251985
-0.18771140103251985
-0.18771140103251985
-0.2000203453625393
-0.2061748175275213
-0.2061748175275213
-0.21232928969253104
-0.2246382340225228
-0.2184837618575408
-0.2184837618575408
-0.2184837618575408
-0.2184837618575408
-0.2184837618575408
-0.2246382340225228
-0.2246382340225228
-0.2246382340225228
-0.2184837618575408
-0.2246382340225228
-0.2246382340225228
-0.2184837618575408
-0.21232928969253104
-0.2184837618575408
-0.2184837618575408
-0.2184837618575408
-0.21232928969253104
-0.2184837618575408
-0.2184837618575408
-0.2184837618575408
-0.2184837618575408
-0.2184837618575408
-0.2184837618575408
-0.2246382340225228
-0.21232928969253104
-0.21232928969253104
-0.2184837618575408
-0.21232928969253104
-0.2184837618575408
-0.21232928969253104
-0.2184837618575408
-0.2246382340225228
-0.2246382340225228
-0.2246382340225228
-0.2184837618575408
-0.2184837618575408
-0.2184837618575408
-0.2184837618575408
-0.2184837618575408
-0.2184837618575408
-0.2184837618575408
-0.2246382340225228
-0.23079270618753256
-0.2246382340225228
-0.23079270618753256
-0.2246382340225228
-0.23079270618753256
-0.2246382340225228
-0.23079270618753256
-0.23079270618753256
-0.23079270618753256
-0.2246382340225228
-0.23079270618753256
-0.2369471783525424
-0.23079270618753256
-0.23079270618753256
-0.2246382340225228
-0.2246382340225228
-0.2369471783525424
-0.2369471783525424
-0.2369471783525424
-0.23079270618753256
-0.2431016505175243
-0.26156506701252585
-0.2369471783525424
-0.2369471783525424
-0.2369471783525424
-0.23079270618753256
-0.23079270618753256
-0.2369471783525424
-0.2431016505175243
-0.24925612268253405
-0.24925612268253405
-0.2431016505175243
-0.2431016505175243
-0.24925612268253405
-0.24925612268253405
-0.2369471783525424
-0.2431016505175243
-0.2369471783525424
-0.2369471783525424
-0.23079270618753256
-0.23079270618753256
-0.23079270618753256
-0.2369471783525424
-0.2369471783525424
-0.23079270618753256
-0.2369471783525424
-0.2369471783525424
-0.23079270618753256
-0.2369471783525424
-0.23079270618753256
-0.23079270618753256
-0.23079270618753256
-0.23079270618753256
-0.2369471783525424
-0.2369471783525424
-0.2431016505175243
-0.2431016505175243
-0.23079270618753256
-0.2246382340225228
-0.23079270618753256
-0.2184837618575408
-0.2246382340225228
-0.2246382340225228
-0.2184837618575408
-0.2246382340225228
-0.2246382340225228
-0.2184837618575408
-0.2246382340225228
-0.2246382340225228
-0.21232928969253104
-0.21232928969253104
-0.2246382340225228
-0.2061748175275213
-0.2000203453625393
-0.2000203453625393
-0.21232928969253104
-0.2184837618575408
-0.2246382340225228
-0.21232928969253104
-0.2061748175275213
-0.21232928969253104
-0.21232928969253104
-0.21232928969253104
-0.2061748175275213
-0.2184837618575408
-0.21232928969253104
-0.2184837618575408
-0.2184837618575408
-0.2184837618575408
-0.21232928969253104
-0.2061748175275213
-0.2061748175275213
-0.2000203453625393
-0.1938658731975296
-0.2061748175275213
-0.2184837618575408
-0.2061748175275213
-0.2061748175275213
-0.2000203453625393
-0.2000203453625393
-0.2061748175275213
-0.2000203453625393
-0.2061748175275213
-0.21232928969253104
-0.21232928969253104
-0.2061748175275213
-0.21232928969253104
-0.2184837618575408
-0.2184837618575408
-0.23079270618753256
-0.2184837618575408
-0.18771140103251985
-0.14463009587750708
-0.09539431855751236
-0.033849596907498114
-0.003077236082504875
-0.01538618041249662
-0.08923984639250257
-0.18771140103251985
-0.26771953917753555
-0.32310978866254003
-0.31695531649755804
-0.29233742783754685
-0.2800284835075273
-0.26771953917753555
-0.26156506701252585
-0.24925612268253405
-0.23079270618753256
-0.23079270618753256
-0.23079270618753256
-0.2184837618575408
-0.23079270618753256
-0.2184837618575408
-0.2246382340225228
-0.2184837618575408
-0.21232928969253104
-0.2246382340225228
-0.2246382340225228
-0.2246382340225228
-0.2246382340225228
-0.2246382340225228
-0.23079270618753256
-0.2246382340225228
-0.23079270618753256
-0.23079270618753256
-0.2246382340225228
-0.2184837618575408
-0.2184837618575408
-0.2246382340225228
-0.2184837618575408
-0.21232928969253104
-0.2184837618575408
-0.2184837618575408
-0.21232928969253104
-0.2184837618575408
-0.2184837618575408
-0.2184837618575408
-0.21232928969253104
-0.2061748175275213
-0.21232928969253104
-0.2061748175275213
-0.2000203453625393
-0.2000203453625393
-0.2061748175275213
-0.2061748175275213
-0.2061748175275213
-0.2061748175275213
-0.2000203453625393
-0.2061748175275213
-0.2000203453625393
-0.2000203453625393
-0.1938658731975296
-0.2000203453625393
-0.2000203453625393
-0.18771140103251985
-0.1938658731975296
-0.18155692886753785
-0.18771140103251985
-0.18155692886753785
-0.18155692886753785
-0.18155692886753785
-0.18155692886753785
-0.17540245670252808
-0.17540245670252808
-0.17540245670252808
-0.17540245670252808
-0.18155692886753785
-0.18771140103251985
-0.1938658731975296
-0.1938658731975296
-0.2000203453625393
-0.2000203453625393
-0.21232928969253104
-0.23079270618753256
-0.21232928969253104
-0.2184837618575408
-0.23079270618753256
-0.23079270618753256
-0.23079270618753256
-0.23079270618753256
-0.2431016505175243
-0.2431016505175243
-0.2369471783525424
-0.2431016505175243
-0.2431016505175243
-0.2431016505175243
-0.2369471783525424
-0.2431016505175243
-0.24925612268253405
-0.24925612268253405
-0.2431016505175243
-0.2431016505175243
-0.24925612268253405
-0.2431016505175243
-0.2431016505175243
-0.2431016505175243
-0.2369471783525424
-0.2369471783525424
-0.2369471783525424
-0.2431016505175243
-0.24925612268253405
-0.2431016505175243
-0.2431016505175243
-0.2431016505175243
-0.24925612268253405
-0.2431016505175243
-0.24925612268253405
-0.2431016505175243
-0.24925612268253405
-0.2369471783525424
-0.2431016505175243
-0.2431016505175243
-0.2369471783525424
-0.2431016505175243
-0.2431016505175243
-0.2431016505175243
-0.2431016505175243
-0.2369471783525424
-0.2431016505175243
-0.2369471783525424
-0.2369471783525424
-0.2431016505175243
-0.2369471783525424
-0.2369471783525424
-0.2369471783525424
-0.2369471783525424
-0.2431016505175243
-0.2369471783525424
-0.2369471783525424
-0.23079270618753256
-0.23079270618753256
-0.2369471783525424
-0.2369471783525424
-0.2369471783525424
-0.23079270618753256
-0.23079270618753256
-0.23079270618753256
-0.23079270618753256
-0.23079270618753256
-0.2369471783525424
-0.2369471783525424
-0.2369471783525424
-0.2431016505175243
-0.2431016505175243
-0.2369471783525424
-0.2431016505175243
-0.2431016505175243
-0.2431016505175243
-0.2431016505175243
-0.2369471783525424
-0.2431016505175243
-0.2431016505175243
-0.2431016505175243
-0.2369471783525424
-0.2369471783525424
-0.24925612268253405
-0.2431016505175243
-0.24925612268253405
-0.24925612268253405
-0.24925612268253405
-0.2431016505175243
-0.24925612268253405
-0.2554105948475438
-0.2554105948475438
-0.2554105948475438
-0.24925612268253405
-0.24925612268253405
-0.24925612268253405
-0.2554105948475438
-0.24925612268253405
-0.2554105948475438
-0.24925612268253405
-0.2554105948475438
-0.2554105948475438
-0.2554105948475438
-0.24925612268253405
-0.24925612268253405
-0.2554105948475438
-0.24925612268253405
-0.2554105948475438
-0.24925612268253405
-0.2554105948475438
-0.2554105948475438
-0.2554105948475438
-0.24925612268253405
-0.2554105948475438
-0.24925612268253405
-0.2554105948475438
-0.24925612268253405
-0.2554105948475438
-0.24925612268253405
-0.2554105948475438
-0.24925612268253405
-0.24925612268253405
-0.26156506701252585
-0.26156506701252585
-0.26156506701252585
-0.24925612268253405
-0.2554105948475438
-0.2554105948475438
-0.2554105948475438
-0.2554105948475438
-0.2554105948475438
-0.24925612268253405
-0.26156506701252585
-0.24925612268253405
-0.24925612268253405
-0.24925612268253405
-0.2554105948475438
-0.2554105948475438
-0.26156506701252585
-0.2554105948475438
-0.2554105948475438
-0.24925612268253405
-0.2369471783525424
-0.2431016505175243
-0.2431016505175243
-0.24925612268253405
-0.24925612268253405
-0.24925612268253405
-0.26156506701252585
-0.2431016505175243
-0.2431016505175243
-0.2431016505175243
-0.2431016505175243
-0.2369471783525424
-0.2431016505175243
-0.24925612268253405
-0.26156506701252585
-0.24925612268253405
-0.24925612268253405
-0.2554105948475438
-0.26771953917753555
-0.26156506701252585
-0.2431016505175243
-0.2000203453625393
-0.14463009587750708
-0.08923984639250257
-0.04000406907250786
-0.02154065257750637
-0.0707764298975011
-0.15693904020752658
-0.2554105948475438
-0.3292642608275498
-0.3415732051575415
-0.32310978866254003
-0.3108008443325483
-0.29233742783754685
-0.2800284835075273
-0.26771953917753555
-0.24925612268253405
-0.2431016505175243
-0.2431016505175243
-0.24925612268253405
-0.2369471783525424
-0.2431016505175243
-0.2369471783525424
-0.23079270618753256
-0.23079270618753256
-0.23079270618753256
-0.2246382340225228
-0.23079270618753256
-0.2246382340225228
-0.23079270618753256
-0.2369471783525424
-0.2246382340225228
-0.23079270618753256
-0.23079270618753256
-0.23079270618753256
-0.2246382340225228
-0.2184837618575408
-0.2246382340225228
-0.2246382340225228
-0.2184837618575408
-0.2184837618575408
-0.2184837618575408
-0.2246382340225228
-0.21232928969253104
-0.21232928969253104
-0.21232928969253104
-0.21232928969253104
-0.2000203453625393
-0.2061748175275213
-0.2061748175275213
-0.2000203453625393
-0.2000203453625393
-0.1938658731975296
-0.2000203453625393
-0.18771140103251985
-0.18771140103251985
-0.18771140103251985
-0.1938658731975296
-0.18155692886753785
-0.18155692886753785
-0.18155692886753785
-0.17540245670252808
-0.17540245670252808
-0.17540245670252808
-0.18155692886753785
-0.1692479845375183
-0.17540245670252808
-0.17540245670252808
-0.16309351237253633
-0.1692479845375183
-0.16309351237253633
-0.16309351237253633
-0.16309351237253633
-0.15693904020752658
-0.15693904020752658
-0.15693904020752658
-0.15693904020752658
-0.16309351237253633
-0.16309351237253633
-0.17540245670252808
-0.18155692886753785
-0.18155692886753785
-0.2061748175275213
-0.2431016505175243
-0.2000203453625393
-0.1938658731975296
-0.2000203453625393
-0.2000203453625393
-0.21232928969253104
-0.23079270618753256
-0.2184837618575408
-0.2246382340225228
-0.2061748175275213
-0.21232928969253104
-0.2246382340225228
-0.2246382340225228
-0.2246382340225228
-0.2061748175275213
-0.21232928969253104
-0.2061748175275213
-0.2431016505175243
-0.28618295567253704
-0.30464637216753854
-0.29233742783754685
-0.2431016505175243
-0.2246382340225228
-0.2246382340225228
-0.23079270618753256
-0.2554105948475438
-0.26771953917753555
-0.2800284835075273
-0.36619109381755277
-0.33541873299255964
-0.2984919000025288
-0.26156506701252585
-0.2554105948475438
-0.2369471783525424
-0.21232928969253104
-0.2000203453625393
-0.1938658731975296
-0.2000203453625393
-0.21232928969253104
-0.2061748175275213
-0.21232928969253104
-0.2061748175275213
-0.2061748175275213
-0.2000203453625393
-0.2000203453625393
-0.2061748175275213
-0.2184837618575408
-0.2061748175275213
-0.2000203453625393
-0.2061748175275213
-0.21232928969253104
-0.21232928969253104
-0.2061748175275213
-0.21232928969253104
-0.21232928969253104
-0.2061748175275213
-0.21232928969253104
-0.21232928969253104
-0.2061748175275213
-0.21232928969253104
-0.21232928969253104
-0.21232928969253104
-0.2184837618575408
-0.21232928969253104
-0.21232928969253104
-0.21232928969253104
-0.2184837618575408
-0.2184837618575408
-0.21232928969253104
-0.21232928969253104
-0.2184837618575408
-0.21232928969253104
-0.2184837618575408
-0.2184837618575408
-0.2246382340225228
-0.21232928969253104
-0.21232928969253104
-0.2184837618575408
-0.2184837618575408
-0.21232928969253104
-0.2061748175275213
-0.2061748175275213
-0.21232928969253104
-0.21232928969253104
-0.21232928969253104
-0.2184837618575408
-0.21232928969253104
-0.21232928969253104
-0.21232928969253104
-0.2061748175275213
-0.21232928969253104
-0.2061748175275213
-0.2061748175275213
-0.2061748175275213
-0.2061748175275213
-0.2061748175275213
-0.2061748175275213
-0.2061748175275213
-0.2061748175275213
-0.2061748175275213
-0.2061748175275213
-0.2061748175275213
-0.21232928969253104
-0.2061748175275213
-0.2061748175275213
-0.21232928969253104
-0.21232928969253104
-0.21232928969253104
-0.2184837618575408
-0.21232928969253104
-0.21232928969253104
-0.2184837618575408
-0.21232928969253104
-0.2184837618575408
-0.21232928969253104
-0.21232928969253104
-0.2184837618575408
-0.21232928969253104
-0.21232928969253104
-0.21232928969253104
-0.21232928969253104
-0.2184837618575408
-0.23079270618753256
-0.2184837618575408
-0.2061748175275213
-0.21232928969253104
-0.2184837618575408
-0.2184837618575408
-0.2184837618575408
-0.21232928969253104
-0.21232928969253104
-0.2184837618575408
-0.21232928969253104
-0.21232928969253104
-0.21232928969253104
-0.2184837618575408
-0.2184837618575408
-0.21232928969253104
-0.2184837618575408
-0.21232928969253104
-0.2184837618575408
-0.2184837618575408
-0.2184837618575408
-0.2184837618575408
-0.2184837618575408
-0.2061748175275213
-0.2000203453625393
-0.2000203453625393
-0.2000203453625393
-0.2061748175275213
-0.2184837618575408
-0.2184837618575408
-0.21232928969253104
-0.2061748175275213
-0.21232928969253104
-0.21232928969253104
-0.21232928969253104
-0.2184837618575408
-0.21232928969253104
-0.2184837618575408
-0.21232928969253104
-0.21232928969253104
-0.2184837618575408
-0.2246382340225228
-0.2369471783525424
-0.2246382340225228
-0.2000203453625393
-0.15693904020752658
-0.1015487907225221
-0.05231301340249961
-0.01538618041249662
-0.009231708247514623
-0.07693090206251085
-0.1692479845375183
-0.26156506701252585
-0.31695531649755804
-0.31695531649755804
-0.30464637216753854
-0.2800284835075273
-0.26771953917753555
-0.2554105948475438
-0.2431016505175243
-0.23079270618753256
-0.23079270618753256
-0.2246382340225228
-0.23079270618753256
-0.23079270618753256
-0.2184837618575408
-0.2246382340225228
-0.21232928969253104
-0.2184837618575408
-0.21232928969253104
-0.2184837618575408
-0.2061748175275213
-0.21232928969253104
-0.2184837618575408
-0.2184837618575408
-0.21232928969253104
-0.2184837618575408
-0.2184837618575408
-0.2184837618575408
-0.21232928969253104
-0.21232928969253104
-0.21232928969253104
-0.21232928969253104
-0.21232928969253104
-0.2184837618575408
-0.2061748175275213
-0.2061748175275213
-0.2061748175275213
-0.2061748175275213
-0.21232928969253104
-0.2000203453625393
-0.2061748175275213
-0.21232928969253104
-0.2061748175275213
-0.2184837618575408
-0.2184837618575408
-0.2246382340225228
-0.2246382340225228
-0.2246382340225228
-0.2246382340225228
-0.2431016505175243
-0.2184837618575408
-0.21232928969253104
-0.21232928969253104
-0.21232928969253104
-0.2184837618575408
-0.2184837618575408
-0.2246382340225228
-0.2246382340225228
-0.2246382340225228
-0.2184837618575408
-0.21232928969253104
-0.2061748175275213
-0.21232928969253104
-0.2061748175275213
-0.2061748175275213
-0.2184837618575408
-0.2184837618575408
-0.23079270618753256
-0.2246382340225228
-0.21232928969253104
-0.2000203453625393
-0.2246382340225228
-0.2184837618575408
-0.2431016505175243
-0.2738740113425453
-0.26771953917753555
-0.21232928969253104
-0.1938658731975296
-0.2061748175275213
-0.2246382340225228
-0.2246382340225228
-0.2246382340225228
-0.2184837618575408
-0.2246382340225228
-0.2246382340225228
-0.23079270618753256
-0.26771953917753555
-0.2738740113425453
-0.26771953917753555
-0.2431016505175243
-0.2246382340225228
-0.23079270618753256
-0.2431016505175243
-0.2061748175275213
-0.18155692886753785
-0.1692479845375183
-0.1938658731975296
-0.2061748175275213
-0.2061748175275213
-0.1938658731975296
-0.18771140103251985
-0.17540245670252808
-0.18771140103251985
-0.18771140103251985
-0.17540245670252808
-0.1938658731975296
-0.18771140103251985
-0.11385773505251384
0.7970041453676248
0.40927239897256545
-0.2738740113425453
-0.44619923196256844
-0.7970041453676248
-1.4986139721777092
-1.4924595000126994
-0.7046870628925892
0.2554105948475438
0.7600773123775938
0.8216220340276081
0.5815976195925888
0.42158134330255725
0.1938658731975296
-0.2184837618575408
-0.9324025329976448
-1.590931054652717
-1.7509473309427481
-1.6032399989827366
-1.7078660257877356
-1.7878741639327511
-1.7509473309427481
-1.473996083517698
-1.1908903639276658
-0.8647033391826209
-0.538516314437576
0.1938658731975296
0.26156506701252585
0.4523537041275505
1.0062561989776508
1.4309147783627132
1.7201749701177547
1.683248137127724
1.4986139721777092
1.5478497494977315
1.5663131659927332
1.615548943312728
1.5170773886727107
1.4247603061977032
1.2708985020726815
1.0247196154726523
0.7723862567076134
0.5446707866025856
0.1938658731975296
-0.2738740113425453
-0.5939065639225805
-0.7970041453676248
-0.9570204216576284
-1.0862643371226666
-1.0924188092876486
-1.2278171969176688
-1.2585895577426898
-1.5416952773327224
-2.077134355687793
-2.212532743317813
-2.4279392690928487
-2.335622186617841
-1.824800996922753
-1.7940286360977609
-1.8001831082627426
-1.5601586938277234
-1.3447521680526875
-1.0678009206276373
-0.5877520917575707
-0.390808982477564
-0.5446707866025856
-0.6369878690775933
-0.5138984257775646
-0.15078456804251686
0.09539431855751236
0.40927239897256545
0.31695531649755804
0.35388214948756086
0.5446707866025856
0.4892805371175811
0.6308333969125834
0.8093130896976164
1.073955392792647
0.9077846443376336
0.8216220340276081
0.7108415350575992
0.5939065639225805
0.3846545103125543
0.16309351237253633
0.18155692886753785
0.7908496732026148
-0.15693904020752658
-0.13232115154751534
-0.1015487907225221
-0.033849596907498114
-0.05231301340249961
-0.2061748175275213
-0.6369878690775933
-0.46466264845757
-0.538516314437576
-0.7723862567076134
-0.9385570051626267
-0.7846952010376053
-0.3415732051575415
0.10770326288750408
0.3108008443325483
0.30464637216753854
0.37850003814754446
0.40927239897256545
0.30464637216753854
0.17540245670252808
0.14463009587750708
0.15693904020752658
0.14463009587750708
-0.11385773505251384
-0.13232115154751534
-0.10770326288750408
-0.1261666793825056
-0.08308537422752059
-0.04615854123751762
-0.0707764298975011
-0.003077236082504875
-0.003077236082504875
0.0707764298975011
0.10770326288750408
0.05846748556750937
0.07693090206251085
0.05231301340249961
0.01538618041249662
0.2000203453625393
0.26156506701252585
0.3108008443325483
0.40927239897256545
0.4831260649525715
0.5077439536125827
0.5446707866025856
0.5508252587675677
0.538516314437576
0.5692886752625692
0.6308333969125834
0.6616057577376044
0.5692886752625692
0.29233742783754685
-0.15078456804251686
-0.4400447597975588
-0.4708171206225797
-0.5015894814475731
-0.46466264845757
-0.47697159278756174
-0.5508252587675677
-0.5569797309325777
-0.575443147427579
-0.6369878690775933
-0.40927239897256545
-0.6185244525825918
-0.6616057577376044
-0.5631342030975872
-0.5138984257775646
-0.5077439536125827
-0.6554512855725947
-0.7169960072226089
-0.6492968134075847
-0.5815976195925888
-0.6923781185625978
-0.8154675618626261
-0.6000610360875902
-0.31695531649755804
-0.34772767732255133
-0.3723455659825625
-0.28618295567253704
-0.26156506701252585
-0.2061748175275213
-0.11385773505251384
-0.04615854123751762
-0.01538618041249662
-0.009231708247514623
-0.05846748556750937
-0.02154065257750637
-0.08923984639250257
-0.13232115154751534
-0.1261666793825056
-0.12001220721752358
-0.1261666793825056
-0.2246382340225228
-0.21232928969253104
-0.18155692886753785
-0.1938658731975296
-0.23079270618753256
-0.3415732051575415
-0.21232928969253104
-0.17540245670252808
-0.1938658731975296
-0.1938658731975296
-0.1384756237125251
-0.13232115154751534
-0.1384756237125251
-0.13232115154751534
-0.09539431855751236
-0.04615854123751762
-0.01538618041249662
0.009231708247514623
0.05846748556750937
0.04000406907250786
-0.05846748556750937
0.05846748556750937
0.1261666793825056
0.12001220721752358
0.16309351237253633
0.15693904020752658
0.1261666793825056
0.0707764298975011
0.3723455659825625
1.000101726812641
0.04000406907250786
