3.732687368073029
3.7142239515780275
3.781923145393024
3.7757686732280415
3.7757686732280415
3.7757686732280415
3.763459728898022
3.75730525673304
3.738841840238039
3.7265328959080186
3.720378423743037
3.6465247577630033
3.658833702093023
3.6280613412680016
3.677297118588024
3.8065410340530352
3.9173215330230438
4.052719920653064
4.157345947458091
4.108110170138069
3.9173215330230438
3.671142646423015
3.560362147453006
3.578825563948007
3.6219068691030203
3.6280613412680016
3.6034434526080172
3.634215813433012
3.6649881742580046
3.6896060629180156
3.695760535083026
3.701915007248036
3.7942320897230433
4.575850054678144
5.388240380458265
5.529793240253267
5.560565601078289
5.585183489738299
5.591337961903281
5.597492434068291
5.6036469062333
5.6036469062333
5.6036469062333
5.6036469062333
5.591337961903281
5.579029017573289
5.585183489738299
5.560565601078289
5.554411128913278
5.542102184583286
5.535947712418277
5.529793240253267
5.529793240253267
5.511329823758264
5.505175351593283
5.486711935098282
5.480557462933272
5.474402990768261
5.462094046438272
5.449785102108279
5.431321685613277
5.425167213448267
5.406703796953265
5.388240380458265
5.375931436128245
5.375931436128245
5.357468019633243
5.345159075303252
5.345159075303252
5.33285013097326
5.308232242313249
5.295923297983257
5.289768825818246
5.283614353653239
5.265150937158236
5.258996464993254
5.252841992828244
5.252841992828244
5.228224104168233
5.209760687673231
5.19129727117823
5.172833854683229
5.160524910353237
5.148215966023217
5.135907021693225
5.111289133033214
5.098980188703223
5.080516772208221
5.062053355713221
5.043589939218219
5.018972050558207
5.006663106228215
4.982045217568204
4.975890745403193
4.963581801073202
4.951272856743211
4.93896391241319
4.932809440248209
4.91434602375318
4.908191551588198
4.908191551588198
4.895882607258178
4.889728135093197
4.889728135093197
4.877419190763177
4.871264718598195
4.8651102464331855
4.8528013021031935
4.846646829938186
4.834337885608192
4.834337885608192
4.834337885608192
4.822028941278172
4.822028941278172
4.809719996948181
4.809719996948181
4.803565524783171
4.7912565804531795
4.778947636123188
4.766638691793168
4.766638691793168
4.748175275298167
4.748175275298167
4.735866330968175
4.735866330968175
4.717402914473172
4.723557386638154
4.711248442308165
4.698939497978172
4.692785025813162
4.686630553648152
4.686630553648152
4.662012664988168
4.588158999008135
4.668167137153151
4.662012664988168
4.662012664988168
4.655858192823159
4.649703720658149
4.649703720658149
4.637394776328158
4.625085831998166
4.618931359833156
4.618931359833156
4.618931359833156
4.606622415503137
4.6004679433381535
4.5943134711731455
4.5943134711731455
4.606622415503137
4.606622415503137
4.6004679433381535
4.5943134711731455
4.5943134711731455
4.5820045268431535
4.569695582513134
4.563541110348153
4.551232166018132
4.538923221688139
4.538923221688139
4.5327687495231315
4.52661427735815
4.52661427735815
4.52661427735815
4.520459805193139
4.514305333028129
4.508150860863147
4.508150860863147
4.501996388698137
4.501996388698137
4.501996388698137
4.489687444368147
4.483532972203136
4.477378500038126
4.477378500038126
4.477378500038126
4.483532972203136
4.477378500038126
4.465069555708134
4.465069555708134
4.458915083543125
4.452760611378115
4.440451667048122
4.40967930622313
4.3727524732331275
4.37890694539811
4.495841916533129
4.618931359833156
4.735866330968175
4.840492357773174
4.858955774268176
4.698939497978172
4.489687444368147
4.348134584573115
4.341980112408105
4.385061417563119
4.397370361893111
4.37890694539811
4.37890694539811
4.391215889728128
4.397370361893111
4.397370361893111
4.391215889728128
4.385061417563119
4.391215889728128
4.397370361893111
4.391215889728128
4.391215889728128
4.385061417563119
4.397370361893111
4.385061417563119
4.37890694539811
4.385061417563119
4.391215889728128
4.385061417563119
4.385061417563119
4.385061417563119
4.37890694539811
4.37890694539811
4.3727524732331275
4.385061417563119
4.385061417563119
4.385061417563119
4.391215889728128
4.385061417563119
4.37890694539811
4.3727524732331275
4.3727524732331275
4.37890694539811
4.385061417563119
4.385061417563119
4.391215889728128
4.385061417563119
4.391215889728128
4.385061417563119
4.385061417563119
4.391215889728128
4.397370361893111
4.391215889728128
4.385061417563119
4.397370361893111
4.391215889728128
4.397370361893111
4.40352483405812
4.391215889728128
4.385061417563119
4.385061417563119
4.37890694539811
4.385061417563119
4.37890694539811
4.366598001068117
4.366598001068117
4.360443528903107
4.354289056738125
4.329671168078114
4.27428091859311
4.329671168078114
4.323516695913104
4.305053279418103
4.3112077515831135
4.298898807253093
4.292744335088111
4.298898807253093
4.298898807253093
4.2865898629231
4.2865898629231
4.280435390758093
4.280435390758093
4.27428091859311
4.280435390758093
4.280435390758093
4.27428091859311
4.2865898629231
4.2865898629231
4.280435390758093
4.280435390758093
4.2865898629231
4.280435390758093
4.2865898629231
4.2865898629231
4.2865898629231
4.280435390758093
4.280435390758093
4.292744335088111
4.2865898629231
4.2865898629231
4.2865898629231
4.2865898629231
4.280435390758093
4.280435390758093
4.280435390758093
4.280435390758093
4.2865898629231
4.280435390758093
4.27428091859311
4.280435390758093
4.280435390758093
4.27428091859311
4.2865898629231
4.2865898629231
4.2865898629231
4.2865898629231
4.27428091859311
4.280435390758093
4.280435390758093
4.280435390758093
4.27428091859311
4.280435390758093
4.27428091859311
4.27428091859311
4.27428091859311
4.280435390758093
4.249663029933098
4.2065817247780855
4.27428091859311
4.27428091859311
4.280435390758093
4.280435390758093
4.280435390758093
4.280435390758093
4.2681264464281
4.2681264464281
4.2681264464281
4.280435390758093
4.2865898629231
4.298898807253093
4.2865898629231
4.280435390758093
4.280435390758093
4.27428091859311
4.27428091859311
4.27428091859311
4.2681264464281
4.261971974263091
4.261971974263091
4.255817502098108
4.249663029933098
4.255817502098108
4.255817502098108
4.255817502098108
4.261971974263091
4.261971974263091
4.261971974263091
4.261971974263091
4.261971974263091
4.255817502098108
4.255817502098108
4.255817502098108
4.261971974263091
4.261971974263091
4.255817502098108
4.261971974263091
4.261971974263091
4.261971974263091
4.261971974263091
4.255817502098108
4.249663029933098
4.225045141273086
4.188118308283084
4.181963836118102
4.280435390758093
4.40352483405812
4.520459805193139
4.637394776328158
4.717402914473172
4.6004679433381535
4.397370361893111
4.212736196943095
4.188118308283084
4.200427252613103
4.225045141273086
4.2065817247780855
4.200427252613103
4.225045141273086
4.231199613438097
4.231199613438097
4.218890669108104
4.169654891788083
4.237354085603107
4.243508557768089
4.249663029933098
4.249663029933098
4.243508557768089
4.243508557768089
4.243508557768089
4.249663029933098
4.255817502098108
4.261971974263091
4.255817502098108
4.261971974263091
4.255817502098108
4.255817502098108
4.249663029933098
4.261971974263091
4.261971974263091
4.2681264464281
4.2681264464281
4.261971974263091
4.261971974263091
4.255817502098108
4.163500419623101
3.9665573103430645
3.8680857557030492
3.8065410340530352
3.7696142010630322
3.738841840238039
3.7142239515780275
3.695760535083026
3.695760535083026
3.6896060629180156
3.6896060629180156
3.6834515907530063
3.6834515907530063
3.6834515907530063
3.677297118588024
3.6896060629180156
3.6896060629180156
3.6896060629180156
3.695760535083026
3.701915007248036
3.6896060629180156
3.6834515907530063
3.671142646423015
3.738841840238039
4.145037003128072
4.335825640243124
4.3727524732331275
4.3727524732331275
4.385061417563119
4.37890694539811
4.3727524732331275
4.3727524732331275
4.366598001068117
4.366598001068117
4.360443528903107
4.354289056738125
4.354289056738125
4.354289056738125
4.348134584573115
4.348134584573115
4.354289056738125
4.354289056738125
4.354289056738125
4.354289056738125
4.354289056738125
4.348134584573115
4.341980112408105
4.348134584573115
4.341980112408105
4.341980112408105
4.341980112408105
4.341980112408105
4.341980112408105
4.348134584573115
4.348134584573115
4.348134584573115
4.348134584573115
4.341980112408105
4.348134584573115
4.335825640243124
4.341980112408105
4.335825640243124
4.341980112408105
4.329671168078114
4.335825640243124
4.341980112408105
4.341980112408105
4.335825640243124
4.335825640243124
4.329671168078114
4.323516695913104
4.3173622237481215
4.323516695913104
4.3173622237481215
4.3173622237481215
4.323516695913104
4.3173622237481215
4.3112077515831135
4.3173622237481215
4.3173622237481215
4.3173622237481215
4.3112077515831135
4.3112077515831135
4.3173622237481215
4.305053279418103
4.3112077515831135
4.3112077515831135
4.3112077515831135
4.3112077515831135
4.3112077515831135
4.305053279418103
4.305053279418103
4.298898807253093
4.298898807253093
4.298898807253093
4.298898807253093
4.305053279418103
4.305053279418103
4.2865898629231
4.231199613438097
4.292744335088111
4.3112077515831135
4.3112077515831135
4.3112077515831135
4.305053279418103
4.298898807253093
4.298898807253093
4.298898807253093
4.292744335088111
4.280435390758093
4.27428091859311
4.27428091859311
4.280435390758093
4.27428091859311
4.2681264464281
4.2681264464281
4.261971974263091
4.261971974263091
4.2681264464281
4.2681264464281
4.2681264464281
4.2681264464281
4.2681264464281
4.200427252613103
3.9973296711680604
3.874240227868059
3.8188499783830263
3.7696142010630322
3.732687368073029
3.7080694794130173
3.6896060629180156
3.6649881742580046
3.634215813433012
3.591134508277999
3.5357442587929944
3.511126370132983
3.5849800361130173
3.701915007248036
3.8188499783830263
3.9357849495180455
4.028102031993082
3.9357849495180455
3.7142239515780275
3.486508481473
3.406500343327984
3.4311182319879947
3.4434271763179867
3.412654815492993
3.424963759822985
3.437272704152977
3.4434271763179867
3.4434271763179867
3.4434271763179867
3.4434271763179867
3.4434271763179867
3.437272704152977
3.4311182319879947
3.4311182319879947
3.4311182319879947
3.4434271763179867
3.4434271763179867
3.4434271763179867
3.4311182319879947
3.449581648482997
3.449581648482997
3.449581648482997
3.449581648482997
3.449581648482997
3.449581648482997
3.4434271763179867
3.449581648482997
3.449581648482997
3.4618905928129893
3.4618905928129893
3.4618905928129893
3.48035400930799
3.48035400930799
3.4926629536379816
3.4988174258029914
3.504971897968001
3.511126370132983
3.5172808422979926
3.5172808422979926
3.529589786627985
3.5357442587929944
3.548053203123014
3.5357442587929944
3.548053203123014
3.5542076752879965
3.5542076752879965
3.5665166196180156
3.572671091782997
3.5665166196180156
3.572671091782997
3.5849800361130173
3.5849800361130173
3.5849800361130173
3.5972889804430093
3.591134508277999
3.5972889804430093
3.6034434526080172
3.591134508277999
3.6034434526080172
3.591134508277999
3.591134508277999
3.5849800361130173
3.572671091782997
3.578825563948007
3.5665166196180156
3.560362147453006
3.560362147453006
3.548053203123014
3.5542076752879965
3.541898730958004
3.541898730958004
3.548053203123014
3.548053203123014
3.5542076752879965
3.560362147453006
3.5542076752879965
3.529589786627985
3.486508481473
3.548053203123014
3.5542076752879965
3.529589786627985
3.4618905928129893
3.541898730958004
3.5665166196180156
3.560362147453006
3.572671091782997
3.5665166196180156
3.5542076752879965
3.541898730958004
3.511126370132983
3.5172808422979926
3.4988174258029914
3.4988174258029914
3.48035400930799
3.48035400930799
3.48035400930799
3.468045064977998
3.468045064977998
3.4618905928129893
3.449581648482997
3.449581648482997
3.4434271763179867
3.437272704152977
3.437272704152977
3.4311182319879947
3.4311182319879947
3.437272704152977
3.437272704152977
3.4311182319879947
3.437272704152977
3.4311182319879947
3.437272704152977
3.4311182319879947
3.424963759822985
3.437272704152977
3.4311182319879947
3.4434271763179867
3.437272704152977
3.4311182319879947
3.4311182319879947
3.424963759822985
3.424963759822985
3.424963759822985
3.418809287657976
3.412654815492993
3.418809287657976
3.4311182319879947
3.418809287657976
3.424963759822985
3.4311182319879947
3.4434271763179867
3.449581648482997
3.4557361206479786
3.4618905928129893
3.4618905928129893
3.468045064977998
3.4741995371429804
3.4618905928129893
3.4618905928129893
3.4557361206479786
3.449581648482997
3.4434271763179867
3.449581648482997
3.437272704152977
3.4434271763179867
3.4741995371429804
3.4741995371429804
3.4741995371429804
3.48035400930799
3.48035400930799
3.4618905928129893
3.4618905928129893
3.4741995371429804
3.468045064977998
3.48035400930799
3.486508481473
3.48035400930799
3.48035400930799
3.48035400930799
3.486508481473
3.504971897968001
3.4988174258029914
3.4988174258029914
3.4926629536379816
3.48035400930799
3.4557361206479786
3.4434271763179867
3.5234353144630024
3.658833702093023
3.800386561888025
3.9419394216830552
4.040410976323072
3.948093893848065
3.7449963124030208
3.5234353144630024
3.449581648482997
3.4618905928129893
3.48035400930799
3.468045064977998
3.486508481473
3.4988174258029914
3.504971897968001
3.4988174258029914
3.504971897968001
3.504971897968001
3.504971897968001
3.511126370132983
3.5234353144630024
3.5172808422979926
3.5234353144630024
3.529589786627985
3.5357442587929944
3.548053203123014
3.5542076752879965
3.5542076752879965
3.560362147453006
3.5665166196180156
3.5665166196180156
3.560362147453006
3.5172808422979926
3.591134508277999
3.6034434526080172
3.6034434526080172
3.609597924773
3.6034434526080172
3.609597924773
3.5972889804430093
3.61575239693801
3.6280613412680016
3.6280613412680016
3.634215813433012
3.634215813433012
3.6465247577630033
3.652679229928013
3.6465247577630033
3.652679229928013
3.671142646423015
3.671142646423015
3.677297118588024
3.6834515907530063
3.6896060629180156
3.701915007248036
3.701915007248036
3.7142239515780275
3.7080694794130173
3.720378423743037
3.7142239515780275
3.7265328959080186
3.732687368073029
3.732687368073029
3.738841840238039
3.7449963124030208
3.75730525673304
3.75115078456803
3.7449963124030208
3.75115078456803
3.75115078456803
3.7449963124030208
3.75115078456803
3.75115078456803
3.7449963124030208
3.7449963124030208
3.738841840238039
3.7449963124030208
3.738841840238039
3.738841840238039
3.75115078456803
3.7696142010630322
3.7757686732280415
3.8065410340530352
3.825004450548036
3.843467867043037
3.855776811373057
3.874240227868059
3.874240227868059
3.905012588693053
3.9234760051880535
3.9296304773530633
3.9296304773530633
3.9357849495180455
3.9419394216830552
3.948093893848065
3.9542483660130467
3.9727117825080467
3.9727117825080467
3.9604028381780574
3.948093893848065
4.089646753643067
5.283614353653239
6.065232318608365
6.151394928918363
6.169858345413365
6.194476234073376
6.212939650568378
6.212939650568378
6.219094122733385
6.219094122733385
6.212939650568378
6.200630706238385
6.194476234073376
6.188321761908366
6.169858345413365
6.151394928918363
6.126777040258352
6.114468095928361
6.09600467943336
6.071386790773348
6.052923374278346
6.034459957783346
6.022151013453353
6.009842069123361
5.98522418046335
5.972915236133329
5.960606291803339
5.935988403143328
5.911370514483344
5.905216042318334
5.892907097988342
5.886752625823332
5.874443681493341
5.84367132066832
5.831362376338328
5.806744487678317
5.788281071183316
5.763663182523304
5.73904529386332
5.7082729330383
5.683655044378289
5.6898095165432965
5.677500572213306
5.646728211388286
5.628264794893284
5.622110322728302
5.6036469062333
5.585183489738299
5.572874545408279
5.548256656748296
5.535947712418277
5.523638768088285
5.499020879428274
5.474402990768261
5.406703796953265
5.437476157778259
5.425167213448267
5.419012741283257
5.4005493247882566
5.388240380458265
5.369776963963263
5.351313547468262
5.33285013097326
5.308232242313249
5.271305409323245
5.228224104168233
5.258996464993254
5.363622491798253
5.455939574273261
5.535947712418277
5.579029017573289
5.474402990768261
5.289768825818246
5.117443605198224
5.043589939218219
5.080516772208221
5.123598077363234
5.123598077363234
5.080516772208221
5.068207827878203
5.086671244373231
5.086671244373231
5.068207827878203
5.0497444113832
5.043589939218219
5.0312809948882
5.018972050558207
5.018972050558207
5.006663106228215
4.994354161898196
4.994354161898196
4.975890745403193
4.975890745403193
4.963581801073202
4.951272856743211
4.945118384578201
4.932809440248209
4.9266549680832
4.91434602375318
4.91434602375318
4.902037079423188
4.895882607258178
4.877419190763177
4.871264718598195
4.877419190763177
4.8651102464331855
4.8651102464331855
4.8528013021031935
4.846646829938186
4.840492357773174
4.834337885608192
4.828183413443182
4.822028941278172
4.822028941278172
4.809719996948181
4.809719996948181
4.797411052618189
4.785102108288171
4.7912565804531795
4.785102108288171
4.785102108288171
4.785102108288171
4.778947636123188
4.766638691793168
4.760484219628157
4.735866330968175
4.68047608148317
4.7297118588031655
4.735866330968175
4.723557386638154
4.723557386638154
4.711248442308165
4.698939497978172
4.68047608148317
4.649703720658149
4.6435492484931675
4.631240304163148
4.631240304163148
4.606622415503137
4.6004679433381535
4.588158999008135
4.5820045268431535
4.569695582513134
4.569695582513134
4.557386638183142
4.557386638183142
4.54507769385315
4.538923221688139
4.538923221688139
4.52661427735815
4.5327687495231315
4.5327687495231315
4.52661427735815
4.520459805193139
4.520459805193139
4.520459805193139
4.514305333028129
4.508150860863147
4.514305333028129
4.508150860863147
4.501996388698137
4.501996388698137
4.501996388698137
4.501996388698137
4.495841916533129
4.489687444368147
4.483532972203136
4.477378500038126
4.477378500038126
4.465069555708134
4.471224027873144
4.465069555708134
4.465069555708134
4.465069555708134
4.465069555708134
4.446606139213133
4.37890694539811
4.446606139213133
4.452760611378115
4.452760611378115
4.434297194883113
4.428142722718132
4.428142722718132
4.421988250553122
4.428142722718132
4.428142722718132
4.421988250553122
4.428142722718132
4.415833778388112
4.415833778388112
4.415833778388112
4.415833778388112
4.40967930622313
4.421988250553122
4.421988250553122
4.415833778388112
4.40352483405812
4.27428091859311
4.101955697973087
4.028102031993082
3.9973296711680604
4.003484143333068
4.1327280587980795
4.114264642303079
4.0465654484880815
4.009638615498079
4.015793087663061
4.015793087663061
4.015793087663061
4.021947559828071
4.034256504158063
4.021947559828071
4.015793087663061
4.034256504158063
4.040410976323072
4.021947559828071
4.003484143333068
3.9911751990030497
3.9788662546730578
3.9727117825080467
3.9788662546730578
3.9850207268380675
3.9727117825080467
3.9788662546730578
3.9911751990030497
4.034256504158063
4.3112077515831135
4.52661427735815
4.618931359833156
4.735866330968175
4.9266549680832
5.142061493858235
5.345159075303252
5.511329823758264
5.6036469062333
5.474402990768261
5.203606215508222
4.93896391241319
4.846646829938186
4.840492357773174
4.8528013021031935
4.822028941278172
4.809719996948181
4.822028941278172
4.846646829938186
4.846646829938186
4.828183413443182
4.822028941278172
4.822028941278172
4.822028941278172
4.822028941278172
4.809719996948181
4.809719996948181
4.81587446911319
4.803565524783171
4.809719996948181
4.797411052618189
4.797411052618189
4.797411052618189
4.803565524783171
4.803565524783171
4.7912565804531795
4.7912565804531795
4.797411052618189
4.7912565804531795
4.7912565804531795
4.7912565804531795
4.7912565804531795
4.797411052618189
4.785102108288171
4.797411052618189
4.797411052618189
4.797411052618189
4.7912565804531795
4.785102108288171
4.785102108288171
4.7912565804531795
4.7912565804531795
4.7912565804531795
4.797411052618189
4.803565524783171
4.803565524783171
4.7912565804531795
4.797411052618189
4.803565524783171
4.803565524783171
4.803565524783171
4.803565524783171
4.803565524783171
4.7912565804531795
4.7912565804531795
4.785102108288171
4.778947636123188
4.766638691793168
4.760484219628157
4.7420208031331565
4.662012664988168
4.243508557768089
2.9387604587879093
2.2679229928028177
2.175605910327811
2.187914854657802
2.2925408814628288
2.378703491772827
2.3971669082678284
2.391012436102846
2.3848579639378364
2.378703491772827
2.3848579639378364
2.372549019607845
2.372549019607845
2.372549019607845
2.360240075277825
2.3540856031128428
2.335622186617841
2.3110042979578305
2.304849825792821
2.304849825792821
2.3110042979578305
2.323313242287821
2.323313242287821
2.323313242287821
2.335622186617841
2.3417766587828237
2.3540856031128428
2.3663945474428347
2.3848579639378364
2.409475852597848
2.409475852597848
2.4217847969278394
2.4279392690928487
2.4402482134228407
2.4525571577528327
2.4648661020828517
2.471020574247862
2.4894839907428636
2.495638462907845
2.501792935072855
2.520256351567857
2.5325652958978484
2.538719768062857
2.538719768062857
2.563337656722869
2.575646601052861
2.581801073217871
2.5941100175478624
2.6064189618778553
2.618727906207874
2.631036850537866
2.631036850537866
2.649500267032867
2.6618092113628857
2.6618092113628857
2.68642710002287
2.68642710002287
2.711044988682881
2.735662877342893
2.760280766002876
2.772589710332896
2.7848986546628876
2.7910531268278973
2.797207598992907
2.821825487652891
2.834134431982911
2.834134431982911
2.8402889041478923
2.8464433763129016
2.858752320642893
2.871061264972913
2.8895246814679143
2.901833625797906
2.907988097962916
2.9202970422929075
2.9387604587879093
2.9572238752829105
2.9572238752829105
2.981841763942921
2.994150708272913
3.006459652602933
3.0249230690979347
3.043386485592936
3.0618499020879373
3.080313318582939
3.1049312072429505
3.1295490959029335
3.166475928892937
3.197248289717957
3.234175122707961
3.264947483532954
3.289565372192965
3.271101955697964
3.2403295948729705
3.264947483532954
3.406500343327984
3.591134508277999
3.7942320897230433
3.9850207268380675
4.077337809313075
3.8927036443630603
3.61575239693801
3.418809287657976
3.437272704152977
3.511126370132983
3.548053203123014
3.548053203123014
3.5849800361130173
3.652679229928013
3.6896060629180156
3.7080694794130173
3.7080694794130173
3.701915007248036
3.671142646423015
3.6649881742580046
3.671142646423015
3.652679229928013
3.652679229928013
3.640370285598021
3.6280613412680016
3.61575239693801
3.578825563948007
3.4988174258029914
3.5357442587929944
3.5172808422979926
3.4988174258029914
3.4988174258029914
3.4926629536379816
3.4988174258029914
3.4988174258029914
3.504971897968001
3.504971897968001
3.511126370132983
3.511126370132983
3.5234353144630024
3.529589786627985
3.529589786627985
3.548053203123014
3.560362147453006
3.548053203123014
3.4926629536379816
3.560362147453006
3.591134508277999
3.5972889804430093
3.5972889804430093
3.6034434526080172
3.609597924773
3.6034434526080172
3.609597924773
3.6280613412680016
3.652679229928013
3.658833702093023
3.658833702093023
3.671142646423015
3.671142646423015
3.671142646423015
3.6834515907530063
3.6834515907530063
3.6834515907530063
3.6896060629180156
3.6896060629180156
3.677297118588024
3.671142646423015
3.652679229928013
3.652679229928013
3.6465247577630033
3.6465247577630033
3.640370285598021
3.6219068691030203
3.61575239693801
3.5972889804430093
3.6034434526080172
3.5972889804430093
3.5849800361130173
3.578825563948007
3.578825563948007
3.572671091782997
3.572671091782997
3.572671091782997
3.572671091782997
3.578825563948007
3.578825563948007
3.591134508277999
3.5972889804430093
3.609597924773
3.609597924773
3.6219068691030203
3.609597924773
3.6034434526080172
3.6034434526080172
3.61575239693801
3.609597924773
3.6280613412680016
3.6280613412680016
3.61575239693801
3.6280613412680016
3.6280613412680016
3.634215813433012
3.634215813433012
3.634215813433012
3.634215813433012
3.6465247577630033
3.6465247577630033
3.640370285598021
3.658833702093023
3.6649881742580046
3.6649881742580046
3.671142646423015
3.677297118588024
3.6834515907530063
3.701915007248036
3.7142239515780275
3.732687368073029
3.763459728898022
3.7942320897230433
3.8188499783830263
3.8496223392080475
3.8803947000330408
3.8988581165280416
3.9357849495180455
3.9911751990030497
4.034256504158063
4.065028864983084
4.095801225808079
4.120419114468088
4.157345947458091
4.1758093639530935
4.200427252613103
4.212736196943095
4.218890669108104
4.237354085603107
4.249663029933098
4.243508557768089
4.255817502098108
4.2681264464281
4.280435390758093
4.2865898629231
4.2865898629231
4.2865898629231
4.292744335088111
4.298898807253093
4.280435390758093
4.27428091859311
4.249663029933098
4.188118308283084
4.249663029933098
4.255817502098108
4.249663029933098
4.255817502098108
4.249663029933098
4.261971974263091
4.261971974263091
4.261971974263091
4.231199613438097
4.181963836118102
4.12657358663307
4.181963836118102
4.335825640243124
4.52661427735815
4.705093970143154
4.871264718598195
4.8651102464331855
4.612776887668146
4.3173622237481215
4.1327280587980795
4.151191475293081
4.181963836118102
4.188118308283084
4.169654891788083
4.188118308283084
4.2065817247780855
4.212736196943095
4.188118308283084
4.188118308283084
4.181963836118102
4.188118308283084
4.188118308283084
4.1942727804480935
4.2065817247780855
4.212736196943095
4.243508557768089
4.2681264464281
4.2865898629231
4.305053279418103
4.329671168078114
4.3727524732331275
4.397370361893111
4.421988250553122
4.428142722718132
4.452760611378115
4.452760611378115
4.495841916533129
4.495841916533129
4.52661427735815
4.54507769385315
4.551232166018132
4.575850054678144
4.6004679433381535
4.625085831998166
4.6004679433381535
4.588158999008135
4.6004679433381535
4.618931359833156
4.649703720658149
4.655858192823159
4.655858192823159
4.67432160931816
4.705093970143154
4.711248442308165
4.760484219628157
4.809719996948181
4.822028941278172
4.81587446911319
4.778947636123188
4.772793163958178
4.766638691793168
4.760484219628157
4.772793163958178
4.785102108288171
4.7912565804531795
4.778947636123188
4.778947636123188
4.778947636123188
4.785102108288171
4.828183413443182
4.840492357773174
4.840492357773174
4.822028941278172
4.822028941278172
4.828183413443182
4.828183413443182
4.828183413443182
4.828183413443182
4.822028941278172
4.822028941278172
4.822028941278172
4.828183413443182
4.81587446911319
4.809719996948181
4.809719996948181
4.809719996948181
4.797411052618189
4.785102108288171
4.772793163958178
4.760484219628157
4.766638691793168
4.772793163958178
4.778947636123188
4.760484219628157
4.7420208031331565
4.735866330968175
4.7297118588031655
4.692785025813162
4.698939497978172
4.698939497978172
4.68047608148317
4.668167137153151
4.655858192823159
4.655858192823159
4.637394776328158
4.637394776328158
4.625085831998166
4.612776887668146
4.618931359833156
4.606622415503137
4.5943134711731455
4.5327687495231315
4.618931359833156
4.631240304163148
4.637394776328158
4.6435492484931675
4.625085831998166
4.618931359833156
4.618931359833156
4.588158999008135
4.569695582513134
4.557386638183142
4.563541110348153
4.563541110348153
4.54507769385315
4.5327687495231315
4.520459805193139
4.489687444368147
4.495841916533129
4.508150860863147
4.501996388698137
4.489687444368147
4.477378500038126
4.452760611378115
4.428142722718132
4.40967930622313
4.391215889728128
4.354289056738125
4.298898807253093
4.261971974263091
4.225045141273086
4.218890669108104
4.163500419623101
4.1327280587980795
4.108110170138069
4.0711833371480655
4.0465654484880815
4.0465654484880815
4.040410976323072
4.040410976323072
4.015793087663061
4.003484143333068
3.9911751990030497
3.9788662546730578
3.9604028381780574
3.948093893848065
3.948093893848065
3.9419394216830552
3.9296304773530633
3.9234760051880535
3.9173215330230438
3.905012588693053
3.8619312835380395
3.800386561888025
3.800386561888025
3.9111670608580615
4.095801225808079
4.27428091859311
4.440451667048122
4.557386638183142
4.391215889728128
4.101955697973087
3.843467867043037
3.7757686732280415
3.8188499783830263
3.843467867043037
3.8126955062180454
3.781923145393024
3.800386561888025
3.8188499783830263
3.8188499783830263
3.8065410340530352
3.800386561888025
3.7942320897230433
3.7942320897230433
3.8065410340530352
3.831158922713046
3.831158922713046
3.831158922713046
3.831158922713046
3.831158922713046
3.837313394878028
3.843467867043037
3.8496223392080475
3.8680857557030492
3.874240227868059
3.8803947000330408
3.8188499783830263
3.8803947000330408
3.9111670608580615
3.9234760051880535
3.948093893848065
3.9788662546730578
4.028102031993082
4.015793087663061
4.003484143333068
3.9973296711680604
3.9973296711680604
4.009638615498079
4.015793087663061
4.028102031993082
4.0465654484880815
4.058874392818074
4.0711833371480655
4.083492281478085
4.089646753643067
4.101955697973087
4.120419114468088
4.1327280587980795
4.151191475293081
4.151191475293081
4.157345947458091
4.163500419623101
4.1758093639530935
4.181963836118102
4.188118308283084
4.200427252613103
4.2065817247780855
4.2065817247780855
4.200427252613103
4.212736196943095
4.2065817247780855
4.181963836118102
4.120419114468088
4.181963836118102
4.1758093639530935
4.157345947458091
4.157345947458091
4.157345947458091
4.169654891788083
4.169654891788083
4.157345947458091
4.163500419623101
4.157345947458091
4.138882530963089
4.114264642303079
4.101955697973087
4.089646753643067
4.083492281478085
4.089646753643067
4.058874392818074
4.021947559828071
3.9788662546730578
3.9542483660130467
3.9419394216830552
3.9296304773530633
3.905012588693053
3.8927036443630603
3.8803947000330408
3.855776811373057
3.837313394878028
3.843467867043037
3.843467867043037
3.855776811373057
3.886549172198051
3.9296304773530633
3.948093893848065
3.9604028381780574
3.9788662546730578
4.003484143333068
4.015793087663061
4.034256504158063
4.040410976323072
4.021947559828071
4.009638615498079
4.009638615498079
4.021947559828071
4.021947559828071
4.028102031993082
4.028102031993082
4.028102031993082
4.028102031993082
4.021947559828071
4.028102031993082
4.034256504158063
4.0465654484880815
4.040410976323072
4.040410976323072
4.0465654484880815
4.077337809313075
4.108110170138069
4.12657358663307
4.145037003128072
4.138882530963089
4.138882530963089
4.157345947458091
4.188118308283084
4.218890669108104
4.218890669108104
4.249663029933098
4.3112077515831135
4.3727524732331275
4.471224027873144
4.538923221688139
4.6004679433381535
4.612776887668146
4.575850054678144
4.575850054678144
4.563541110348153
4.5820045268431535
4.649703720658149
4.67432160931816
4.698939497978172
4.735866330968175
4.735866330968175
4.748175275298167
4.81587446911319
4.91434602375318
5.025126522723218
5.117443605198224
5.234378576333243
5.33285013097326
5.406703796953265
5.437476157778259
5.394394852623274
5.382085908293255
5.455939574273261
5.6036469062333
5.73904529386332
5.868289209328331
5.966760763968348
5.905216042318334
5.634419267058294
5.326695658808251
5.19129727117823
5.265150937158236
5.33285013097326
5.363622491798253
5.31438671447826
5.31438671447826
5.3390046031382425
5.351313547468262
5.363622491798253
5.369776963963263
5.357468019633243
5.3390046031382425
5.308232242313249
5.295923297983257
5.258996464993254
5.234378576333243
5.234378576333243
5.203606215508222
5.172833854683229
5.148215966023217
5.111289133033214
5.018972050558207
5.0312809948882
5.018972050558207
4.982045217568204
4.963581801073202
4.91434602375318
4.895882607258178
4.9266549680832
4.91434602375318
4.902037079423188
4.902037079423188
4.889728135093197
4.902037079423188
4.889728135093197
4.8528013021031935
4.8528013021031935
4.8651102464331855
4.932809440248209
4.92050049591819
4.8651102464331855
4.797411052618189
4.723557386638154
4.67432160931816
4.631240304163148
4.575850054678144
4.54507769385315
4.5327687495231315
4.508150860863147
4.471224027873144
4.415833778388112
4.3727524732331275
4.3727524732331275
4.3727524732331275
4.366598001068117
4.366598001068117
4.335825640243124
4.3112077515831135
4.3112077515831135
4.27428091859311
4.243508557768089
4.249663029933098
4.237354085603107
4.1942727804480935
4.163500419623101
4.157345947458091
4.1327280587980795
4.145037003128072
4.138882530963089
4.138882530963089
4.138882530963089
4.12657358663307
4.1327280587980795
4.12657358663307
4.101955697973087
4.077337809313075
4.065028864983084
4.077337809313075
4.065028864983084
4.065028864983084
4.0465654484880815
4.052719920653064
4.058874392818074
4.052719920653064
4.052719920653064
4.052719920653064
4.065028864983084
4.077337809313075
4.101955697973087
4.114264642303079
4.114264642303079
4.12657358663307
4.12657358663307
4.089646753643067
4.065028864983084
4.052719920653064
4.034256504158063
4.021947559828071
4.034256504158063
4.034256504158063
4.040410976323072
4.0465654484880815
4.040410976323072
4.015793087663061
4.003484143333068
4.003484143333068
4.015793087663061
4.015793087663061
4.021947559828071
4.015793087663061
4.015793087663061
4.034256504158063
4.052719920653064
4.058874392818074
4.058874392818074
4.058874392818074
4.052719920653064
4.052719920653064
4.052719920653064
4.040410976323072
4.028102031993082
4.028102031993082
4.040410976323072
4.040410976323072
4.052719920653064
4.034256504158063
4.015793087663061
3.9973296711680604
3.9850207268380675
3.9788662546730578
3.9665573103430645
3.9665573103430645
3.9604028381780574
3.9727117825080467
3.9911751990030497
4.009638615498079
3.9973296711680604
3.9727117825080467
3.9850207268380675
4.009638615498079
4.021947559828071
3.9911751990030497
3.9727117825080467
3.8803947000330408
3.9419394216830552
3.9973296711680604
3.9727117825080467
3.9357849495180455
3.9665573103430645
4.108110170138069
4.249663029933098
4.385061417563119
4.471224027873144
4.415833778388112
4.1942727804480935
3.9419394216830552
3.825004450548036
3.874240227868059
3.9234760051880535
3.9665573103430645
3.948093893848065
3.9542483660130467
3.9788662546730578
3.9911751990030497
4.003484143333068
4.021947559828071
4.034256504158063
4.034256504158063
4.040410976323072
4.040410976323072
4.0465654484880815
4.052719920653064
4.0465654484880815
4.058874392818074
4.058874392818074
3.9788662546730578
3.9788662546730578
4.003484143333068
4.009638615498079
4.003484143333068
4.009638615498079
4.015793087663061
4.003484143333068
3.9911751990030497
4.009638615498079
4.015793087663061
4.021947559828071
4.028102031993082
4.028102031993082
4.040410976323072
4.034256504158063
4.034256504158063
4.0465654484880815
4.040410976323072
4.0465654484880815
4.052719920653064
4.052719920653064
4.052719920653064
4.058874392818074
4.058874392818074
4.0711833371480655
4.0711833371480655
4.089646753643067
4.089646753643067
4.089646753643067
4.089646753643067
4.083492281478085
4.101955697973087
4.101955697973087
4.101955697973087
4.089646753643067
4.0711833371480655
4.0711833371480655
4.077337809313075
4.065028864983084
4.077337809313075
4.0711833371480655
4.052719920653064
4.040410976323072
4.040410976323072
4.0465654484880815
4.052719920653064
4.052719920653064
4.0465654484880815
4.034256504158063
4.034256504158063
4.034256504158063
4.028102031993082
4.021947559828071
4.015793087663061
4.015793087663061
4.028102031993082
4.028102031993082
4.028102031993082
4.040410976323072
4.052719920653064
4.0465654484880815
4.0465654484880815
4.034256504158063
4.0465654484880815
4.058874392818074
4.065028864983084
4.065028864983084
4.065028864983084
4.065028864983084
4.065028864983084
4.065028864983084
4.058874392818074
4.058874392818074
4.065028864983084
4.065028864983084
4.0711833371480655
4.065028864983084
4.0711833371480655
4.083492281478085
4.077337809313075
4.0711833371480655
4.0711833371480655
4.077337809313075
4.0711833371480655
4.077337809313075
4.077337809313075
4.083492281478085
4.083492281478085
4.065028864983084
4.015793087663061
4.101955697973087
4.108110170138069
4.108110170138069
4.089646753643067
4.101955697973087
4.108110170138069
4.1327280587980795
4.138882530963089
4.1327280587980795
4.145037003128072
4.169654891788083
4.151191475293081
4.12657358663307
4.114264642303079
4.12657358663307
4.157345947458091
4.169654891788083
4.1758093639530935
4.169654891788083
4.188118308283084
4.200427252613103
4.212736196943095
4.212736196943095
4.225045141273086
4.231199613438097
4.225045141273086
4.218890669108104
4.231199613438097
4.225045141273086
4.212736196943095
4.200427252613103
4.200427252613103
4.200427252613103
4.188118308283084
4.151191475293081
4.120419114468088
4.1327280587980795
4.237354085603107
4.397370361893111
4.538923221688139
4.692785025813162
4.766638691793168
4.6004679433381535
4.341980112408105
4.101955697973087
4.065028864983084
4.095801225808079
4.120419114468088
4.114264642303079
4.114264642303079
4.145037003128072
4.163500419623101
4.1758093639530935
4.169654891788083
4.1758093639530935
4.1758093639530935
4.1942727804480935
4.1942727804480935
4.1942727804480935
4.1942727804480935
4.212736196943095
4.218890669108104
4.231199613438097
4.243508557768089
4.243508557768089
4.237354085603107
4.280435390758093
4.3112077515831135
4.298898807253093
4.27428091859311
4.292744335088111
4.329671168078114
4.354289056738125
4.329671168078114
4.298898807253093
4.280435390758093
4.280435390758093
4.2681264464281
4.2681264464281
4.27428091859311
4.27428091859311
4.280435390758093
4.292744335088111
4.335825640243124
4.37890694539811
4.37890694539811
4.354289056738125
4.335825640243124
4.335825640243124
4.329671168078114
4.366598001068117
4.37890694539811
4.348134584573115
4.323516695913104
4.3173622237481215
4.3112077515831135
4.305053279418103
4.3112077515831135
4.305053279418103
4.298898807253093
4.292744335088111
4.292744335088111
4.2865898629231
4.27428091859311
4.261971974263091
4.255817502098108
4.255817502098108
4.237354085603107
4.231199613438097
4.212736196943095
4.188118308283084
4.1758093639530935
4.157345947458091
4.157345947458091
4.151191475293081
4.145037003128072
4.151191475293081
4.157345947458091
4.163500419623101
4.181963836118102
4.157345947458091
4.108110170138069
4.1758093639530935
4.1758093639530935
4.2681264464281
4.335825640243124
4.360443528903107
4.366598001068117
4.348134584573115
4.280435390758093
4.225045141273086
4.200427252613103
4.181963836118102
4.1758093639530935
4.157345947458091
4.145037003128072
4.138882530963089
4.138882530963089
4.138882530963089
4.12657358663307
4.108110170138069
4.095801225808079
4.095801225808079
4.083492281478085
4.077337809313075
4.077337809313075
4.065028864983084
4.065028864983084
4.058874392818074
4.052719920653064
4.052719920653064
4.052719920653064
4.052719920653064
4.052719920653064
4.058874392818074
4.065028864983084
4.058874392818074
4.0465654484880815
4.040410976323072
4.034256504158063
4.034256504158063
4.028102031993082
4.028102031993082
4.021947559828071
4.021947559828071
4.021947559828071
4.015793087663061
4.015793087663061
4.015793087663061
4.015793087663061
4.021947559828071
4.034256504158063
4.028102031993082
4.021947559828071
4.003484143333068
3.9973296711680604
3.9973296711680604
3.9911751990030497
3.9850207268380675
3.9850207268380675
3.9850207268380675
3.9911751990030497
3.9850207268380675
3.9850207268380675
3.9850207268380675
3.9973296711680604
3.9911751990030497
3.9850207268380675
3.9788662546730578
3.948093893848065
3.9111670608580615
3.9357849495180455
4.058874392818074
4.212736196943095
4.366598001068117
4.501996388698137
4.5327687495231315
4.329671168078114
4.0711833371480655
3.874240227868059
3.874240227868059
3.9296304773530633
3.9604028381780574
3.948093893848065
3.9419394216830552
3.9727117825080467
3.9850207268380675
3.9850207268380675
3.9727117825080467
3.9727117825080467
3.9788662546730578
3.9727117825080467
3.9665573103430645
3.9727117825080467
3.9727117825080467
3.9788662546730578
3.9973296711680604
4.015793087663061
4.034256504158063
4.034256504158063
4.040410976323072
4.003484143333068
4.034256504158063
4.077337809313075
4.077337809313075
4.083492281478085
4.083492281478085
4.089646753643067
4.083492281478085
4.083492281478085
4.095801225808079
4.101955697973087
4.114264642303079
4.12657358663307
4.12657358663307
4.12657358663307
4.1327280587980795
4.138882530963089
4.138882530963089
4.145037003128072
4.145037003128072
4.157345947458091
4.157345947458091
4.101955697973087
4.169654891788083
4.1758093639530935
4.1942727804480935
4.218890669108104
4.218890669108104
4.225045141273086
4.237354085603107
4.231199613438097
4.231199613438097
4.237354085603107
4.231199613438097
4.237354085603107
4.231199613438097
4.225045141273086
4.212736196943095
4.2065817247780855
4.1942727804480935
4.188118308283084
4.1758093639530935
4.181963836118102
4.1758093639530935
4.169654891788083
4.169654891788083
4.163500419623101
4.151191475293081
4.145037003128072
4.1327280587980795
4.114264642303079
4.120419114468088
4.114264642303079
4.114264642303079
4.101955697973087
4.095801225808079
4.101955697973087
4.095801225808079
4.095801225808079
4.089646753643067
4.077337809313075
4.095801225808079
4.089646753643067
4.089646753643067
4.083492281478085
4.083492281478085
4.077337809313075
4.077337809313075
4.0711833371480655
4.0711833371480655
4.058874392818074
4.065028864983084
4.065028864983084
4.065028864983084
4.065028864983084
4.0711833371480655
4.077337809313075
4.089646753643067
4.083492281478085
4.077337809313075
4.0711833371480655
4.083492281478085
4.0711833371480655
4.083492281478085
4.077337809313075
4.077337809313075
4.095801225808079
4.077337809313075
4.0711833371480655
4.089646753643067
4.089646753643067
4.095801225808079
4.101955697973087
4.101955697973087
4.120419114468088
4.120419114468088
4.1327280587980795
4.12657358663307
4.12657358663307
4.145037003128072
4.163500419623101
4.188118308283084
4.188118308283084
4.181963836118102
4.188118308283084
4.181963836118102
4.188118308283084
4.181963836118102
4.181963836118102
4.169654891788083
4.169654891788083
4.1758093639530935
4.1758093639530935
4.163500419623101
4.169654891788083
4.169654891788083
4.169654891788083
4.1758093639530935
4.188118308283084
4.225045141273086
4.243508557768089
4.249663029933098
4.243508557768089
4.255817502098108
4.261971974263091
4.2681264464281
4.27428091859311
4.280435390758093
4.2865898629231
4.298898807253093
4.292744335088111
4.305053279418103
4.298898807253093
4.3112077515831135
4.298898807253093
4.261971974263091
4.237354085603107
4.305053279418103
4.465069555708134
4.625085831998166
4.797411052618189
4.982045217568204
5.006663106228215
4.772793163958178
4.471224027873144
4.3727524732331275
4.415833778388112
4.477378500038126
4.489687444368147
4.465069555708134
4.495841916533129
4.514305333028129
4.520459805193139
4.501996388698137
4.489687444368147
4.495841916533129
4.501996388698137
4.508150860863147
4.538923221688139
4.538923221688139
4.557386638183142
4.563541110348153
4.563541110348153
4.569695582513134
4.5943134711731455
4.618931359833156
4.631240304163148
4.637394776328158
4.668167137153151
4.67432160931816
4.655858192823159
4.631240304163148
4.5820045268431535
4.551232166018132
4.508150860863147
4.501996388698137
4.520459805193139
4.520459805193139
4.52661427735815
4.514305333028129
4.520459805193139
4.520459805193139
4.520459805193139
4.54507769385315
4.588158999008135
4.6435492484931675
4.67432160931816
4.717402914473172
4.760484219628157
4.785102108288171
4.797411052618189
4.803565524783171
4.778947636123188
4.7420208031331565
4.686630553648152
4.618931359833156
4.575850054678144
4.52661427735815
4.508150860863147
4.483532972203136
4.465069555708134
4.465069555708134
4.458915083543125
4.446606139213133
4.421988250553122
4.40352483405812
4.366598001068117
4.292744335088111
4.225045141273086
4.120419114468088
4.034256504158063
3.9542483660130467
3.905012588693053
3.8680857557030492
3.843467867043037
3.8126955062180454
3.7942320897230433
3.7757686732280415
3.75115078456803
3.732687368073029
3.7142239515780275
3.7080694794130173
3.701915007248036
3.6896060629180156
3.6834515907530063
3.677297118588024
3.671142646423015
3.671142646423015
3.6649881742580046
3.658833702093023
3.658833702093023
3.6465247577630033
3.6465247577630033
3.640370285598021
3.6280613412680016
3.634215813433012
3.6219068691030203
3.6280613412680016
3.609597924773
3.5972889804430093
3.572671091782997
3.560362147453006
3.548053203123014
3.541898730958004
3.529589786627985
3.529589786627985
3.5172808422979926
3.5172808422979926
3.511126370132983
3.5172808422979926
3.511126370132983
3.5234353144630024
3.5357442587929944
3.548053203123014
3.5542076752879965
3.5542076752879965
3.5665166196180156
3.5665166196180156
3.5665166196180156
3.5665166196180156
3.578825563948007
3.591134508277999
3.5849800361130173
3.591134508277999
3.5849800361130173
3.572671091782997
3.5234353144630024
3.591134508277999
3.5972889804430093
3.609597924773
3.609597924773
3.609597924773
3.6219068691030203
3.609597924773
3.6034434526080172
3.6219068691030203
3.6280613412680016
3.6465247577630033
3.6465247577630033
3.640370285598021
3.640370285598021
3.640370285598021
3.634215813433012
3.640370285598021
3.6280613412680016
3.6280613412680016
3.61575239693801
3.61575239693801
3.609597924773
3.6034434526080172
3.61575239693801
3.609597924773
3.6219068691030203
3.6280613412680016
3.634215813433012
3.640370285598021
3.6280613412680016
3.640370285598021
3.652679229928013
3.658833702093023
3.6649881742580046
3.658833702093023
3.677297118588024
3.677297118588024
3.677297118588024
3.677297118588024
3.677297118588024
3.6896060629180156
3.6896060629180156
3.6896060629180156
3.6834515907530063
3.6465247577630033
3.5665166196180156
3.4988174258029914
3.61575239693801
3.7696142010630322
3.9357849495180455
4.101955697973087
4.255817502098108
4.231199613438097
3.9665573103430645
3.6649881742580046
3.4988174258029914
3.511126370132983
3.5357442587929944
3.5234353144630024
3.511126370132983
3.541898730958004
3.572671091782997
3.591134508277999
3.591134508277999
3.5849800361130173
3.591134508277999
3.591134508277999
3.591134508277999
3.5849800361130173
3.5972889804430093
3.6034434526080172
3.61575239693801
3.6219068691030203
3.6219068691030203
3.6280613412680016
3.634215813433012
3.6219068691030203
3.6219068691030203
3.640370285598021
3.634215813433012
3.640370285598021
3.652679229928013
3.658833702093023
3.671142646423015
3.677297118588024
3.7080694794130173
3.75115078456803
3.7942320897230433
3.831158922713046
3.8188499783830263
3.8188499783830263
3.825004450548036
3.831158922713046
3.855776811373057
3.874240227868059
3.8988581165280416
3.9234760051880535
3.9357849495180455
3.9419394216830552
3.9542483660130467
3.9542483660130467
3.9788662546730578
3.9788662546730578
3.9665573103430645
3.9727117825080467
3.9665573103430645
3.9788662546730578
3.9727117825080467
3.9604028381780574
3.9727117825080467
3.9788662546730578
3.9788662546730578
3.9788662546730578
3.9727117825080467
3.9542483660130467
3.948093893848065
3.9419394216830552
3.9296304773530633
3.9234760051880535
3.9173215330230438
3.8988581165280416
3.837313394878028
3.8927036443630603
3.874240227868059
3.855776811373057
3.8619312835380395
3.8496223392080475
3.8496223392080475
3.8496223392080475
3.8496223392080475
3.855776811373057
3.843467867043037
3.8496223392080475
3.855776811373057
3.8496223392080475
3.8496223392080475
3.855776811373057
3.855776811373057
3.855776811373057
3.8619312835380395
3.874240227868059
3.8680857557030492
3.8803947000330408
3.8803947000330408
3.874240227868059
3.874240227868059
3.874240227868059
3.8803947000330408
3.886549172198051
3.886549172198051
3.8927036443630603
3.8927036443630603
3.8927036443630603
3.8927036443630603
3.8988581165280416
3.905012588693053
3.9111670608580615
3.905012588693053
3.8988581165280416
3.8988581165280416
3.8927036443630603
3.886549172198051
3.874240227868059
3.874240227868059
3.8619312835380395
3.855776811373057
3.8496223392080475
3.855776811373057
3.8496223392080475
3.843467867043037
3.837313394878028
3.837313394878028
3.843467867043037
3.837313394878028
3.831158922713046
3.831158922713046
3.825004450548036
3.8188499783830263
3.8188499783830263
3.825004450548036
3.825004450548036
3.825004450548036
3.825004450548036
3.8188499783830263
3.8126955062180454
3.837313394878028
3.831158922713046
3.843467867043037
3.837313394878028
3.837313394878028
3.843467867043037
3.855776811373057
3.8619312835380395
3.855776811373057
3.8619312835380395
3.855776811373057
3.8619312835380395
3.855776811373057
3.8496223392080475
3.843467867043037
3.837313394878028
3.825004450548036
3.831158922713046
3.837313394878028
3.837313394878028
3.831158922713046
3.843467867043037
3.843467867043037
3.837313394878028
3.8496223392080475
3.8496223392080475
3.855776811373057
3.855776811373057
3.855776811373057
3.855776811373057
3.855776811373057
3.855776811373057
3.8496223392080475
3.8619312835380395
3.8619312835380395
3.8680857557030492
3.8680857557030492
3.8680857557030492
3.8680857557030492
3.8496223392080475
3.8126955062180454
3.7696142010630322
3.800386561888025
3.9419394216830552
4.114264642303079
4.292744335088111
4.465069555708134
4.508150860863147
4.298898807253093
4.009638615498079
3.788077617558033
3.781923145393024
3.8188499783830263
3.8188499783830263
3.8065410340530352
3.8188499783830263
3.8496223392080475
3.8496223392080475
3.788077617558033
3.855776811373057
3.855776811373057
3.855776811373057
3.8619312835380395
3.855776811373057
3.8496223392080475
3.855776811373057
3.855776811373057
3.8619312835380395
3.8680857557030492
3.855776811373057
3.8680857557030492
3.8680857557030492
3.8680857557030492
3.8680857557030492
3.874240227868059
3.874240227868059
3.874240227868059
3.874240227868059
3.8803947000330408
3.8803947000330408
3.886549172198051
3.8927036443630603
3.8988581165280416
3.8988581165280416
3.905012588693053
3.9111670608580615
3.905012588693053
3.9111670608580615
3.9173215330230438
3.9234760051880535
3.9296304773530633
3.9296304773530633
3.9296304773530633
3.9357849495180455
3.9419394216830552
3.9419394216830552
3.9542483660130467
3.948093893848065
3.9542483660130467
3.9604028381780574
3.9604028381780574
3.9542483660130467
3.9604028381780574
3.9542483660130467
3.9665573103430645
3.9604028381780574
3.9604028381780574
3.9604028381780574
3.948093893848065
3.9542483660130467
3.9419394216830552
3.9419394216830552
3.9419394216830552
3.9357849495180455
3.9419394216830552
3.9296304773530633
3.9419394216830552
3.9419394216830552
3.948093893848065
3.9604028381780574
3.9788662546730578
4.003484143333068
4.0465654484880815
4.089646753643067
4.163500419623101
4.188118308283084
4.188118308283084
4.231199613438097
4.249663029933098
4.249663029933098
4.255817502098108
4.261971974263091
4.27428091859311
4.27428091859311
4.27428091859311
4.298898807253093
4.341980112408105
4.440451667048122
4.54507769385315
4.68047608148317
4.846646829938186
5.025126522723218
5.123598077363234
5.234378576333243
5.302077770148239
5.326695658808251
5.326695658808251
5.320541186643241
5.295923297983257
5.302077770148239
5.31438671447826
5.33285013097326
5.351313547468262
5.351313547468262
5.320541186643241
5.289768825818246
5.2405330484982535
5.209760687673231
5.203606215508222
5.19745174334324
5.19745174334324
5.19129727117823
5.166679382518219
5.117443605198224
5.068207827878203
5.0312809948882
4.963581801073202
4.858955774268176
4.754329747463175
4.717402914473172
4.7420208031331565
4.772793163958178
4.778947636123188
4.772793163958178
4.877419190763177
4.932809440248209
4.9881996897332135
5.0312809948882
5.062053355713221
5.086671244373231
5.05589888354821
5.172833854683229
5.21591515983824
5.295923297983257
5.431321685613277
5.517484295923275
5.499020879428274
5.529793240253267
5.566720073243298
5.665191627883287
5.702118460873318
5.652882683553296
5.652882683553296
5.6590371557183055
5.597492434068291
5.523638768088285
5.480557462933272
5.406703796953265
5.265150937158236
5.142061493858235
5.037435467053208
4.945118384578201
4.889728135093197
4.834337885608192
4.803565524783171
4.760484219628157
4.723557386638154
4.692785025813162
4.68047608148317
4.668167137153151
4.649703720658149
4.606622415503137
4.54507769385315
4.514305333028129
4.465069555708134
4.37890694539811
4.2681264464281
4.2065817247780855
4.261971974263091
4.40352483405812
4.514305333028129
4.612776887668146
4.649703720658149
4.508150860863147
4.231199613438097
3.9850207268380675
3.8988581165280416
3.9604028381780574
4.028102031993082
4.089646753643067
4.114264642303079
4.1327280587980795
4.181963836118102
4.2065817247780855
4.237354085603107
4.243508557768089
4.249663029933098
4.255817502098108
4.261971974263091
4.218890669108104
4.1942727804480935
4.212736196943095
4.231199613438097
4.218890669108104
4.27428091859311
4.335825640243124
4.385061417563119
4.415833778388112
4.452760611378115
4.465069555708134
4.477378500038126
4.489687444368147
4.471224027873144
4.415833778388112
4.397370361893111
4.37890694539811
4.52661427735815
5.726736349533301
6.514508786653467
6.594516924798482
6.366801454693455
5.585183489738299
5.148215966023217
4.9266549680832
4.766638691793168
4.637394776328158
4.538923221688139
4.489687444368147
5.160524910353237
6.311411205208422
6.496045370158464
6.526817730983458
6.532972203148468
6.514508786653467
6.502199842323475
6.489890897993456
6.446809592838443
6.41603723201345
6.372955926858436
6.305256733043441
6.219094122733385
6.182167289743385
6.157549401083372
6.09600467943336
6.046768902113364
6.034459957783346
5.98522418046335
5.8805981536583225
5.6898095165432965
5.486711935098282
5.172833854683229
4.649703720658149
3.738841840238039
3.48035400930799
3.4988174258029914
3.5172808422979926
3.5357442587929944
3.541898730958004
3.5542076752879965
3.5849800361130173
3.6034434526080172
3.609597924773
3.578825563948007
3.677297118588024
3.695760535083026
3.677297118588024
3.6834515907530063
3.701915007248036
3.701915007248036
3.652679229928013
3.394191398997992
3.191093817552948
3.1357035680679433
3.141858040232953
3.166475928892937
3.160321456727955
3.178784873222956
3.197248289717957
3.2403295948729705
3.283410900027955
3.289565372192965
3.3141832608529764
3.3449556216779697
3.529589786627985
3.8188499783830263
4.255817502098108
4.557386638183142
4.735866330968175
4.93896391241319
5.111289133033214
5.148215966023217
5.19129727117823
5.252841992828244
5.283614353653239
5.295923297983257
5.283614353653239
5.178988326848239
4.67432160931816
3.9788662546730578
3.855776811373057
3.8680857557030492
3.8680857557030492
3.874240227868059
3.8927036443630603
3.8927036443630603
3.8927036443630603
3.8927036443630603
3.8988581165280416
3.9111670608580615
3.8988581165280416
3.886549172198051
3.874240227868059
3.874240227868059
3.8988581165280416
3.9111670608580615
3.9173215330230438
3.9173215330230438
3.9234760051880535
3.9234760051880535
3.9296304773530633
3.9111670608580615
3.8988581165280416
3.905012588693053
3.9173215330230438
3.9357849495180455
3.9604028381780574
3.9911751990030497
3.9850207268380675
3.9850207268380675
3.9973296711680604
4.009638615498079
4.009638615498079
4.003484143333068
4.009638615498079
3.9911751990030497
3.9727117825080467
4.003484143333068
4.108110170138069
4.218890669108104
4.329671168078114
4.415833778388112
4.40352483405812
4.243508557768089
4.058874392818074
3.9357849495180455
3.9357849495180455
3.9850207268380675
4.021947559828071
4.028102031993082
4.034256504158063
4.0465654484880815
4.0711833371480655
4.089646753643067
4.083492281478085
4.083492281478085
4.095801225808079
4.095801225808079
4.120419114468088
4.108110170138069
4.120419114468088
4.145037003128072
4.138882530963089
4.138882530963089
4.151191475293081
4.163500419623101
4.169654891788083
4.169654891788083
4.169654891788083
4.169654891788083
4.169654891788083
4.188118308283084
4.1942727804480935
4.218890669108104
4.243508557768089
4.261971974263091
4.2681264464281
4.27428091859311
4.27428091859311
4.261971974263091
4.261971974263091
4.2681264464281
4.2681264464281
4.2681264464281
4.255817502098108
4.2065817247780855
4.2865898629231
4.292744335088111
4.292744335088111
4.2865898629231
4.292744335088111
4.280435390758093
4.292744335088111
4.292744335088111
4.298898807253093
4.298898807253093
4.292744335088111
4.298898807253093
4.305053279418103
4.292744335088111
4.305053279418103
4.3112077515831135
4.292744335088111
4.2865898629231
4.27428091859311
4.255817502098108
4.243508557768089
4.243508557768089
4.249663029933098
4.249663029933098
4.249663029933098
4.280435390758093
4.298898807253093
4.249663029933098
4.169654891788083
4.120419114468088
4.083492281478085
4.040410976323072
4.015793087663061
4.003484143333068
3.9973296711680604
3.9911751990030497
3.9850207268380675
3.9911751990030497
3.9850207268380675
3.9911751990030497
3.9788662546730578
3.9727117825080467
3.9727117825080467
3.9850207268380675
3.9665573103430645
3.9788662546730578
3.9727117825080467
3.9727117825080467
3.9727117825080467
3.9911751990030497
3.9973296711680604
3.9911751990030497
3.9973296711680604
4.009638615498079
4.015793087663061
4.015793087663061
4.021947559828071
4.028102031993082
4.034256504158063
4.021947559828071
3.9542483660130467
4.058874392818074
4.077337809313075
4.089646753643067
4.101955697973087
4.101955697973087
4.095801225808079
4.077337809313075
4.077337809313075
4.089646753643067
4.101955697973087
4.1327280587980795
4.145037003128072
4.157345947458091
4.145037003128072
4.1327280587980795
4.12657358663307
4.12657358663307
4.1327280587980795
4.12657358663307
4.114264642303079
4.114264642303079
4.108110170138069
4.101955697973087
4.108110170138069
4.095801225808079
4.108110170138069
4.101955697973087
4.108110170138069
4.101955697973087
4.095801225808079
4.089646753643067
4.095801225808079
4.095801225808079
4.083492281478085
4.077337809313075
4.077337809313075
4.0711833371480655
4.077337809313075
4.0711833371480655
4.0711833371480655
4.0711833371480655
4.058874392818074
4.052719920653064
4.034256504158063
4.015793087663061
3.9850207268380675
4.040410976323072
4.1942727804480935
4.2681264464281
4.237354085603107
4.2681264464281
4.181963836118102
3.9111670608580615
3.578825563948007
3.357264566007961
3.3449556216779697
3.363419038172971
3.357264566007961
3.3449556216779697
3.3511100938429803
3.277256427862973
3.2957198443579747
3.2526385392029624
3.234175122707961
3.197248289717957
3.1726304010579467
3.141858040232953
3.1295490959029335
3.1049312072429505
3.080313318582939
3.080313318582939
3.092622262912931
3.1049312072429505
3.1110856794079322
3.160321456727955
3.221866178377941
3.283410900027955
3.3141832608529764
3.3449556216779697
3.412654815492993
3.504971897968001
3.572671091782997
3.634215813433012
3.640370285598021
3.6465247577630033
3.677297118588024
3.7265328959080186
3.7696142010630322
3.788077617558033
3.825004450548036
3.855776811373057
3.886549172198051
3.9296304773530633
3.9911751990030497
4.009638615498079
3.9850207268380675
3.9788662546730578
3.9727117825080467
3.9788662546730578
3.9727117825080467
3.9727117825080467
3.9788662546730578
3.9850207268380675
3.9911751990030497
4.015793087663061
3.9973296711680604
3.9788662546730578
3.9788662546730578
3.9727117825080467
3.9727117825080467
3.9296304773530633
3.8927036443630603
3.8496223392080475
3.8126955062180454
3.800386561888025
3.7942320897230433
3.781923145393024
3.7757686732280415
3.75730525673304
3.738841840238039
3.7142239515780275
3.7080694794130173
3.6896060629180156
3.6896060629180156
3.695760535083026
3.609597924773
3.504971897968001
3.437272704152977
3.3880369268329824
3.3388011495129604
3.3141832608529764
3.283410900027955
3.283410900027955
3.301874316522957
3.3203377330179586
3.3141832608529764
3.332646677347978
3.375727982502963
3.363419038172971
3.3449556216779697
3.3388011495129604
3.3141832608529764
3.308028788687967
3.283410900027955
3.271101955697964
3.2403295948729705
3.2095572340479492
3.184939345387937
3.178784873222956
3.178784873222956
3.1726304010579467
3.154166984562945
3.141858040232953
3.1357035680679433
3.141858040232953
3.1480125123979352
3.160321456727955
3.1726304010579467
3.166475928892937
3.191093817552948
3.400345871162973
3.695760535083026
3.8680857557030492
4.003484143333068
4.114264642303079
4.212736196943095
4.298898807253093
4.37890694539811
4.458915083543125
4.54507769385315
4.5943134711731455
4.67432160931816
4.735866330968175
4.797411052618189
4.858955774268176
4.92050049591819
4.969736273238212
5.0312809948882
5.092825716538213
5.166679382518219
5.21591515983824
5.21591515983824
5.172833854683229
5.289768825818246
5.345159075303252
5.351313547468262
5.3390046031382425
5.357468019633243
5.382085908293255
5.419012741283257
5.468248518603279
5.517484295923275
5.572874545408279
5.597492434068291
5.609801378398282
5.628264794893284
5.622110322728302
5.591337961903281
5.542102184583286
5.535947712418277
5.652882683553296
5.825207904173318
6.022151013453353
6.219094122733385
6.348338038198453
6.243712011393371
5.97906970829834
5.677500572213306
5.572874545408279
5.634419267058294
5.714427405203311
5.769817654688314
5.84982579283333
5.954451819638329
6.015996541288343
6.089850207268349
6.126777040258352
6.157549401083372
6.176012817578375
6.188321761908366
6.194476234073376
6.200630706238385
6.200630706238385
6.206785178403368
6.219094122733385
6.231403067063379
6.237557539228389
6.243712011393371
6.262175427888372
6.311411205208422
6.342183566033444
6.3544925103634355
6.360646982528445
6.379110399023446
6.379110399023446
6.348338038198453
6.323720149538442
6.317565677373432
6.274484372218392
6.249866483558383
6.219094122733385
6.169858345413365
6.108313623763351
6.046768902113364
5.98522418046335
5.917524986648326
5.892907097988342
5.862134737163322
5.83751684850331
5.806744487678317
5.788281071183316
5.769817654688314
5.757508710358322
5.751354238193313
5.751354238193313
5.73904529386332
5.7082729330383
5.695963988708308
5.683655044378289
5.677500572213306
5.665191627883287
5.646728211388286
5.640573739223304
5.622110322728302
5.6036469062333
5.597492434068291
5.591337961903281
5.591337961903281
5.560565601078289
5.542102184583286
5.517484295923275
5.419012741283257
4.871264718598195
3.8803947000330408
3.671142646423015
3.677297118588024
3.7142239515780275
3.7080694794130173
3.720378423743037
3.763459728898022
3.886549172198051
4.261971974263091
4.54507769385315
4.692785025813162
4.797411052618189
4.877419190763177
4.932809440248209
4.975890745403193
5.012817578393197
5.068207827878203
5.111289133033214
5.142061493858235
5.172833854683229
5.185142799013221
5.19129727117823
5.203606215508222
5.2220696320032225
5.21591515983824
5.228224104168233
5.234378576333243
5.246687520663237
5.258996464993254
5.252841992828244
5.209760687673231
5.160524910353237
5.228224104168233
5.246687520663237
5.258996464993254
5.258996464993254
5.258996464993254
5.2220696320032225
5.142061493858235
5.2220696320032225
5.2405330484982535
5.2405330484982535
5.228224104168233
5.228224104168233
5.2405330484982535
5.246687520663237
5.2405330484982535
5.246687520663237
5.234378576333243
5.234378576333243
5.228224104168233
5.228224104168233
5.228224104168233
5.228224104168233
5.234378576333243
5.228224104168233
5.21591515983824
5.209760687673231
5.19745174334324
5.19745174334324
5.19745174334324
5.185142799013221
5.19745174334324
5.209760687673231
5.19745174334324
5.19129727117823
5.19745174334324
5.19745174334324
5.185142799013221
5.160524910353237
5.135907021693225
5.068207827878203
4.6435492484931675
3.504971897968001
2.9510694031179288
2.907988097962916
2.8895246814679143
2.883370209302905
2.8895246814679143
2.877215737137895
2.858752320642893
2.8464433763129016
2.895679153632896
3.055695429922928
3.215711706212959
3.3695735103379807
3.529589786627985
3.5234353144630024
3.3264922051829684
3.1110856794079322
2.975687291777912
3.037232013427927
3.0987767350779407
3.1295490959029335
3.1357035680679433
3.184939345387937
3.2403295948729705
3.277256427862973
3.301874316522957
3.3203377330179586
3.332646677347978
3.3449556216779697
3.363419038172971
3.381882454667973
3.412654815492993
3.4311182319879947
3.449581648482997
3.4741995371429804
3.4988174258029914
3.5172808422979926
3.541898730958004
3.548053203123014
3.5665166196180156
3.591134508277999
3.61575239693801
3.634215813433012
3.6465247577630033
3.671142646423015
3.6896060629180156
3.7080694794130173
3.7265328959080186
3.75730525673304
3.7942320897230433
3.831158922713046
3.8496223392080475
3.8803947000330408
3.905012588693053
3.9111670608580615
3.9111670608580615
3.9234760051880535
3.9111670608580615
3.886549172198051
3.905012588693053
3.9604028381780574
4.2065817247780855
4.40967930622313
4.501996388698137
4.557386638183142
4.606622415503137
4.631240304163148
4.662012664988168
4.698939497978172
4.754329747463175
4.871264718598195
5.000508634063205
5.098980188703223
5.19129727117823
5.271305409323245
5.326695658808251
5.363622491798253
5.388240380458265
5.419012741283257
5.431321685613277
5.382085908293255
5.455939574273261
5.449785102108279
5.443630629943269
5.412858269118276
5.382085908293255
5.326695658808251
5.289768825818246
5.265150937158236
5.265150937158236
5.258996464993254
5.258996464993254
5.265150937158236
5.277459881488257
5.289768825818246
5.302077770148239
5.308232242313249
5.302077770148239
5.289768825818246
5.258996464993254
5.252841992828244
5.277459881488257
5.320541186643241
5.3390046031382425
5.351313547468262
5.326695658808251
5.283614353653239
5.209760687673231
5.172833854683229
5.129752549528216
5.098980188703223
5.092825716538213
5.086671244373231
5.0743623000432105
5.0743623000432105
4.52661427735815
3.1049312072429505
2.8525978484779113
2.8525978484779113
2.8464433763129016
2.8279799598179
2.834134431982911
2.8464433763129016
2.8649067928079033
2.8895246814679143
2.9141425701278982
2.9264515144579173
2.9202970422929075
2.9264515144579173
2.9510694031179288
2.994150708272913
3.0249230690979347
3.0249230690979347
3.0310775412629165
3.0310775412629165
3.037232013427927
3.043386485592936
3.0680043742529195
3.0864677907479487
3.074158846417929
3.080313318582939
3.0864677907479487
3.0987767350779407
3.0987767350779407
3.1295490959029335
3.166475928892937
3.178784873222956
3.2095572340479492
3.2280206505429514
3.2526385392029624
3.289565372192965
3.3511100938429803
3.400345871162973
3.424963759822985
3.449581648482997
3.48035400930799
3.511126370132983
3.529589786627985
3.560362147453006
3.5665166196180156
3.548053203123014
3.5542076752879965
3.578825563948007
3.591134508277999
3.5972889804430093
3.5665166196180156
3.548053203123014
3.5972889804430093
3.720378423743037
3.8619312835380395
4.003484143333068
4.1327280587980795
4.089646753643067
3.8803947000330408
3.6649881742580046
3.548053203123014
3.572671091782997
3.6034434526080172
3.5972889804430093
3.652679229928013
3.6649881742580046
3.6649881742580046
3.658833702093023
3.658833702093023
3.6649881742580046
3.677297118588024
3.6834515907530063
3.6834515907530063
3.6834515907530063
3.695760535083026
3.6896060629180156
3.695760535083026
3.7265328959080186
3.7265328959080186
3.732687368073029
3.7449963124030208
3.75115078456803
3.763459728898022
3.7696142010630322
3.7757686732280415
3.788077617558033
3.7757686732280415
3.720378423743037
3.7696142010630322
3.7757686732280415
3.763459728898022
3.75730525673304
3.732687368073029
3.732687368073029
3.720378423743037
3.7142239515780275
3.7142239515780275
3.7142239515780275
3.7265328959080186
3.732687368073029
3.738841840238039
3.75730525673304
3.7757686732280415
3.781923145393024
3.788077617558033
3.8065410340530352
3.8065410340530352
3.8188499783830263
3.8188499783830263
3.825004450548036
3.825004450548036
3.8188499783830263
3.8188499783830263
3.8188499783830263
3.8188499783830263
3.8065410340530352
3.8126955062180454
3.8065410340530352
3.800386561888025
3.788077617558033
3.781923145393024
3.7696142010630322
3.7696142010630322
3.75730525673304
3.7449963124030208
3.75115078456803
3.75115078456803
3.75115078456803
3.75115078456803
3.763459728898022
3.7696142010630322
3.7757686732280415
3.7942320897230433
3.825004450548036
3.843467867043037
3.8680857557030492
3.886549172198051
3.9111670608580615
3.9357849495180455
3.9604028381780574
3.9727117825080467
3.9727117825080467
3.9788662546730578
3.9850207268380675
3.9788662546730578
3.9788662546730578
3.9604028381780574
3.9604028381780574
3.9542483660130467
3.9542483660130467
3.9604028381780574
3.9850207268380675
3.9850207268380675
3.9788662546730578
3.9850207268380675
3.9850207268380675
3.9727117825080467
3.9727117825080467
3.9727117825080467
3.9542483660130467
3.948093893848065
3.9234760051880535
3.855776811373057
3.8988581165280416
3.9173215330230438
3.9111670608580615
3.9173215330230438
3.9111670608580615
3.905012588693053
3.8988581165280416
3.8927036443630603
3.9111670608580615
3.9357849495180455
3.9296304773530633
3.9296304773530633
3.9357849495180455
3.9357849495180455
3.9357849495180455
3.9296304773530633
3.9234760051880535
3.9296304773530633
3.9296304773530633
3.9419394216830552
3.9788662546730578
4.009638615498079
4.015793087663061
4.028102031993082
4.040410976323072
4.034256504158063
4.040410976323072
4.040410976323072
4.040410976323072
4.0465654484880815
4.0465654484880815
4.034256504158063
4.028102031993082
4.028102031993082
4.028102031993082
4.021947559828071
4.009638615498079
4.009638615498079
4.015793087663061
4.034256504158063
4.0465654484880815
4.052719920653064
4.034256504158063
4.021947559828071
4.058874392818074
4.1758093639530935
4.2865898629231
4.5327687495231315
4.686630553648152
4.748175275298167
4.54507769385315
4.249663029933098
4.034256504158063
4.021947559828071
4.058874392818074
4.114264642303079
4.101955697973087
4.157345947458091
4.231199613438097
4.292744335088111
4.341980112408105
4.360443528903107
4.385061417563119
4.40967930622313
4.434297194883113
4.458915083543125
4.477378500038126
4.514305333028129
4.52661427735815
4.514305333028129
4.489687444368147
4.477378500038126
4.446606139213133
4.40352483405812
4.329671168078114
4.2681264464281
4.225045141273086
4.1942727804480935
4.169654891788083
4.157345947458091
4.151191475293081
4.138882530963089
4.151191475293081
4.157345947458091
4.169654891788083
4.169654891788083
4.169654891788083
4.1758093639530935
4.169654891788083
4.169654891788083
4.169654891788083
4.157345947458091
4.157345947458091
4.145037003128072
4.157345947458091
4.145037003128072
4.151191475293081
4.163500419623101
4.163500419623101
4.169654891788083
4.181963836118102
4.1942727804480935
4.212736196943095
4.27428091859311
4.348134584573115
4.37890694539811
4.385061417563119
4.391215889728128
4.391215889728128
4.397370361893111
4.440451667048122
4.458915083543125
4.471224027873144
4.501996388698137
4.514305333028129
4.520459805193139
4.5327687495231315
4.538923221688139
4.54507769385315
4.54507769385315
4.563541110348153
4.557386638183142
4.538923221688139
4.520459805193139
4.501996388698137
4.477378500038126
4.446606139213133
4.421988250553122
4.40352483405812
4.3727524732331275
4.366598001068117
4.366598001068117
4.391215889728128
4.421988250553122
4.440451667048122
4.483532972203136
4.514305333028129
4.5327687495231315
4.52661427735815
4.501996388698137
4.477378500038126
4.483532972203136
4.465069555708134
4.440451667048122
4.428142722718132
4.415833778388112
4.348134584573115
4.2865898629231
4.237354085603107
4.1942727804480935
4.169654891788083
4.145037003128072
4.114264642303079
4.089646753643067
4.077337809313075
4.0465654484880815
4.0465654484880815
4.028102031993082
4.021947559828071
4.009638615498079
3.9973296711680604
3.9727117825080467
3.9604028381780574
3.9357849495180455
3.9357849495180455
3.8988581165280416
3.843467867043037
3.788077617558033
3.720378423743037
3.7757686732280415
3.763459728898022
3.788077617558033
3.874240227868059
3.905012588693053
3.9357849495180455
4.034256504158063
4.329671168078114
4.889728135093197
5.123598077363234
5.21591515983824
5.252841992828244
5.19745174334324
5.271305409323245
5.289768825818246
5.283614353653239
5.302077770148239
5.271305409323245
5.246687520663237
5.258996464993254
5.2220696320032225
5.185142799013221
5.154370438188227
5.148215966023217
5.148215966023217
5.154370438188227
5.142061493858235
5.092825716538213
5.068207827878203
5.0312809948882
5.037435467053208
5.068207827878203
5.148215966023217
5.289768825818246
5.437476157778259
5.560565601078289
5.646728211388286
5.579029017573289
5.320541186643241
5.19745174334324
5.295923297983257
5.437476157778259
5.542102184583286
5.560565601078289
5.505175351593283
5.535947712418277
5.591337961903281
5.634419267058294
5.640573739223304
5.646728211388286
5.677500572213306
5.683655044378289
5.6898095165432965
5.726736349533301
5.769817654688314
5.7944355433483254
5.763663182523304
5.788281071183316
5.8805981536583225
5.9421428753083365
5.905216042318334
5.84982579283333
5.763663182523304
5.726736349533301
5.677500572213306
5.634419267058294
5.591337961903281
5.554411128913278
5.511329823758264
5.492866407263264
5.486711935098282
5.517484295923275
5.554411128913278
5.597492434068291
5.628264794893284
5.677500572213306
5.695963988708308
5.714427405203311
5.695963988708308
5.6713461000482965
5.455939574273261
4.360443528903107
3.781923145393024
3.8065410340530352
3.843467867043037
3.8496223392080475
3.8680857557030492
3.874240227868059
3.8988581165280416
3.9296304773530633
3.9727117825080467
4.009638615498079
4.065028864983084
4.12657358663307
4.1758093639530935
4.188118308283084
4.218890669108104
4.249663029933098
4.261971974263091
4.2681264464281
4.298898807253093
4.329671168078114
4.3112077515831135
4.305053279418103
4.341980112408105
4.348134584573115
4.366598001068117
4.391215889728128
4.428142722718132
4.465069555708134
4.465069555708134
4.452760611378115
4.471224027873144
4.489687444368147
4.520459805193139
4.538923221688139
4.575850054678144
4.6004679433381535
4.588158999008135
4.575850054678144
4.54507769385315
4.477378500038126
4.538923221688139
4.551232166018132
4.5327687495231315
4.5327687495231315
4.514305333028129
4.501996388698137
4.514305333028129
4.52661427735815
4.52661427735815
4.514305333028129
4.52661427735815
4.5327687495231315
4.520459805193139
4.495841916533129
4.471224027873144
4.471224027873144
4.434297194883113
4.415833778388112
4.415833778388112
4.40352483405812
4.329671168078114
4.360443528903107
4.391215889728128
4.37890694539811
4.37890694539811
4.397370361893111
4.421988250553122
4.421988250553122
4.440451667048122
4.465069555708134
4.446606139213133
4.428142722718132
4.385061417563119
4.348134584573115
4.305053279418103
4.2865898629231
4.2681264464281
4.243508557768089
4.212736196943095
4.1942727804480935
4.163500419623101
4.169654891788083
4.169654891788083
4.181963836118102
4.157345947458091
4.151191475293081
4.1758093639530935
4.243508557768089
4.225045141273086
4.181963836118102
4.181963836118102
4.1758093639530935
4.181963836118102
4.1942727804480935
4.200427252613103
4.1942727804480935
4.212736196943095
4.225045141273086
4.218890669108104
4.2065817247780855
4.169654891788083
4.163500419623101
4.249663029933098
4.37890694539811
4.508150860863147
4.637394776328158
4.748175275298167
4.698939497978172
4.514305333028129
4.280435390758093
4.188118308283084
4.243508557768089
4.37890694539811
4.434297194883113
4.495841916533129
4.520459805193139
4.557386638183142
4.575850054678144
4.563541110348153
4.5327687495231315
4.538923221688139
4.538923221688139
4.5327687495231315
4.538923221688139
4.557386638183142
4.538923221688139
4.514305333028129
4.508150860863147
4.514305333028129
4.495841916533129
4.471224027873144
4.452760611378115
4.446606139213133
4.446606139213133
4.428142722718132
4.428142722718132
4.421988250553122
4.421988250553122
4.421988250553122
4.415833778388112
4.40967930622313
4.40352483405812
4.434297194883113
4.489687444368147
4.520459805193139
4.471224027873144
4.40967930622313
4.366598001068117
4.348134584573115
4.335825640243124
4.323516695913104
4.3173622237481215
4.305053279418103
4.27428091859311
4.255817502098108
4.255817502098108
4.231199613438097
4.200427252613103
4.200427252613103
4.2065817247780855
4.1942727804480935
4.095801225808079
4.12657358663307
4.163500419623101
4.145037003128072
4.108110170138069
4.089646753643067
4.0711833371480655
4.034256504158063
3.9911751990030497
3.9234760051880535
3.8496223392080475
3.788077617558033
3.7265328959080186
3.671142646423015
3.6280613412680016
3.6034434526080172
3.572671091782997
3.5665166196180156
3.548053203123014
3.5234353144630024
3.4926629536379816
3.468045064977998
3.449581648482997
3.424963759822985
3.400345871162973
3.400345871162973
3.3880369268329824
3.3880369268329824
3.3880369268329824
3.3880369268329824
3.3880369268329824
3.3880369268329824
3.394191398997992
3.400345871162973
3.400345871162973
3.406500343327984
3.418809287657976
3.424963759822985
3.4311182319879947
3.4434271763179867
3.4618905928129893
3.4741995371429804
3.48035400930799
3.4741995371429804
3.48035400930799
3.48035400930799
3.504971897968001
3.511126370132983
3.504971897968001
3.5172808422979926
3.5234353144630024
3.529589786627985
3.529589786627985
3.5234353144630024
3.529589786627985
3.529589786627985
3.548053203123014
3.5542076752879965
3.560362147453006
3.560362147453006
3.560362147453006
3.560362147453006
3.5665166196180156
3.5542076752879965
3.5542076752879965
3.5542076752879965
3.560362147453006
3.5665166196180156
3.578825563948007
3.5972889804430093
3.6219068691030203
3.640370285598021
3.652679229928013
3.6649881742580046
3.6896060629180156
3.6896060629180156
3.677297118588024
3.677297118588024
3.671142646423015
3.6896060629180156
3.75115078456803
3.8065410340530352
3.8496223392080475
3.8680857557030492
3.886549172198051
3.8927036443630603
3.905012588693053
3.9357849495180455
3.948093893848065
3.9542483660130467
3.9542483660130467
3.9542483660130467
4.021947559828071
4.163500419623101
4.305053279418103
4.446606139213133
4.5327687495231315
4.465069555708134
4.231199613438097
3.9850207268380675
3.8680857557030492
3.886549172198051
3.9234760051880535
3.9111670608580615
3.9173215330230438
3.9419394216830552
3.9542483660130467
3.948093893848065
3.9419394216830552
3.9357849495180455
3.9357849495180455
3.9604028381780574
3.9665573103430645
3.9788662546730578
3.9788662546730578
4.003484143333068
4.021947559828071
4.028102031993082
4.040410976323072
4.028102031993082
4.015793087663061
4.003484143333068
3.9665573103430645
4.0465654484880815
4.065028864983084
4.052719920653064
4.0465654484880815
4.034256504158063
4.034256504158063
4.028102031993082
4.021947559828071
4.021947559828071
4.021947559828071
4.015793087663061
4.009638615498079
4.021947559828071
4.028102031993082
4.040410976323072
4.058874392818074
4.0711833371480655
4.101955697973087
4.114264642303079
4.138882530963089
4.145037003128072
4.151191475293081
4.163500419623101
4.181963836118102
4.1758093639530935
4.181963836118102
4.181963836118102
4.181963836118102
4.1942727804480935
4.200427252613103
4.212736196943095
4.212736196943095
4.218890669108104
4.218890669108104
4.225045141273086
4.231199613438097
4.231199613438097
4.231199613438097
4.218890669108104
4.212736196943095
4.200427252613103
4.1942727804480935
4.181963836118102
4.188118308283084
4.188118308283084
4.188118308283084
4.169654891788083
4.1758093639530935
4.1758093639530935
4.169654891788083
4.181963836118102
4.188118308283084
4.1942727804480935
4.2065817247780855
4.212736196943095
4.225045141273086
4.231199613438097
4.231199613438097
4.243508557768089
4.243508557768089
4.243508557768089
4.243508557768089
4.249663029933098
4.255817502098108
4.255817502098108
4.261971974263091
4.261971974263091
4.255817502098108
4.2681264464281
4.27428091859311
4.2681264464281
4.261971974263091
4.261971974263091
4.255817502098108
4.243508557768089
4.237354085603107
4.200427252613103
4.163500419623101
4.151191475293081
4.120419114468088
4.095801225808079
4.089646753643067
4.083492281478085
4.065028864983084
4.040410976323072
4.034256504158063
4.028102031993082
4.015793087663061
3.9542483660130467
3.9727117825080467
4.003484143333068
3.9911751990030497
3.9911751990030497
3.9973296711680604
4.021947559828071
4.009638615498079
4.003484143333068
4.003484143333068
4.015793087663061
4.028102031993082
4.034256504158063
4.034256504158063
4.034256504158063
4.015793087663061
4.009638615498079
4.015793087663061
4.009638615498079
4.009638615498079
3.9911751990030497
3.9604028381780574
3.9234760051880535
3.874240227868059
3.8188499783830263
3.781923145393024
3.75730525673304
3.738841840238039
3.695760535083026
3.634215813433012
3.6465247577630033
3.75730525673304
3.905012588693053
4.003484143333068
4.1758093639530935
4.2065817247780855
3.9788662546730578
3.7080694794130173
3.529589786627985
3.5172808422979926
3.578825563948007
3.6219068691030203
3.61575239693801
3.6280613412680016
3.671142646423015
3.6834515907530063
3.6896060629180156
3.677297118588024
3.6896060629180156
3.6834515907530063
3.695760535083026
3.6896060629180156
3.677297118588024
3.671142646423015
3.677297118588024
3.7142239515780275
3.7696142010630322
3.7757686732280415
3.7757686732280415
3.788077617558033
3.788077617558033
3.788077617558033
3.7757686732280415
3.7757686732280415
3.781923145393024
3.788077617558033
3.781923145393024
3.788077617558033
3.788077617558033
3.781923145393024
3.7942320897230433
3.8126955062180454
3.825004450548036
3.837313394878028
3.8496223392080475
3.8680857557030492
3.886549172198051
3.905012588693053
3.9234760051880535
3.948093893848065
3.9788662546730578
3.9973296711680604
4.009638615498079
4.009638615498079
4.015793087663061
4.003484143333068
4.003484143333068
4.003484143333068
4.003484143333068
4.003484143333068
4.003484143333068
3.9911751990030497
3.9911751990030497
4.003484143333068
3.9973296711680604
4.003484143333068
4.003484143333068
4.003484143333068
3.9973296711680604
3.9911751990030497
3.9973296711680604
3.9911751990030497
3.9850207268380675
3.9788662546730578
3.9604028381780574
3.9604028381780574
3.9419394216830552
3.9357849495180455
3.9234760051880535
3.905012588693053
3.8988581165280416
3.8927036443630603
3.855776811373057
3.825004450548036
3.8065410340530352
3.7757686732280415
3.7696142010630322
3.75730525673304
3.7449963124030208
3.75115078456803
3.75730525673304
3.7757686732280415
3.7696142010630322
3.763459728898022
3.75115078456803
3.738841840238039
3.732687368073029
3.7080694794130173
3.6896060629180156
3.6896060629180156
3.701915007248036
3.701915007248036
3.6896060629180156
3.671142646423015
3.677297118588024
3.671142646423015
3.671142646423015
3.671142646423015
3.677297118588024
3.695760535083026
3.738841840238039
3.825004450548036
3.948093893848065
4.040410976323072
4.101955697973087
4.120419114468088
4.145037003128072
4.169654891788083
4.200427252613103
4.249663029933098
4.292744335088111
4.305053279418103
4.329671168078114
4.341980112408105
4.341980112408105
4.329671168078114
4.483532972203136
4.557386638183142
4.588158999008135
4.606622415503137
4.6435492484931675
4.67432160931816
4.705093970143154
4.735866330968175
4.748175275298167
4.748175275298167
4.766638691793168
4.797411052618189
4.809719996948181
4.778947636123188
4.7912565804531795
4.994354161898196
5.203606215508222
5.33285013097326
5.419012741283257
5.499020879428274
5.554411128913278
5.615955850563292
5.6590371557183055
5.720581877368319
5.757508710358322
5.788281071183316
5.806744487678317
5.806744487678317
5.788281071183316
5.831362376338328
5.991378652628332
6.182167289743385
6.385264871188456
6.576053508303481
6.643752702118477
6.40988275984844
6.065232318608365
5.763663182523304
5.720581877368319
5.757508710358322
5.788281071183316
5.763663182523304
5.763663182523304
5.800590015513308
5.825207904173318
5.831362376338328
5.81905343200831
5.81905343200831
5.806744487678317
5.800590015513308
5.812898959843329
5.831362376338328
5.84367132066832
5.8559802649983395
5.84982579283333
5.83751684850331
5.84982579283333
5.84367132066832
5.831362376338328
5.81905343200831
5.812898959843329
5.788281071183316
5.775972126853325
5.788281071183316
5.800590015513308
5.800590015513308
5.7944355433483254
5.769817654688314
5.757508710358322
5.757508710358322
5.7451997660283025
5.73904529386332
5.7451997660283025
5.73904529386332
5.7328908216983105
5.7328908216983105
5.7451997660283025
5.757508710358322
5.7451997660283025
5.757508710358322
5.769817654688314
5.775972126853325
5.788281071183316
5.806744487678317
5.812898959843329
5.806744487678317
5.775972126853325
5.769817654688314
5.757508710358322
5.73904529386332
5.7328908216983105
5.714427405203311
5.677500572213306
5.622110322728302
5.585183489738299
5.542102184583286
5.492866407263264
5.345159075303252
5.043589939218219
4.231199613438097
3.141858040232953
2.797207598992907
2.778744182497905
2.7910531268278973
2.797207598992907
2.815671015487909
2.8095165433228986
2.8095165433228986
2.7910531268278973
2.7848986546628876
2.766435238167886
2.729508405177883
2.6925815721878803
2.6618092113628857
2.6433457948678853
2.624882378372884
2.6433457948678853
2.680272627857888
2.711044988682881
2.735662877342893
2.7848986546628876
2.883370209302905
3.1726304010579467
3.418809287657976
3.658833702093023
3.886549172198051
4.058874392818074
4.428142722718132
4.902037079423188
5.142061493858235
5.302077770148239
5.443630629943269
5.554411128913278
5.646728211388286
5.695963988708308
5.7328908216983105
5.757508710358322
5.825207904173318
5.899061570153325
5.9421428753083365
6.028305485618365
6.151394928918363
6.139085984588371
6.132931512423362
6.151394928918363
6.151394928918363
6.163703873248383
6.157549401083372
6.151394928918363
6.151394928918363
6.151394928918363
6.139085984588371
6.108313623763351
6.083695735103367
6.077541262938357
6.052923374278346
5.972915236133329
5.911370514483344
5.935988403143328
5.892907097988342
5.84982579283333
5.806744487678317
5.775972126853325
5.7451997660283025
5.695963988708308
5.6898095165432965
5.677500572213306
5.665191627883287
5.640573739223304
5.622110322728302
5.597492434068291
5.579029017573289
5.566720073243298
5.548256656748296
5.529793240253267
5.492866407263264
5.462094046438272
5.419012741283257
5.375931436128245
5.320541186643241
5.265150937158236
5.209760687673231
5.129752549528216
5.006663106228215
4.846646829938186
4.575850054678144
4.298898807253093
4.145037003128072
3.720378423743037
2.187914854657802
0.6431423412426027
0.15693904020752658
-0.15693904020752658
-0.2800284835075273
-0.2184837618575408
-0.11385773505251384
-0.05231301340249961
-0.003077236082504875
0.06462195773251911
0.1384756237125251
0.2000203453625393
0.2554105948475438
0.3108008443325483
0.36619109381755277
0.427735815467567
0.47697159278756174
0.5323618422725662
0.575443147427579
0.6369878690775933
0.6862236463975879
0.7231504793875909
0.7600773123775938
0.8093130896976164
0.8647033391826209
0.9077846443376336
0.9447114773276367
0.9877927824826491
1.0370285598026439
1.0801098649576568
1.104727753617668
1.1539635309376628
1.2031993082576575
1.25243508557768
1.3078253350626845
1.3447521680526875
1.400142417537692
1.4432237226927047
1.473996083517698
1.5170773886727107
1.5478497494977315
1.5663131659927332
1.6032399989827366
1.6278578876427194
1.6524757763027313
1.689402609292734
1.7324839144477464
1.7817196917677414
1.830955469087764
1.861727829912757
1.8863457185727683
1.91096360723278
1.9417359680577726
1.9417359680577726
1.9232725515627715
2.015589634037779
2.04020752269779
2.0586709391927913
2.077134355687793
2.1017522443478045
2.1263701330077875
2.1325246051727973
2.138679077337807
2.1571424938328088
2.175605910327811
2.194069326822812
2.200223798987821
2.224841687647805
2.2433051041428067
2.261768520637808
2.2802319371328093
2.298695353627811
2.323313242287821
2.3417766587828237
2.360240075277825
2.391012436102846
2.4217847969278394
2.4525571577528327
2.495638462907845
2.5325652958978484
2.55102871239285
2.587955545382853
2.6064189618778553
2.631036850537866
2.649500267032867
2.667963683527869
2.704890516517872
2.747971821672884
2.772589710332896
2.7910531268278973
2.821825487652891
2.8525978484779113
2.8649067928079033
2.883370209302905
2.895679153632896
2.9202970422929075
2.9387604587879093
2.9572238752829105
2.981841763942921
3.0003051804379233
3.0249230690979347
3.043386485592936
3.0680043742529195
3.0864677907479487
3.1049312072429505
3.117240151572942
3.1480125123979352
3.166475928892937
3.191093817552948
3.221866178377941
3.2526385392029624
3.277256427862973
3.301874316522957
3.308028788687967
3.3203377330179586
3.3203377330179586
3.332646677347978
3.3449556216779697
3.357264566007961
3.375727982502963
3.394191398997992
3.406500343327984
3.418809287657976
3.4434271763179867
3.4618905928129893
3.468045064977998
3.468045064977998
3.486508481473
3.4988174258029914
3.5172808422979926
3.5172808422979926
3.5172808422979926
3.529589786627985
3.548053203123014
3.591134508277999
3.61575239693801
3.61575239693801
3.609597924773
3.6280613412680016
3.61575239693801
3.6219068691030203
3.609597924773
3.591134508277999
3.5849800361130173
3.560362147453006
3.578825563948007
3.7142239515780275
3.886549172198051
4.065028864983084
4.237354085603107
4.292744335088111
4.095801225808079
3.788077617558033
3.486508481473
3.4311182319879947
3.5172808422979926
3.572671091782997
3.5972889804430093
3.61575239693801
3.6896060629180156
3.7265328959080186
3.7449963124030208
3.75115078456803
3.75730525673304
3.781923145393024
3.781923145393024
3.788077617558033
3.800386561888025
3.8126955062180454
3.8188499783830263
3.8126955062180454
3.7942320897230433
3.7696142010630322
3.7696142010630322
3.763459728898022
3.75115078456803
3.6896060629180156
3.75730525673304
3.7696142010630322
3.8188499783830263
3.837313394878028
3.843467867043037
3.8496223392080475
3.843467867043037
3.843467867043037
3.8496223392080475
3.8619312835380395
3.8803947000330408
3.8988581165280416
3.9173215330230438
3.9296304773530633
3.9542483660130467
3.9727117825080467
3.9850207268380675
3.9973296711680604
4.009638615498079
4.015793087663061
4.015793087663061
4.021947559828071
4.021947559828071
4.021947559828071
4.015793087663061
3.9973296711680604
3.9850207268380675
3.9727117825080467
3.9665573103430645
3.9604028381780574
3.9604028381780574
3.9419394216830552
3.948093893848065
3.9234760051880535
3.8927036443630603
3.874240227868059
3.8619312835380395
3.8927036443630603
3.9111670608580615
3.9173215330230438
3.9173215330230438
3.9173215330230438
3.948093893848065
3.9604028381780574
3.9542483660130467
3.9665573103430645
3.948093893848065
3.948093893848065
3.9665573103430645
3.9850207268380675
4.003484143333068
4.015793087663061
4.015793087663061
4.058874392818074
4.108110170138069
4.181963836118102
4.465069555708134
4.809719996948181
5.068207827878203
5.283614353653239
5.468248518603279
5.579029017573289
5.628264794893284
5.714427405203311
5.763663182523304
5.800590015513308
5.8805981536583225
5.972915236133329
6.052923374278346
6.089850207268349
6.194476234073376
6.231403067063379
6.274484372218392
6.305256733043441
6.329874621703424
6.372955926858436
6.397573815518448
6.440655120673461
6.477581953663464
6.508354314488457
6.532972203148468
6.557590091808479
6.588362452633473
6.6252892856234755
6.662216118613479
6.6868340072734895
6.692988479438499
6.680679535108479
6.680679535108479
6.674525062943497
6.674525062943497
6.674525062943497
6.674525062943497
6.674525062943497
6.680679535108479
6.662216118613479
6.656061646448497
6.662216118613479
6.662216118613479
6.662216118613479
6.66837059077849
6.66837059077849
6.637598229953468
6.600671396963465
6.6868340072734895
6.680679535108479
6.649907174283487
6.6252892856234755
6.606825869128475
6.588362452633473
6.551435619643471
6.532972203148468
6.532972203148468
6.532972203148468
6.539126675313478
6.54528114747846
6.532972203148468
6.532972203148468
6.526817730983458
6.508354314488457
6.508354314488457
6.5637445639734615
6.816077922738501
7.006866559853525
7.173037308308565
7.234582029958553
7.025329976348528
6.692988479438499
6.372955926858436
6.25602095572339
6.25602095572339
6.182167289743385
5.917524986648326
4.101955697973087
2.649500267032867
2.618727906207874
2.649500267032867
2.6433457948678853
2.649500267032867
2.655654739197877
2.674118155692878
2.68642710002287
2.7171994608478913
2.772589710332896
2.8033620711578893
2.815671015487909
2.821825487652891
2.8402889041478923
2.883370209302905
2.9141425701278982
2.9387604587879093
2.9633783474479203
2.994150708272913
3.043386485592936
3.080313318582939
3.1049312072429505
3.1357035680679433
3.141858040232953
3.1233946237379517
3.1049312072429505
3.092622262912931
3.1049312072429505
3.117240151572942
3.1110856794079322
3.0864677907479487
3.0864677907479487
3.092622262912931
3.092622262912931
3.1110856794079322
3.141858040232953
3.160321456727955
3.154166984562945
3.160321456727955
3.166475928892937
3.191093817552948
3.2095572340479492
3.215711706212959
3.2034027618829395
3.2034027618829395
3.184939345387937
3.141858040232953
3.1049312072429505
3.074158846417929
3.0680043742529195
3.049540957757918
3.043386485592936
3.0310775412629165
3.018768596932925
3.018768596932925
3.0126141247679152
3.006459652602933
3.006459652602933
2.994150708272913
2.9879962361079313
2.9879962361079313
3.0003051804379233
3.0003051804379233
3.0249230690979347
3.0310775412629165
3.043386485592936
3.055695429922928
3.074158846417929
3.074158846417929
3.0864677907479487
3.0864677907479487
3.1049312072429505
3.1110856794079322
3.1233946237379517
3.1357035680679433
3.1357035680679433
3.1295490959029335
3.1295490959029335
3.141858040232953
3.154166984562945
3.166475928892937
3.178784873222956
3.197248289717957
3.191093817552948
3.197248289717957
3.191093817552948
3.191093817552948
3.197248289717957
3.197248289717957
3.191093817552948
3.197248289717957
3.2034027618829395
3.2034027618829395
3.2095572340479492
3.2280206505429514
3.234175122707961
3.2403295948729705
3.2464840670379527
3.2526385392029624
3.258793011367972
3.271101955697964
3.277256427862973
3.2957198443579747
3.301874316522957
3.3141832608529764
3.3203377330179586
3.3449556216779697
3.375727982502963
3.381882454667973
3.3203377330179586
3.412654815492993
3.5849800361130173
3.738841840238039
3.75730525673304
3.763459728898022
3.75730525673304
3.738841840238039
3.7142239515780275
3.7142239515780275
3.720378423743037
3.720378423743037
3.7142239515780275
3.720378423743037
3.732687368073029
3.7265328959080186
3.732687368073029
3.738841840238039
3.75730525673304
3.75730525673304
3.75730525673304
3.732687368073029
3.677297118588024
3.634215813433012
3.609597924773
3.6034434526080172
3.6034434526080172
3.5972889804430093
3.591134508277999
3.591134508277999
3.591134508277999
3.572671091782997
3.5665166196180156
3.5357442587929944
3.541898730958004
3.634215813433012
3.788077617558033
3.948093893848065
4.101955697973087
4.2065817247780855
4.108110170138069
3.837313394878028
3.5172808422979926
3.3511100938429803
3.3880369268329824
3.4311182319879947
3.4557361206479786
3.504971897968001
3.572671091782997
3.6219068691030203
3.640370285598021
3.652679229928013
3.6649881742580046
3.6649881742580046
3.671142646423015
3.671142646423015
3.6834515907530063
3.695760535083026
3.7080694794130173
3.7265328959080186
3.75730525673304
3.7757686732280415
3.7757686732280415
3.7942320897230433
3.8126955062180454
3.831158922713046
3.843467867043037
3.8619312835380395
3.874240227868059
3.8927036443630603
3.8988581165280416
3.9173215330230438
3.9296304773530633
3.9419394216830552
3.9604028381780574
3.9665573103430645
3.9911751990030497
3.9973296711680604
4.009638615498079
4.028102031993082
4.034256504158063
4.040410976323072
4.0465654484880815
4.052719920653064
4.065028864983084
4.083492281478085
4.095801225808079
4.101955697973087
4.108110170138069
4.089646753643067
4.077337809313075
4.065028864983084
4.052719920653064
4.0465654484880815
4.040410976323072
4.040410976323072
4.0465654484880815
4.0465654484880815
4.0465654484880815
4.034256504158063
4.028102031993082
4.028102031993082
4.052719920653064
4.181963836118102
4.2865898629231
4.298898807253093
4.280435390758093
4.27428091859311
4.2681264464281
4.255817502098108
4.243508557768089
4.237354085603107
4.231199613438097
4.225045141273086
4.218890669108104
4.212736196943095
4.212736196943095
4.2065817247780855
4.2065817247780855
4.212736196943095
4.225045141273086
4.243508557768089
4.385061417563119
4.68047608148317
4.81587446911319
4.877419190763177
4.93896391241319
4.982045217568204
5.000508634063205
5.018972050558207
5.0497444113832
5.080516772208221
5.098980188703223
5.111289133033214
5.135907021693225
5.166679382518219
5.19745174334324
5.209760687673231
5.2220696320032225
5.2405330484982535
5.252841992828244
5.246687520663237
5.2405330484982535
5.234378576333243
5.234378576333243
5.234378576333243
5.252841992828244
5.265150937158236
5.265150937158236
5.277459881488257
5.295923297983257
5.308232242313249
5.326695658808251
5.326695658808251
5.326695658808251
5.31438671447826
5.31438671447826
5.320541186643241
5.33285013097326
5.351313547468262
5.375931436128245
5.388240380458265
5.382085908293255
5.369776963963263
5.375931436128245
5.394394852623274
5.419012741283257
5.437476157778259
5.437476157778259
5.437476157778259
5.443630629943269
5.431321685613277
5.369776963963263
5.431321685613277
5.431321685613277
5.412858269118276
5.425167213448267
5.431321685613277
5.437476157778259
5.425167213448267
5.412858269118276
5.406703796953265
5.419012741283257
5.425167213448267
5.437476157778259
5.443630629943269
5.437476157778259
5.443630629943269
5.449785102108279
5.462094046438272
5.462094046438272
5.455939574273261
5.449785102108279
5.455939574273261
5.449785102108279
5.437476157778259
5.425167213448267
5.425167213448267
5.419012741283257
5.412858269118276
5.412858269118276
5.394394852623274
5.419012741283257
5.529793240253267
5.6713461000482965
5.782126599018308
5.892907097988342
5.911370514483344
5.751354238193313
5.499020879428274
5.302077770148239
5.265150937158236
5.289768825818246
5.289768825818246
5.326695658808251
5.357468019633243
5.357468019633243
5.3390046031382425
5.302077770148239
5.277459881488257
5.252841992828244
5.2405330484982535
5.228224104168233
5.2220696320032225
5.228224104168233
5.203606215508222
5.19129727117823
5.185142799013221
5.166679382518219
5.154370438188227
5.142061493858235
5.129752549528216
5.129752549528216
5.117443605198224
5.080516772208221
5.037435467053208
5.018972050558207
4.9881996897332135
4.957427328908192
4.9266549680832
4.895882607258178
4.883573662928187
4.858955774268176
4.840492357773174
4.772793163958178
4.809719996948181
4.7912565804531795
4.772793163958178
4.766638691793168
4.760484219628157
4.735866330968175
4.7297118588031655
4.723557386638154
4.717402914473172
4.735866330968175
4.748175275298167
4.760484219628157
4.766638691793168
4.772793163958178
4.772793163958178
4.785102108288171
4.797411052618189
4.809719996948181
4.809719996948181
4.809719996948181
4.81587446911319
4.846646829938186
4.840492357773174
4.809719996948181
4.797411052618189
4.778947636123188
4.766638691793168
4.754329747463175
4.735866330968175
4.735866330968175
4.7297118588031655
4.723557386638154
4.723557386638154
4.711248442308165
4.698939497978172
4.692785025813162
4.68047608148317
4.686630553648152
4.692785025813162
4.686630553648152
4.692785025813162
4.698939497978172
4.692785025813162
4.686630553648152
4.68047608148317
4.67432160931816
4.668167137153151
4.662012664988168
4.649703720658149
4.655858192823159
4.668167137153151
4.649703720658149
4.6004679433381535
4.557386638183142
4.458915083543125
4.3112077515831135
3.9173215330230438
3.043386485592936
2.538719768062857
2.526410823732866
2.5694921288878514
2.6064189618778553
2.6371913227028756
2.68642710002287
2.711044988682881
2.729508405177883
2.754126293837894
2.760280766002876
2.772589710332896
2.797207598992907
2.815671015487909
2.8279799598179
2.834134431982911
2.834134431982911
2.8525978484779113
2.877215737137895
2.8895246814679143
2.907988097962916
2.9264515144579173
2.9510694031179288
2.9387604587879093
2.9202970422929075
2.907988097962916
2.9141425701278982
2.9141425701278982
2.907988097962916
2.895679153632896
2.8895246814679143
2.8895246814679143
2.895679153632896
2.895679153632896
2.895679153632896
2.9141425701278982
2.9141425701278982
2.9141425701278982
2.9202970422929075
2.932605986622927
2.9572238752829105
2.96953281961293
2.9879962361079313
3.0126141247679152
3.0618499020879373
3.0987767350779407
3.1233946237379517
3.1480125123979352
3.1726304010579467
3.197248289717957
3.2280206505429514
3.2526385392029624
3.277256427862973
3.301874316522957
3.301874316522957
3.308028788687967
3.3264922051829684
3.357264566007961
3.375727982502963
3.394191398997992
3.418809287657976
3.437272704152977
3.4618905928129893
3.449581648482997
3.394191398997992
3.4557361206479786
3.468045064977998
3.504971897968001
3.5172808422979926
3.572671091782997
3.831158922713046
4.0711833371480655
4.212736196943095
4.3173622237481215
4.385061417563119
4.452760611378115
4.508150860863147
4.54507769385315
4.575850054678144
4.557386638183142
4.557386638183142
4.625085831998166
4.785102108288171
4.93896391241319
5.111289133033214
5.258996464993254
5.265150937158236
5.086671244373231
4.877419190763177
4.766638691793168
4.7912565804531795
4.840492357773174
4.858955774268176
4.908191551588198
4.963581801073202
4.9881996897332135
5.006663106228215
5.043589939218219
5.0312809948882
5.0312809948882
5.068207827878203
5.080516772208221
5.111289133033214
5.111289133033214
5.086671244373231
5.068207827878203
5.012817578393197
4.957427328908192
4.9266549680832
4.895882607258178
4.8651102464331855
4.840492357773174
4.809719996948181
4.803565524783171
4.785102108288171
4.748175275298167
4.7420208031331565
4.7297118588031655
4.711248442308165
4.705093970143154
4.711248442308165
4.705093970143154
4.686630553648152
4.68047608148317
4.67432160931816
4.655858192823159
4.625085831998166
4.612776887668146
4.625085831998166
4.612776887668146
4.606622415503137
4.5820045268431535
4.255817502098108
3.043386485592936
2.704890516517872
2.729508405177883
2.747971821672884
2.772589710332896
2.821825487652891
2.858752320642893
2.895679153632896
2.9202970422929075
3.0310775412629165
3.400345871162973
3.671142646423015
3.8126955062180454
3.9173215330230438
3.9973296711680604
4.052719920653064
4.095801225808079
4.138882530963089
4.1758093639530935
4.218890669108104
4.2681264464281
4.323516695913104
4.366598001068117
4.40967930622313
4.440451667048122
4.465069555708134
4.508150860863147
4.551232166018132
4.6004679433381535
4.637394776328158
4.668167137153151
4.692785025813162
4.735866330968175
4.7420208031331565
4.766638691793168
4.778947636123188
4.778947636123188
4.785102108288171
4.803565524783171
4.822028941278172
4.834337885608192
4.834337885608192
4.8651102464331855
4.871264718598195
4.8651102464331855
4.877419190763177
4.877419190763177
4.883573662928187
4.871264718598195
4.822028941278172
4.889728135093197
4.902037079423188
4.883573662928187
4.822028941278172
4.871264718598195
4.883573662928187
4.8651102464331855
4.840492357773174
4.840492357773174
4.8528013021031935
4.846646829938186
4.8528013021031935
4.828183413443182
4.81587446911319
4.778947636123188
4.760484219628157
4.735866330968175
4.711248442308165
4.711248442308165
4.692785025813162
4.68047608148317
4.67432160931816
4.662012664988168
4.649703720658149
4.6435492484931675
4.649703720658149
4.649703720658149
4.637394776328158
4.631240304163148
4.625085831998166
4.625085831998166
4.618931359833156
4.625085831998166
4.625085831998166
4.625085831998166
4.625085831998166
4.618931359833156
4.618931359833156
4.625085831998166
4.612776887668146
4.6004679433381535
4.6004679433381535
4.6004679433381535
4.6004679433381535
4.606622415503137
4.612776887668146
4.637394776328158
4.637394776328158
4.637394776328158
4.631240304163148
4.631240304163148
4.6435492484931675
4.637394776328158
4.631240304163148
4.631240304163148
4.625085831998166
4.612776887668146
4.618931359833156
4.618931359833156
4.612776887668146
4.606622415503137
4.612776887668146
4.612776887668146
4.612776887668146
4.612776887668146
4.606622415503137
4.588158999008135
4.606622415503137
4.606622415503137
4.612776887668146
4.612776887668146
4.612776887668146
4.618931359833156
4.625085831998166
4.637394776328158
4.631240304163148
4.637394776328158
4.631240304163148
4.631240304163148
4.6004679433381535
4.557386638183142
4.5327687495231315
4.5820045268431535
4.711248442308165
4.834337885608192
4.969736273238212
5.086671244373231
5.037435467053208
4.81587446911319
4.5820045268431535
4.489687444368147
4.52661427735815
4.5820045268431535
4.5820045268431535
4.54507769385315
4.563541110348153
4.5820045268431535
4.588158999008135
4.6004679433381535
4.6004679433381535
4.5943134711731455
4.6004679433381535
4.6004679433381535
4.606622415503137
4.5943134711731455
4.5820045268431535
4.5820045268431535
4.575850054678144
4.569695582513134
4.575850054678144
4.569695582513134
4.557386638183142
4.563541110348153
4.557386638183142
4.569695582513134
4.563541110348153
4.563541110348153
4.563541110348153
4.563541110348153
4.569695582513134
4.575850054678144
4.606622415503137
4.606622415503137
4.6004679433381535
4.5943134711731455
4.5327687495231315
4.5820045268431535
4.569695582513134
4.551232166018132
4.520459805193139
4.489687444368147
4.452760611378115
4.421988250553122
4.40967930622313
4.391215889728128
4.354289056738125
4.3112077515831135
4.305053279418103
4.292744335088111
4.27428091859311
4.27428091859311
4.280435390758093
4.27428091859311
4.2681264464281
4.261971974263091
4.255817502098108
4.243508557768089
4.231199613438097
4.212736196943095
4.2065817247780855
4.2065817247780855
4.1942727804480935
4.2065817247780855
4.200427252613103
4.200427252613103
4.1942727804480935
4.2065817247780855
4.237354085603107
4.261971974263091
4.280435390758093
4.298898807253093
4.329671168078114
4.323516695913104
4.323516695913104
4.341980112408105
4.3112077515831135
4.305053279418103
4.323516695913104
4.341980112408105
4.360443528903107
4.3727524732331275
4.348134584573115
4.354289056738125
4.366598001068117
4.3727524732331275
4.354289056738125
4.341980112408105
4.360443528903107
4.366598001068117
4.3727524732331275
4.37890694539811
4.391215889728128
4.385061417563119
4.360443528903107
4.292744335088111
4.237354085603107
4.231199613438097
4.237354085603107
4.231199613438097
4.200427252613103
3.8188499783830263
3.301874316522957
2.747971821672884
2.704890516517872
2.723353933012873
2.815671015487909
2.96953281961293
3.018768596932925
2.877215737137895
2.797207598992907
2.7848986546628876
2.778744182497905
2.766435238167886
2.821825487652891
2.883370209302905
2.9572238752829105
3.006459652602933
3.0310775412629165
3.049540957757918
3.092622262912931
3.1295490959029335
3.1357035680679433
3.160321456727955
3.191093817552948
3.2403295948729705
3.277256427862973
3.2957198443579747
3.2464840670379527
3.2095572340479492
3.160321456727955
3.1049312072429505
3.055695429922928
3.043386485592936
3.018768596932925
2.994150708272913
2.994150708272913
3.018768596932925
3.0310775412629165
3.080313318582939
3.1480125123979352
3.2034027618829395
3.221866178377941
3.2526385392029624
3.308028788687967
3.511126370132983
3.5849800361130173
3.5849800361130173
3.609597924773
3.6280613412680016
3.6465247577630033
3.658833702093023
3.720378423743037
3.7942320897230433
3.825004450548036
3.831158922713046
3.825004450548036
3.8065410340530352
3.75730525673304
3.8188499783830263
3.8126955062180454
3.825004450548036
3.8680857557030492
3.9911751990030497
4.280435390758093
5.025126522723218
5.412858269118276
5.406703796953265
5.246687520663237
5.05589888354821
4.932809440248209
4.93896391241319
4.994354161898196
4.951272856743211
4.889728135093197
4.846646829938186
4.8528013021031935
4.8651102464331855
4.8651102464331855
4.8528013021031935
4.8528013021031935
4.834337885608192
4.828183413443182
4.81587446911319
4.822028941278172
4.822028941278172
4.81587446911319
4.803565524783171
4.803565524783171
4.803565524783171
4.7912565804531795
4.778947636123188
4.778947636123188
4.778947636123188
4.772793163958178
4.778947636123188
4.785102108288171
4.778947636123188
4.778947636123188
4.766638691793168
4.766638691793168
4.711248442308165
4.434297194883113
4.200427252613103
4.089646753643067
3.9973296711680604
3.9173215330230438
3.8803947000330408
3.886549172198051
3.8680857557030492
3.9173215330230438
3.8619312835380395
3.837313394878028
3.8065410340530352
3.75730525673304
3.720378423743037
3.677297118588024
3.6280613412680016
3.572671091782997
3.529589786627985
3.504971897968001
3.4741995371429804
3.418809287657976
3.4557361206479786
3.4557361206479786
3.4434271763179867
3.418809287657976
3.400345871162973
3.400345871162973
3.3880369268329824
3.3880369268329824
3.400345871162973
3.3880369268329824
3.394191398997992
3.394191398997992
3.406500343327984
3.400345871162973
3.381882454667973
3.3695735103379807
3.3880369268329824
3.400345871162973
3.412654815492993
3.412654815492993
3.412654815492993
3.412654815492993
3.418809287657976
3.418809287657976
3.424963759822985
3.418809287657976
3.412654815492993
3.412654815492993
3.400345871162973
3.400345871162973
3.424963759822985
3.4434271763179867
3.437272704152977
3.4434271763179867
3.449581648482997
3.449581648482997
3.4434271763179867
3.4311182319879947
3.424963759822985
3.4434271763179867
3.4988174258029914
3.5542076752879965
3.5972889804430093
3.634215813433012
3.6280613412680016
3.61575239693801
3.6034434526080172
3.61575239693801
3.6219068691030203
3.61575239693801
3.61575239693801
3.61575239693801
3.609597924773
3.5972889804430093
3.6034434526080172
3.6280613412680016
3.6219068691030203
3.572671091782997
3.640370285598021
3.634215813433012
3.6034434526080172
3.578825563948007
3.560362147453006
3.5665166196180156
3.572671091782997
3.560362147453006
3.541898730958004
3.529589786627985
3.5172808422979926
3.504971897968001
3.4988174258029914
3.4926629536379816
3.4741995371429804
3.437272704152977
3.412654815492993
3.412654815492993
3.406500343327984
3.400345871162973
3.394191398997992
3.3880369268329824
3.3880369268329824
3.3880369268329824
3.3880369268329824
3.381882454667973
3.375727982502963
3.375727982502963
3.3695735103379807
3.363419038172971
3.3388011495129604
3.3264922051829684
3.3141832608529764
3.2957198443579747
3.283410900027955
3.271101955697964
3.271101955697964
3.271101955697964
3.258793011367972
3.2526385392029624
3.221866178377941
3.215711706212959
3.394191398997992
3.8803947000330408
4.280435390758093
4.606622415503137
4.8651102464331855
4.982045217568204
4.834337885608192
4.612776887668146
4.458915083543125
4.514305333028129
4.618931359833156
4.705093970143154
4.748175275298167
4.822028941278172
4.908191551588198
4.975890745403193
5.0312809948882
5.080516772208221
5.111289133033214
5.148215966023217
5.172833854683229
5.234378576333243
5.271305409323245
5.295923297983257
5.345159075303252
5.468248518603279
5.535947712418277
5.566720073243298
5.566720073243298
5.554411128913278
5.585183489738299
5.622110322728302
5.6590371557183055
5.6898095165432965
5.726736349533301
5.702118460873318
5.6590371557183055
5.6036469062333
5.554411128913278
5.499020879428274
5.277459881488257
4.902037079423188
4.7297118588031655
4.692785025813162
4.668167137153151
4.655858192823159
4.631240304163148
4.612776887668146
4.5820045268431535
4.551232166018132
4.52661427735815
4.495841916533129
4.483532972203136
4.465069555708134
4.458915083543125
4.440451667048122
4.428142722718132
4.421988250553122
4.40352483405812
4.397370361893111
4.391215889728128
4.385061417563119
4.397370361893111
4.397370361893111
4.483532972203136
4.711248442308165
4.858955774268176
4.932809440248209
4.994354161898196
5.043589939218219
5.068207827878203
5.092825716538213
5.123598077363234
5.135907021693225
5.148215966023217
5.160524910353237
5.172833854683229
5.185142799013221
5.172833854683229
5.117443605198224
5.203606215508222
5.2220696320032225
5.228224104168233
5.234378576333243
5.252841992828244
5.252841992828244
5.2405330484982535
5.246687520663237
5.258996464993254
5.265150937158236
5.271305409323245
5.277459881488257
5.277459881488257
5.277459881488257
5.277459881488257
5.283614353653239
5.283614353653239
5.283614353653239
5.289768825818246
5.289768825818246
5.283614353653239
5.283614353653239
5.283614353653239
5.295923297983257
5.302077770148239
5.308232242313249
5.308232242313249
5.31438671447826
5.31438671447826
5.320541186643241
5.33285013097326
5.351313547468262
5.357468019633243
5.369776963963263
5.394394852623274
5.443630629943269
5.511329823758264
5.554411128913278
5.579029017573289
5.585183489738299
5.597492434068291
5.6036469062333
5.628264794893284
5.646728211388286
5.665191627883287
5.6590371557183055
5.640573739223304
5.634419267058294
5.628264794893284
5.628264794893284
5.628264794893284
5.622110322728302
5.609801378398282
5.615955850563292
5.622110322728302
5.622110322728302
5.622110322728302
5.646728211388286
5.646728211388286
5.640573739223304
5.615955850563292
5.579029017573289
5.560565601078289
5.548256656748296
5.529793240253267
5.523638768088285
5.517484295923275
5.492866407263264
5.462094046438272
5.425167213448267
5.412858269118276
5.388240380458265
5.382085908293255
5.382085908293255
5.382085908293255
5.363622491798253
5.308232242313249
5.252841992828244
5.283614353653239
5.437476157778259
5.634419267058294
5.825207904173318
5.991378652628332
6.046768902113364
5.81905343200831
5.474402990768261
5.160524910353237
5.098980188703223
5.129752549528216
5.142061493858235
5.105134660868233
5.086671244373231
5.098980188703223
5.117443605198224
5.105134660868233
5.098980188703223
5.092825716538213
5.080516772208221
5.080516772208221
5.068207827878203
5.05589888354821
5.043589939218219
5.043589939218219
5.037435467053208
5.0312809948882
5.025126522723218
5.025126522723218
5.018972050558207
5.018972050558207
5.012817578393197
5.006663106228215
5.000508634063205
5.006663106228215
5.006663106228215
5.012817578393197
5.000508634063205
5.006663106228215
5.000508634063205
4.994354161898196
4.994354161898196
4.975890745403193
4.902037079423188
4.982045217568204
4.9881996897332135
4.982045217568204
4.994354161898196
4.9881996897332135
4.9881996897332135
4.994354161898196
4.994354161898196
4.994354161898196
4.91434602375318
4.957427328908192
5.018972050558207
5.012817578393197
5.006663106228215
5.006663106228215
5.006663106228215
5.000508634063205
4.982045217568204
4.982045217568204
4.982045217568204
4.975890745403193
4.963581801073202
4.945118384578201
4.963581801073202
5.068207827878203
5.185142799013221
5.265150937158236
5.308232242313249
5.295923297983257
5.295923297983257
5.302077770148239
5.308232242313249
5.31438671447826
5.357468019633243
5.4005493247882566
5.431321685613277
5.468248518603279
5.505175351593283
5.542102184583286
5.566720073243298
5.6036469062333
5.665191627883287
5.695963988708308
5.7082729330383
5.714427405203311
5.6590371557183055
5.523638768088285
5.172833854683229
3.2034027618829395
0.9139391165026156
0.5138984257775646
0.5446707866025856
0.5939065639225805
0.6616057577376044
0.7231504793875909
0.7539228402126119
0.7846952010376053
0.8216220340276081
0.8339309783576276
0.8339309783576276
0.8585488670176111
0.8708578113476306
0.9139391165026156
0.9631748938226381
0.9754838381526297
1.0124106711426328
1.0554919762976458
1.0862643371226666
1.1231911701126696
1.1539635309376628
1.1970448360926755
1.215508252587677
1.2462806134126705
1.3016708628976748
1.3509066402176972
1.4062968897027015
1.4555326670226965
1.510922916507701
1.5416952773327224
1.5355408051677124
1.5601586938277234
1.590931054652717
1.615548943312728
1.6401668319727392
1.677093664962742
1.6955570814577436
1.7263294422827367
1.7632562752727399
1.8063375804277528
1.8432644134177558
1.8863457185727683
1.91096360723278
1.954044912387765
1.990971745377768
2.0217441062027888
2.0586709391927913
2.083288827852803
2.120215660842805
2.138679077337807
2.1571424938328088
2.200223798987821
2.2371506319778245
2.261768520637808
2.2740774649678275
2.2925408814628288
2.323313242287821
2.347931130947833
2.3848579639378364
2.409475852597848
2.4217847969278394
2.409475852597848
2.409475852597848
2.5325652958978484
2.735662877342893
2.96953281961293
3.197248289717957
3.3511100938429803
3.215711706212959
2.895679153632896
2.5694921288878514
2.403321380432838
2.4279392690928487
2.5694921288878514
2.6433457948678853
2.674118155692878
2.778744182497905
2.877215737137895
2.9264515144579173
2.975687291777912
3.006459652602933
3.0310775412629165
3.049540957757918
3.080313318582939
3.1110856794079322
3.1357035680679433
3.178784873222956
3.2034027618829395
3.215711706212959
3.221866178377941
3.2403295948729705
3.283410900027955
3.301874316522957
3.332646677347978
3.357264566007961
3.381882454667973
3.394191398997992
3.412654815492993
3.424963759822985
3.437272704152977
3.468045064977998
3.486508481473
3.504971897968001
3.529589786627985
3.548053203123014
3.5542076752879965
3.5665166196180156
3.5665166196180156
3.572671091782997
3.578825563948007
3.6034434526080172
3.6280613412680016
3.677297118588024
3.695760535083026
3.7080694794130173
3.7080694794130173
3.720378423743037
3.75730525673304
3.7942320897230433
3.8188499783830263
3.831158922713046
3.8619312835380395
3.9111670608580615
4.0465654484880815
4.292744335088111
4.434297194883113
4.52661427735815
4.5943134711731455
4.649703720658149
4.686630553648152
4.7297118588031655
4.766638691793168
4.803565524783171
4.883573662928187
4.889728135093197
4.883573662928187
4.908191551588198
4.889728135093197
4.871264718598195
4.877419190763177
4.871264718598195
4.889728135093197
4.895882607258178
4.895882607258178
4.889728135093197
4.902037079423188
4.908191551588198
4.902037079423188
4.902037079423188
4.895882607258178
4.889728135093197
4.889728135093197
4.883573662928187
4.883573662928187
4.883573662928187
4.877419190763177
4.871264718598195
4.877419190763177
4.871264718598195
4.858955774268176
4.858955774268176
4.858955774268176
4.8651102464331855
4.8528013021031935
4.8528013021031935
4.858955774268176
4.8651102464331855
4.858955774268176
4.846646829938186
4.840492357773174
4.840492357773174
4.846646829938186
4.8651102464331855
4.877419190763177
4.902037079423188
4.9266549680832
4.945118384578201
4.957427328908192
4.963581801073202
4.963581801073202
4.957427328908192
4.963581801073202
4.975890745403193
4.963581801073202
4.957427328908192
4.951272856743211
4.951272856743211
4.951272856743211
4.951272856743211
4.951272856743211
4.957427328908192
4.969736273238212
4.969736273238212
4.951272856743211
4.883573662928187
4.957427328908192
4.963581801073202
4.957427328908192
4.963581801073202
4.957427328908192
4.945118384578201
4.951272856743211
4.932809440248209
4.9266549680832
4.9266549680832
4.92050049591819
4.908191551588198
4.902037079423188
4.889728135093197
4.8528013021031935
4.81587446911319
4.846646829938186
4.975890745403193
5.117443605198224
5.2405330484982535
5.351313547468262
5.363622491798253
5.172833854683229
4.91434602375318
4.748175275298167
4.748175275298167
4.778947636123188
4.803565524783171
4.797411052618189
4.809719996948181
4.828183413443182
4.840492357773174
4.846646829938186
4.840492357773174
4.846646829938186
4.846646829938186
4.840492357773174
4.822028941278172
4.834337885608192
4.828183413443182
4.834337885608192
4.834337885608192
4.834337885608192
4.81587446911319
4.81587446911319
4.797411052618189
4.785102108288171
4.772793163958178
4.772793163958178
4.772793163958178
4.772793163958178
4.766638691793168
4.754329747463175
4.754329747463175
4.754329747463175
4.754329747463175
4.766638691793168
4.766638691793168
4.7420208031331565
4.735866330968175
4.735866330968175
4.723557386638154
4.723557386638154
4.7297118588031655
4.735866330968175
4.7420208031331565
4.7297118588031655
4.717402914473172
4.711248442308165
4.698939497978172
4.686630553648152
4.692785025813162
4.692785025813162
4.692785025813162
4.698939497978172
4.692785025813162
4.692785025813162
4.625085831998166
4.649703720658149
4.692785025813162
4.68047608148317
4.67432160931816
4.67432160931816
4.662012664988168
4.637394776328158
4.612776887668146
4.6004679433381535
4.6004679433381535
4.5820045268431535
4.563541110348153
4.563541110348153
4.557386638183142
4.54507769385315
4.5327687495231315
4.52661427735815
4.52661427735815
4.520459805193139
4.514305333028129
4.52661427735815
4.52661427735815
4.520459805193139
4.52661427735815
4.538923221688139
4.52661427735815
4.5327687495231315
4.538923221688139
4.538923221688139
4.54507769385315
4.54507769385315
4.557386638183142
4.563541110348153
4.575850054678144
4.588158999008135
4.588158999008135
4.5943134711731455
4.5820045268431535
4.569695582513134
4.5820045268431535
4.575850054678144
4.588158999008135
4.569695582513134
4.520459805193139
4.6004679433381535
4.625085831998166
4.606622415503137
