4.218890669108104
4.218890669108104
4.2065817247780855
4.200427252613103
4.2065817247780855
4.218890669108104
4.212736196943095
4.2065817247780855
4.212736196943095
4.218890669108104
4.225045141273086
4.212736196943095
4.212736196943095
4.200427252613103
4.200427252613103
4.2065817247780855
4.212736196943095
4.2065817247780855
4.212736196943095
4.218890669108104
4.218890669108104
4.225045141273086
4.218890669108104
4.225045141273086
4.231199613438097
4.225045141273086
4.218890669108104
4.218890669108104
4.218890669108104
4.225045141273086
4.243508557768089
4.243508557768089
4.237354085603107
4.237354085603107
4.237354085603107
4.231199613438097
4.231199613438097
4.243508557768089
4.261971974263091
4.27428091859311
4.280435390758093
4.255817502098108
4.200427252613103
4.27428091859311
4.27428091859311
4.27428091859311
4.27428091859311
4.255817502098108
4.243508557768089
4.243508557768089
4.2065817247780855
4.1942727804480935
4.2065817247780855
4.218890669108104
4.225045141273086
4.218890669108104
4.225045141273086
4.231199613438097
4.231199613438097
4.225045141273086
4.231199613438097
4.231199613438097
4.231199613438097
4.231199613438097
4.231199613438097
4.231199613438097
4.231199613438097
4.237354085603107
4.280435390758093
4.354289056738125
4.440451667048122
4.483532972203136
4.477378500038126
4.421988250553122
4.341980112408105
4.280435390758093
4.1942727804480935
4.120419114468088
4.077337809313075
4.089646753643067
4.114264642303079
4.163500419623101
4.200427252613103
4.237354085603107
4.243508557768089
4.237354085603107
4.243508557768089
4.237354085603107
4.231199613438097
4.231199613438097
4.243508557768089
4.243508557768089
4.255817502098108
4.255817502098108
4.255817502098108
4.243508557768089
4.237354085603107
4.255817502098108
4.2681264464281
4.249663029933098
4.249663029933098
4.261971974263091
4.261971974263091
4.261971974263091
4.255817502098108
4.255817502098108
4.280435390758093
4.27428091859311
4.27428091859311
4.27428091859311
4.27428091859311
4.27428091859311
4.2865898629231
4.27428091859311
4.280435390758093
4.292744335088111
4.280435390758093
4.27428091859311
4.292744335088111
4.3112077515831135
4.298898807253093
4.305053279418103
4.305053279418103
4.3173622237481215
4.323516695913104
4.329671168078114
4.329671168078114
4.335825640243124
4.335825640243124
4.341980112408105
4.348134584573115
4.360443528903107
4.366598001068117
4.37890694539811
4.37890694539811
4.366598001068117
4.366598001068117
4.348134584573115
4.341980112408105
4.341980112408105
4.323516695913104
4.298898807253093
4.2865898629231
4.280435390758093
4.2681264464281
4.237354085603107
4.231199613438097
4.218890669108104
4.2065817247780855
4.2065817247780855
4.2065817247780855
4.1758093639530935
4.151191475293081
4.2065817247780855
4.212736196943095
4.212736196943095
4.2065817247780855
4.2065817247780855
4.1942727804480935
4.163500419623101
4.157345947458091
4.163500419623101
4.169654891788083
4.157345947458091
4.12657358663307
4.2065817247780855
4.2065817247780855
4.1758093639530935
4.163500419623101
4.1758093639530935
4.181963836118102
4.181963836118102
4.1758093639530935
4.181963836118102
4.181963836118102
4.1942727804480935
4.200427252613103
4.200427252613103
4.2065817247780855
4.2065817247780855
4.2065817247780855
4.2065817247780855
4.2065817247780855
4.1942727804480935
4.2065817247780855
4.2065817247780855
4.218890669108104
4.218890669108104
4.212736196943095
4.212736196943095
4.212736196943095
4.2065817247780855
4.200427252613103
4.212736196943095
4.225045141273086
4.231199613438097
4.231199613438097
4.225045141273086
4.212736196943095
4.225045141273086
4.225045141273086
4.218890669108104
4.218890669108104
4.218890669108104
4.218890669108104
4.225045141273086
4.225045141273086
4.218890669108104
4.218890669108104
4.218890669108104
4.218890669108104
4.225045141273086
4.225045141273086
4.225045141273086
4.218890669108104
4.231199613438097
4.225045141273086
4.218890669108104
4.218890669108104
4.218890669108104
4.2065817247780855
4.2065817247780855
4.218890669108104
4.231199613438097
4.225045141273086
4.231199613438097
4.218890669108104
4.218890669108104
4.212736196943095
4.200427252613103
4.225045141273086
4.225045141273086
4.212736196943095
4.225045141273086
4.225045141273086
4.212736196943095
4.212736196943095
4.218890669108104
4.212736196943095
4.2065817247780855
4.212736196943095
4.212736196943095
4.218890669108104
4.218890669108104
4.218890669108104
4.212736196943095
4.212736196943095
4.1942727804480935
4.200427252613103
4.212736196943095
4.212736196943095
4.212736196943095
4.225045141273086
4.218890669108104
4.225045141273086
4.225045141273086
4.225045141273086
4.218890669108104
4.225045141273086
4.218890669108104
4.218890669108104
4.218890669108104
4.231199613438097
4.231199613438097
4.225045141273086
4.225045141273086
4.225045141273086
4.218890669108104
4.218890669108104
4.225045141273086
4.231199613438097
4.231199613438097
4.243508557768089
4.261971974263091
4.255817502098108
4.249663029933098
4.237354085603107
4.249663029933098
4.255817502098108
4.255817502098108
4.249663029933098
4.243508557768089
4.225045141273086
4.212736196943095
4.212736196943095
4.1942727804480935
4.157345947458091
4.231199613438097
4.231199613438097
4.225045141273086
4.225045141273086
4.218890669108104
4.1942727804480935
4.1942727804480935
4.212736196943095
4.2065817247780855
4.212736196943095
4.2065817247780855
4.1942727804480935
4.200427252613103
4.218890669108104
4.27428091859311
4.341980112408105
4.415833778388112
4.452760611378115
4.446606139213133
4.391215889728128
4.3173622237481215
4.243508557768089
4.157345947458091
4.077337809313075
4.040410976323072
4.052719920653064
4.089646753643067
4.157345947458091
4.200427252613103
4.2065817247780855
4.2065817247780855
4.200427252613103
4.200427252613103
4.200427252613103
4.212736196943095
4.218890669108104
4.212736196943095
4.231199613438097
4.225045141273086
4.225045141273086
4.231199613438097
4.231199613438097
4.243508557768089
4.249663029933098
4.237354085603107
4.249663029933098
4.249663029933098
4.255817502098108
4.243508557768089
4.237354085603107
4.243508557768089
4.27428091859311
4.27428091859311
4.280435390758093
4.2865898629231
4.280435390758093
4.2865898629231
4.27428091859311
4.292744335088111
4.3112077515831135
4.305053279418103
4.298898807253093
4.305053279418103
4.3173622237481215
4.329671168078114
4.329671168078114
4.335825640243124
4.341980112408105
4.348134584573115
4.354289056738125
4.348134584573115
4.354289056738125
4.360443528903107
4.3727524732331275
4.3727524732331275
4.37890694539811
4.385061417563119
4.40352483405812
4.40967930622313
4.40352483405812
4.397370361893111
4.385061417563119
4.37890694539811
4.385061417563119
4.3727524732331275
4.354289056738125
4.348134584573115
4.329671168078114
4.323516695913104
4.298898807253093
4.2865898629231
4.261971974263091
4.261971974263091
4.243508557768089
4.237354085603107
4.231199613438097
4.225045141273086
4.212736196943095
4.200427252613103
4.200427252613103
4.212736196943095
4.218890669108104
4.2065817247780855
4.2065817247780855
4.212736196943095
4.2065817247780855
4.200427252613103
4.212736196943095
4.2065817247780855
4.2065817247780855
4.2065817247780855
4.218890669108104
4.212736196943095
4.212736196943095
4.1942727804480935
4.188118308283084
4.212736196943095
4.218890669108104
4.225045141273086
4.212736196943095
4.200427252613103
4.157345947458091
4.200427252613103
4.200427252613103
4.218890669108104
4.225045141273086
4.225045141273086
4.218890669108104
4.225045141273086
4.218890669108104
4.218890669108104
4.231199613438097
4.231199613438097
4.243508557768089
4.231199613438097
4.231199613438097
4.237354085603107
4.231199613438097
4.231199613438097
4.231199613438097
4.225045141273086
4.237354085603107
4.237354085603107
4.237354085603107
4.243508557768089
4.249663029933098
4.243508557768089
4.243508557768089
4.237354085603107
4.237354085603107
4.243508557768089
4.249663029933098
4.231199613438097
4.231199613438097
4.243508557768089
4.261971974263091
4.249663029933098
4.249663029933098
4.243508557768089
4.237354085603107
4.231199613438097
4.243508557768089
4.237354085603107
4.237354085603107
4.249663029933098
4.243508557768089
4.243508557768089
4.237354085603107
4.237354085603107
4.237354085603107
4.237354085603107
4.237354085603107
4.237354085603107
4.237354085603107
4.231199613438097
4.249663029933098
4.243508557768089
4.200427252613103
4.292744335088111
4.298898807253093
4.292744335088111
4.2865898629231
4.2865898629231
4.27428091859311
4.255817502098108
4.218890669108104
4.237354085603107
4.231199613438097
4.225045141273086
4.231199613438097
4.249663029933098
4.243508557768089
4.237354085603107
4.231199613438097
4.237354085603107
4.237354085603107
4.237354085603107
4.243508557768089
4.237354085603107
4.218890669108104
4.212736196943095
4.212736196943095
4.212736196943095
4.200427252613103
4.1942727804480935
4.1758093639530935
4.169654891788083
4.163500419623101
4.157345947458091
4.169654891788083
4.169654891788083
4.163500419623101
4.151191475293081
4.169654891788083
4.200427252613103
4.225045141273086
4.212736196943095
4.2065817247780855
4.212736196943095
4.243508557768089
4.255817502098108
4.280435390758093
4.2681264464281
4.2681264464281
4.261971974263091
4.255817502098108
4.261971974263091
4.261971974263091
4.261971974263091
4.255817502098108
4.243508557768089
4.237354085603107
4.231199613438097
4.225045141273086
4.225045141273086
4.231199613438097
4.225045141273086
4.225045141273086
4.218890669108104
4.218890669108104
4.212736196943095
4.225045141273086
4.218890669108104
4.1942727804480935
4.249663029933098
4.225045141273086
4.2065817247780855
4.1758093639530935
4.2065817247780855
4.2865898629231
4.366598001068117
4.440451667048122
4.495841916533129
4.483532972203136
4.40967930622313
4.329671168078114
4.255817502098108
4.188118308283084
4.114264642303079
4.095801225808079
4.108110170138069
4.151191475293081
4.212736196943095
4.231199613438097
4.237354085603107
4.237354085603107
4.225045141273086
4.231199613438097
4.225045141273086
4.231199613438097
4.249663029933098
4.249663029933098
4.255817502098108
4.255817502098108
4.249663029933098
4.255817502098108
4.249663029933098
4.261971974263091
4.261971974263091
4.255817502098108
4.255817502098108
4.261971974263091
4.261971974263091
4.261971974263091
4.261971974263091
4.2681264464281
4.261971974263091
4.2681264464281
4.27428091859311
4.27428091859311
4.280435390758093
4.2681264464281
4.237354085603107
4.255817502098108
4.305053279418103
4.3173622237481215
4.3173622237481215
4.305053279418103
4.305053279418103
4.3112077515831135
4.305053279418103
4.3112077515831135
4.3173622237481215
4.329671168078114
4.323516695913104
4.329671168078114
4.335825640243124
4.341980112408105
4.348134584573115
4.354289056738125
4.366598001068117
4.360443528903107
4.366598001068117
4.366598001068117
4.360443528903107
4.360443528903107
4.360443528903107
4.366598001068117
4.348134584573115
4.335825640243124
4.323516695913104
4.3173622237481215
4.298898807253093
4.2865898629231
4.2681264464281
4.255817502098108
4.243508557768089
4.225045141273086
4.225045141273086
4.218890669108104
4.200427252613103
4.200427252613103
4.200427252613103
4.1942727804480935
4.200427252613103
4.1942727804480935
4.188118308283084
4.188118308283084
4.181963836118102
4.169654891788083
4.188118308283084
4.188118308283084
4.1942727804480935
4.188118308283084
4.188118308283084
4.188118308283084
4.181963836118102
4.188118308283084
4.181963836118102
4.169654891788083
4.1758093639530935
4.181963836118102
4.188118308283084
4.181963836118102
4.1942727804480935
4.188118308283084
4.181963836118102
4.181963836118102
4.188118308283084
4.181963836118102
4.181963836118102
4.181963836118102
4.200427252613103
4.2065817247780855
4.1942727804480935
4.151191475293081
4.212736196943095
4.218890669108104
4.2065817247780855
4.1942727804480935
4.200427252613103
4.2065817247780855
4.181963836118102
4.1758093639530935
4.181963836118102
4.181963836118102
4.1942727804480935
4.1942727804480935
4.1942727804480935
4.169654891788083
4.169654891788083
4.200427252613103
4.2065817247780855
4.2065817247780855
4.1942727804480935
4.1942727804480935
4.1942727804480935
4.1942727804480935
4.1942727804480935
4.188118308283084
4.1942727804480935
4.188118308283084
4.181963836118102
4.188118308283084
4.188118308283084
4.181963836118102
4.181963836118102
4.181963836118102
4.181963836118102
4.181963836118102
4.1758093639530935
4.169654891788083
4.169654891788083
4.169654891788083
4.1758093639530935
4.1758093639530935
4.181963836118102
4.163500419623101
4.163500419623101
4.145037003128072
4.157345947458091
4.163500419623101
4.163500419623101
4.151191475293081
4.145037003128072
4.138882530963089
4.1327280587980795
4.120419114468088
4.108110170138069
4.095801225808079
4.065028864983084
4.028102031993082
3.9973296711680604
3.9727117825080467
3.9173215330230438
3.8680857557030492
3.825004450548036
3.781923145393024
3.732687368073029
3.7265328959080186
3.7142239515780275
3.6896060629180156
3.6649881742580046
3.652679229928013
3.640370285598021
3.61575239693801
3.572671091782997
3.541898730958004
3.5172808422979926
3.511126370132983
3.5172808422979926
3.560362147453006
3.6034434526080172
3.591134508277999
3.591134508277999
3.5972889804430093
3.6034434526080172
3.609597924773
3.6034434526080172
3.5972889804430093
3.5972889804430093
3.6034434526080172
3.609597924773
3.61575239693801
3.6280613412680016
3.634215813433012
3.61575239693801
3.6219068691030203
3.61575239693801
3.5972889804430093
3.591134508277999
3.591134508277999
3.5849800361130173
3.578825563948007
3.591134508277999
3.5665166196180156
3.541898730958004
3.5357442587929944
3.5234353144630024
3.5542076752879965
3.6280613412680016
3.7142239515780275
3.781923145393024
3.788077617558033
3.75115078456803
3.6896060629180156
3.6280613412680016
3.5542076752879965
3.4741995371429804
3.4311182319879947
3.4434271763179867
3.468045064977998
3.4926629536379816
3.5542076752879965
3.609597924773
3.6280613412680016
3.5972889804430093
3.560362147453006
3.6280613412680016
3.560362147453006
3.5972889804430093
3.6465247577630033
3.640370285598021
3.658833702093023
3.671142646423015
3.695760535083026
3.6896060629180156
3.6649881742580046
3.6834515907530063
3.701915007248036
3.701915007248036
3.7080694794130173
3.7142239515780275
3.7265328959080186
3.732687368073029
3.738841840238039
3.7449963124030208
3.75115078456803
3.763459728898022
3.7757686732280415
3.781923145393024
3.788077617558033
3.7942320897230433
3.800386561888025
3.8065410340530352
3.8126955062180454
3.8188499783830263
3.837313394878028
3.837313394878028
3.843467867043037
3.8619312835380395
3.8680857557030492
3.874240227868059
3.8927036443630603
3.8988581165280416
3.905012588693053
3.9234760051880535
3.9234760051880535
3.9296304773530633
3.9357849495180455
3.9542483660130467
3.9542483660130467
3.9665573103430645
3.9788662546730578
3.9788662546730578
3.9850207268380675
3.9850207268380675
3.9911751990030497
3.9911751990030497
3.9973296711680604
3.9850207268380675
3.9850207268380675
3.9788662546730578
3.9665573103430645
3.948093893848065
3.9357849495180455
3.9234760051880535
3.9234760051880535
3.9111670608580615
3.8988581165280416
3.9111670608580615
3.905012588693053
3.8927036443630603
3.9111670608580615
3.905012588693053
3.905012588693053
3.8988581165280416
3.8988581165280416
3.905012588693053
3.905012588693053
3.905012588693053
3.9111670608580615
3.9173215330230438
3.9173215330230438
3.9111670608580615
3.9234760051880535
3.9173215330230438
3.9234760051880535
3.9173215330230438
3.9173215330230438
3.9111670608580615
3.9234760051880535
3.948093893848065
3.9604028381780574
3.9542483660130467
3.9542483660130467
3.9542483660130467
3.9604028381780574
3.9665573103430645
3.9850207268380675
3.9850207268380675
4.003484143333068
3.9973296711680604
4.003484143333068
4.009638615498079
4.009638615498079
4.003484143333068
4.015793087663061
4.015793087663061
4.021947559828071
4.021947559828071
4.021947559828071
4.034256504158063
4.034256504158063
4.034256504158063
4.028102031993082
4.034256504158063
4.034256504158063
4.034256504158063
4.034256504158063
4.052719920653064
4.065028864983084
4.077337809313075
4.065028864983084
4.058874392818074
4.0711833371480655
4.065028864983084
4.0711833371480655
4.083492281478085
4.052719920653064
4.114264642303079
4.114264642303079
4.108110170138069
4.108110170138069
4.065028864983084
4.0711833371480655
4.089646753643067
4.089646753643067
4.108110170138069
4.101955697973087
4.114264642303079
4.108110170138069
4.095801225808079
4.108110170138069
4.108110170138069
4.108110170138069
4.101955697973087
4.101955697973087
4.120419114468088
4.12657358663307
4.120419114468088
4.120419114468088
4.12657358663307
4.12657358663307
4.1327280587980795
4.12657358663307
4.1327280587980795
4.138882530963089
4.1327280587980795
4.145037003128072
4.138882530963089
4.145037003128072
4.138882530963089
4.145037003128072
4.157345947458091
4.151191475293081
4.151191475293081
4.145037003128072
4.163500419623101
4.181963836118102
4.1942727804480935
4.2065817247780855
4.200427252613103
4.188118308283084
4.1758093639530935
4.188118308283084
4.1942727804480935
4.1942727804480935
4.1942727804480935
4.188118308283084
4.1758093639530935
4.169654891788083
4.181963836118102
4.181963836118102
4.181963836118102
4.1942727804480935
4.200427252613103
4.1942727804480935
4.1942727804480935
4.181963836118102
4.1942727804480935
4.188118308283084
4.181963836118102
4.181963836118102
4.169654891788083
4.163500419623101
4.169654891788083
4.169654891788083
4.2065817247780855
4.2681264464281
4.323516695913104
4.37890694539811
4.40352483405812
4.385061417563119
4.3173622237481215
4.255817502098108
4.188118308283084
4.114264642303079
4.0465654484880815
4.0465654484880815
4.058874392818074
4.095801225808079
4.151191475293081
4.1758093639530935
4.181963836118102
4.181963836118102
4.188118308283084
4.188118308283084
4.1942727804480935
4.1942727804480935
4.1942727804480935
4.200427252613103
4.2065817247780855
4.212736196943095
4.2065817247780855
4.2065817247780855
4.2065817247780855
4.212736196943095
4.2065817247780855
4.2065817247780855
4.200427252613103
4.218890669108104
4.218890669108104
4.225045141273086
4.218890669108104
4.2065817247780855
4.212736196943095
4.225045141273086
4.212736196943095
4.225045141273086
4.231199613438097
4.237354085603107
4.237354085603107
4.225045141273086
4.237354085603107
4.255817502098108
4.249663029933098
4.249663029933098
4.261971974263091
4.261971974263091
4.249663029933098
4.2065817247780855
4.2865898629231
4.305053279418103
4.3112077515831135
4.3173622237481215
4.3173622237481215
4.3173622237481215
4.3173622237481215
4.292744335088111
4.292744335088111
4.3112077515831135
4.3173622237481215
4.335825640243124
4.341980112408105
4.341980112408105
4.3173622237481215
4.323516695913104
4.335825640243124
4.329671168078114
4.3173622237481215
4.298898807253093
4.280435390758093
4.2681264464281
4.237354085603107
4.225045141273086
4.2065817247780855
4.1942727804480935
4.181963836118102
4.181963836118102
4.1758093639530935
4.1758093639530935
4.157345947458091
4.169654891788083
4.163500419623101
4.163500419623101
4.163500419623101
4.163500419623101
4.157345947458091
4.151191475293081
4.157345947458091
4.138882530963089
4.145037003128072
4.163500419623101
4.169654891788083
4.163500419623101
4.157345947458091
4.163500419623101
4.163500419623101
4.163500419623101
4.163500419623101
4.163500419623101
4.157345947458091
4.157345947458091
4.157345947458091
4.157345947458091
4.145037003128072
4.151191475293081
4.151191475293081
4.151191475293081
4.157345947458091
4.157345947458091
4.163500419623101
4.157345947458091
4.157345947458091
4.1758093639530935
4.169654891788083
4.157345947458091
4.1758093639530935
4.2065817247780855
4.218890669108104
4.181963836118102
4.157345947458091
4.231199613438097
4.225045141273086
4.212736196943095
4.212736196943095
4.212736196943095
4.2065817247780855
4.181963836118102
4.163500419623101
4.1758093639530935
4.181963836118102
4.181963836118102
4.181963836118102
4.1942727804480935
4.2065817247780855
4.200427252613103
4.2065817247780855
4.2065817247780855
4.2065817247780855
4.212736196943095
4.2065817247780855
4.2065817247780855
4.200427252613103
4.188118308283084
4.200427252613103
4.212736196943095
4.212736196943095
4.212736196943095
4.212736196943095
4.225045141273086
4.218890669108104
4.212736196943095
4.225045141273086
4.218890669108104
4.225045141273086
4.218890669108104
4.218890669108104
4.225045141273086
4.225045141273086
4.225045141273086
4.218890669108104
4.218890669108104
4.212736196943095
4.218890669108104
4.237354085603107
4.237354085603107
4.225045141273086
4.218890669108104
4.212736196943095
4.2065817247780855
4.2065817247780855
4.1758093639530935
4.249663029933098
4.243508557768089
4.2065817247780855
4.200427252613103
4.212736196943095
4.225045141273086
4.225045141273086
4.225045141273086
4.225045141273086
4.225045141273086
4.212736196943095
4.231199613438097
4.237354085603107
4.261971974263091
4.261971974263091
4.261971974263091
4.255817502098108
4.237354085603107
4.237354085603107
4.249663029933098
4.243508557768089
4.249663029933098
4.243508557768089
4.225045141273086
4.231199613438097
4.225045141273086
4.218890669108104
4.212736196943095
4.218890669108104
4.212736196943095
4.212736196943095
4.225045141273086
4.225045141273086
4.231199613438097
4.231199613438097
4.231199613438097
4.231199613438097
4.225045141273086
4.212736196943095
4.2065817247780855
4.212736196943095
4.243508557768089
4.323516695913104
4.40967930622313
4.452760611378115
4.477378500038126
4.434297194883113
4.366598001068117
4.292744335088111
4.2065817247780855
4.1327280587980795
4.077337809313075
4.077337809313075
4.114264642303079
4.163500419623101
4.212736196943095
4.231199613438097
4.218890669108104
4.231199613438097
4.231199613438097
4.218890669108104
4.218890669108104
4.212736196943095
4.231199613438097
4.218890669108104
4.231199613438097
4.237354085603107
4.237354085603107
4.243508557768089
4.237354085603107
4.243508557768089
4.237354085603107
4.231199613438097
4.231199613438097
4.243508557768089
4.237354085603107
4.243508557768089
4.243508557768089
4.255817502098108
4.249663029933098
4.255817502098108
4.261971974263091
4.261971974263091
4.255817502098108
4.255817502098108
4.27428091859311
4.280435390758093
4.292744335088111
4.292744335088111
4.292744335088111
4.292744335088111
4.298898807253093
4.3112077515831135
4.323516695913104
4.3112077515831135
4.3173622237481215
4.323516695913104
4.329671168078114
4.335825640243124
4.341980112408105
4.348134584573115
4.348134584573115
4.360443528903107
4.360443528903107
4.360443528903107
4.3727524732331275
4.3727524732331275
4.366598001068117
4.3727524732331275
4.366598001068117
4.366598001068117
4.348134584573115
4.329671168078114
4.305053279418103
4.298898807253093
4.298898807253093
4.2865898629231
4.2681264464281
4.249663029933098
4.237354085603107
4.218890669108104
4.1758093639530935
4.225045141273086
4.225045141273086
4.212736196943095
4.200427252613103
4.200427252613103
4.163500419623101
4.151191475293081
4.169654891788083
4.169654891788083
4.169654891788083
4.181963836118102
4.181963836118102
4.181963836118102
4.1758093639530935
4.1758093639530935
4.169654891788083
4.169654891788083
4.1758093639530935
4.181963836118102
4.181963836118102
4.181963836118102
4.181963836118102
4.169654891788083
4.169654891788083
4.169654891788083
4.163500419623101
4.169654891788083
4.1758093639530935
4.169654891788083
4.169654891788083
4.1758093639530935
4.1758093639530935
4.1758093639530935
4.1758093639530935
4.1758093639530935
4.1758093639530935
4.169654891788083
4.169654891788083
4.169654891788083
4.163500419623101
4.169654891788083
4.1758093639530935
4.181963836118102
4.1758093639530935
4.163500419623101
4.163500419623101
4.181963836118102
4.188118308283084
4.1758093639530935
4.1758093639530935
4.1758093639530935
4.1758093639530935
4.163500419623101
4.1758093639530935
4.1942727804480935
4.1942727804480935
4.188118308283084
4.1942727804480935
4.1942727804480935
4.188118308283084
4.188118308283084
4.188118308283084
4.1942727804480935
4.200427252613103
4.1942727804480935
4.181963836118102
4.200427252613103
4.1942727804480935
4.1942727804480935
4.188118308283084
4.188118308283084
4.181963836118102
4.1758093639530935
4.1758093639530935
4.181963836118102
4.181963836118102
4.1942727804480935
4.1942727804480935
4.200427252613103
4.181963836118102
4.1758093639530935
4.1758093639530935
4.1758093639530935
4.163500419623101
4.169654891788083
4.163500419623101
4.169654891788083
4.163500419623101
4.163500419623101
4.169654891788083
4.163500419623101
4.169654891788083
4.1758093639530935
4.181963836118102
4.188118308283084
4.1758093639530935
4.181963836118102
4.188118308283084
4.188118308283084
4.188118308283084
4.1942727804480935
4.1942727804480935
4.1942727804480935
4.2065817247780855
4.2065817247780855
4.218890669108104
4.2065817247780855
4.2065817247780855
4.212736196943095
4.212736196943095
4.212736196943095
4.2065817247780855
4.218890669108104
4.243508557768089
4.243508557768089
4.249663029933098
4.237354085603107
4.218890669108104
4.225045141273086
4.218890669108104
4.200427252613103
4.181963836118102
4.225045141273086
4.2065817247780855
4.1942727804480935
4.1942727804480935
4.1942727804480935
4.188118308283084
4.188118308283084
4.188118308283084
4.181963836118102
4.188118308283084
4.188118308283084
4.1942727804480935
4.188118308283084
4.169654891788083
4.157345947458091
4.151191475293081
4.101955697973087
4.1758093639530935
4.188118308283084
4.181963836118102
4.212736196943095
4.27428091859311
4.341980112408105
4.391215889728128
4.397370361893111
4.385061417563119
4.3173622237481215
4.255817502098108
4.1758093639530935
4.089646753643067
4.034256504158063
4.021947559828071
4.058874392818074
4.108110170138069
4.157345947458091
4.1758093639530935
4.188118308283084
4.181963836118102
4.1758093639530935
4.169654891788083
4.1758093639530935
4.181963836118102
4.188118308283084
4.188118308283084
4.181963836118102
4.1758093639530935
4.1758093639530935
4.1758093639530935
4.181963836118102
4.1942727804480935
4.1942727804480935
4.188118308283084
4.1942727804480935
4.1942727804480935
4.1942727804480935
4.1942727804480935
4.188118308283084
4.188118308283084
4.1942727804480935
4.188118308283084
4.188118308283084
4.188118308283084
4.188118308283084
4.188118308283084
4.1942727804480935
4.212736196943095
4.212736196943095
4.218890669108104
4.212736196943095
4.2065817247780855
4.218890669108104
4.218890669108104
4.212736196943095
4.218890669108104
4.243508557768089
4.243508557768089
4.261971974263091
4.2681264464281
4.2681264464281
4.280435390758093
4.292744335088111
4.292744335088111
4.298898807253093
4.298898807253093
4.305053279418103
4.305053279418103
4.305053279418103
4.305053279418103
4.298898807253093
4.298898807253093
4.298898807253093
4.292744335088111
4.27428091859311
4.255817502098108
4.237354085603107
4.225045141273086
4.2065817247780855
4.1942727804480935
4.188118308283084
4.181963836118102
4.163500419623101
4.151191475293081
4.163500419623101
4.157345947458091
4.157345947458091
4.151191475293081
4.145037003128072
4.151191475293081
4.138882530963089
4.1327280587980795
4.138882530963089
4.157345947458091
4.157345947458091
4.157345947458091
4.151191475293081
4.138882530963089
4.151191475293081
4.151191475293081
4.157345947458091
4.157345947458091
4.145037003128072
4.095801225808079
4.188118308283084
4.200427252613103
4.1758093639530935
4.1327280587980795
4.1327280587980795
4.163500419623101
4.163500419623101
4.169654891788083
4.169654891788083
4.169654891788083
4.1758093639530935
4.169654891788083
4.1758093639530935
4.1758093639530935
4.157345947458091
4.157345947458091
4.163500419623101
4.169654891788083
4.188118308283084
4.181963836118102
4.163500419623101
4.181963836118102
4.1758093639530935
4.181963836118102
4.1758093639530935
4.1758093639530935
4.1758093639530935
4.1758093639530935
4.181963836118102
4.181963836118102
4.181963836118102
4.1758093639530935
4.181963836118102
4.1758093639530935
4.1758093639530935
4.169654891788083
4.1758093639530935
4.169654891788083
4.181963836118102
4.1758093639530935
4.1758093639530935
4.188118308283084
4.188118308283084
4.188118308283084
4.181963836118102
4.1758093639530935
4.181963836118102
4.1758093639530935
4.181963836118102
4.1758093639530935
4.1758093639530935
4.181963836118102
4.1942727804480935
4.1942727804480935
4.188118308283084
4.169654891788083
4.163500419623101
4.169654891788083
4.163500419623101
4.181963836118102
4.188118308283084
4.1942727804480935
4.188118308283084
4.1942727804480935
4.181963836118102
4.181963836118102
4.169654891788083
4.1758093639530935
4.1758093639530935
4.169654891788083
4.169654891788083
4.169654891788083
4.163500419623101
4.169654891788083
4.169654891788083
4.169654891788083
4.163500419623101
4.169654891788083
4.1758093639530935
4.169654891788083
4.163500419623101
4.169654891788083
4.169654891788083
4.1758093639530935
4.1942727804480935
4.1942727804480935
4.1942727804480935
4.188118308283084
4.1942727804480935
4.188118308283084
4.181963836118102
4.181963836118102
4.1758093639530935
4.169654891788083
4.157345947458091
4.157345947458091
4.145037003128072
4.145037003128072
4.145037003128072
4.145037003128072
4.163500419623101
4.169654891788083
4.169654891788083
4.163500419623101
4.163500419623101
4.169654891788083
4.169654891788083
4.157345947458091
4.157345947458091
4.163500419623101
4.157345947458091
4.188118308283084
4.243508557768089
4.3173622237481215
4.385061417563119
4.421988250553122
4.397370361893111
4.329671168078114
4.2681264464281
4.181963836118102
4.077337809313075
3.9850207268380675
4.058874392818074
4.083492281478085
4.101955697973087
4.145037003128072
4.181963836118102
4.1942727804480935
4.157345947458091
4.151191475293081
4.169654891788083
4.181963836118102
4.1942727804480935
4.1942727804480935
4.200427252613103
4.1942727804480935
4.200427252613103
4.2065817247780855
4.2065817247780855
4.212736196943095
4.2065817247780855
4.218890669108104
4.218890669108104
4.218890669108104
4.231199613438097
4.231199613438097
4.231199613438097
4.237354085603107
4.237354085603107
4.231199613438097
4.231199613438097
4.231199613438097
4.243508557768089
4.243508557768089
4.243508557768089
4.249663029933098
4.255817502098108
4.255817502098108
4.255817502098108
4.261971974263091
4.2681264464281
4.2681264464281
4.27428091859311
4.27428091859311
4.2865898629231
4.280435390758093
4.292744335088111
4.2865898629231
4.292744335088111
4.305053279418103
4.305053279418103
4.305053279418103
4.323516695913104
4.341980112408105
4.329671168078114
4.329671168078114
4.348134584573115
4.354289056738125
4.360443528903107
4.354289056738125
4.341980112408105
4.329671168078114
4.323516695913104
4.298898807253093
4.292744335088111
4.2865898629231
4.261971974263091
4.243508557768089
4.225045141273086
4.218890669108104
4.200427252613103
4.181963836118102
4.200427252613103
4.1942727804480935
4.1942727804480935
4.188118308283084
4.188118308283084
4.188118308283084
4.181963836118102
4.181963836118102
4.1758093639530935
4.1758093639530935
4.181963836118102
4.1758093639530935
4.188118308283084
4.1758093639530935
4.12657358663307
4.1758093639530935
4.2065817247780855
4.1942727804480935
4.1942727804480935
4.1942727804480935
4.1942727804480935
4.188118308283084
4.151191475293081
4.151191475293081
4.157345947458091
4.163500419623101
4.169654891788083
4.169654891788083
4.181963836118102
4.2065817247780855
4.200427252613103
4.181963836118102
4.1942727804480935
4.188118308283084
4.1942727804480935
4.188118308283084
4.188118308283084
4.188118308283084
4.188118308283084
4.188118308283084
4.1942727804480935
4.1942727804480935
4.1942727804480935
4.200427252613103
4.188118308283084
4.188118308283084
4.181963836118102
4.181963836118102
4.188118308283084
4.1942727804480935
4.1758093639530935
4.138882530963089
4.1942727804480935
4.169654891788083
4.151191475293081
4.163500419623101
4.169654891788083
4.181963836118102
4.1758093639530935
4.188118308283084
4.188118308283084
4.181963836118102
4.1942727804480935
4.1942727804480935
4.1942727804480935
4.200427252613103
4.2065817247780855
4.200427252613103
4.200427252613103
4.1942727804480935
4.200427252613103
4.1942727804480935
4.200427252613103
4.1942727804480935
4.200427252613103
4.188118308283084
4.1942727804480935
4.200427252613103
4.2065817247780855
4.2065817247780855
4.2065817247780855
4.200427252613103
4.1942727804480935
4.188118308283084
4.188118308283084
4.2065817247780855
4.200427252613103
4.2065817247780855
4.2065817247780855
4.2065817247780855
4.2065817247780855
4.2065817247780855
4.1942727804480935
4.2065817247780855
4.2065817247780855
4.2065817247780855
4.1942727804480935
4.181963836118102
4.188118308283084
4.2065817247780855
4.218890669108104
4.231199613438097
4.225045141273086
4.212736196943095
4.2065817247780855
4.212736196943095
4.212736196943095
4.212736196943095
4.231199613438097
4.231199613438097
4.225045141273086
4.218890669108104
4.2065817247780855
4.1942727804480935
4.181963836118102
4.1942727804480935
4.200427252613103
4.1942727804480935
4.200427252613103
4.200427252613103
4.1942727804480935
4.188118308283084
4.181963836118102
4.188118308283084
4.188118308283084
4.1758093639530935
4.169654891788083
4.181963836118102
4.212736196943095
4.27428091859311
4.341980112408105
4.397370361893111
4.428142722718132
4.385061417563119
4.3112077515831135
4.243508557768089
4.163500419623101
4.083492281478085
4.021947559828071
4.021947559828071
4.052719920653064
4.114264642303079
4.163500419623101
4.1758093639530935
4.1758093639530935
4.169654891788083
4.163500419623101
4.163500419623101
4.188118308283084
4.2065817247780855
4.200427252613103
4.1942727804480935
4.188118308283084
4.1942727804480935
4.1942727804480935
4.1942727804480935
4.200427252613103
4.218890669108104
4.218890669108104
4.225045141273086
4.218890669108104
4.225045141273086
4.2065817247780855
4.212736196943095
4.2065817247780855
4.212736196943095
4.225045141273086
4.231199613438097
4.231199613438097
4.231199613438097
4.231199613438097
4.231199613438097
4.218890669108104
4.1942727804480935
4.249663029933098
4.255817502098108
4.255817502098108
4.255817502098108
4.218890669108104
4.218890669108104
4.237354085603107
4.255817502098108
4.27428091859311
4.280435390758093
4.280435390758093
4.292744335088111
4.298898807253093
4.305053279418103
4.305053279418103
4.3173622237481215
4.329671168078114
4.329671168078114
4.329671168078114
4.341980112408105
4.335825640243124
4.348134584573115
4.348134584573115
4.335825640243124
4.329671168078114
4.323516695913104
4.305053279418103
4.27428091859311
4.255817502098108
4.2681264464281
4.27428091859311
4.27428091859311
4.2681264464281
4.261971974263091
4.255817502098108
4.249663029933098
4.249663029933098
4.261971974263091
4.255817502098108
4.237354085603107
4.225045141273086
4.231199613438097
4.225045141273086
4.231199613438097
4.225045141273086
4.218890669108104
4.212736196943095
4.218890669108104
4.212736196943095
4.2065817247780855
4.1942727804480935
4.1942727804480935
4.200427252613103
4.2065817247780855
4.200427252613103
4.200427252613103
4.200427252613103
4.188118308283084
4.2065817247780855
4.181963836118102
4.181963836118102
4.2065817247780855
4.2065817247780855
4.231199613438097
4.225045141273086
4.225045141273086
4.225045141273086
4.218890669108104
4.2065817247780855
4.225045141273086
4.225045141273086
4.225045141273086
4.218890669108104
4.225045141273086
4.218890669108104
4.218890669108104
4.225045141273086
4.218890669108104
4.218890669108104
4.218890669108104
4.218890669108104
4.225045141273086
4.225045141273086
4.225045141273086
4.212736196943095
4.212736196943095
4.218890669108104
4.218890669108104
4.231199613438097
4.237354085603107
4.225045141273086
4.218890669108104
4.218890669108104
4.212736196943095
4.2065817247780855
4.2065817247780855
4.2065817247780855
4.2065817247780855
4.200427252613103
4.218890669108104
4.218890669108104
4.218890669108104
4.218890669108104
4.225045141273086
4.212736196943095
4.212736196943095
4.218890669108104
4.212736196943095
4.200427252613103
4.2065817247780855
4.212736196943095
4.212736196943095
4.212736196943095
4.2065817247780855
4.212736196943095
4.225045141273086
4.225045141273086
4.231199613438097
4.225045141273086
4.218890669108104
4.212736196943095
4.188118308283084
4.280435390758093
4.2865898629231
4.2865898629231
4.280435390758093
4.255817502098108
4.237354085603107
4.237354085603107
4.1942727804480935
4.2065817247780855
4.218890669108104
4.231199613438097
4.231199613438097
4.225045141273086
4.237354085603107
4.243508557768089
4.249663029933098
4.280435390758093
4.280435390758093
4.280435390758093
4.261971974263091
4.261971974263091
4.249663029933098
4.237354085603107
4.249663029933098
4.255817502098108
4.249663029933098
4.231199613438097
4.225045141273086
4.231199613438097
4.218890669108104
4.169654891788083
4.108110170138069
4.163500419623101
4.1942727804480935
4.200427252613103
4.2065817247780855
4.212736196943095
4.225045141273086
4.218890669108104
4.218890669108104
4.212736196943095
4.200427252613103
4.1942727804480935
4.212736196943095
4.249663029933098
4.3173622237481215
4.385061417563119
4.465069555708134
4.489687444368147
4.428142722718132
4.335825640243124
4.261971974263091
4.169654891788083
4.089646753643067
4.052719920653064
4.0711833371480655
4.108110170138069
4.169654891788083
4.212736196943095
4.218890669108104
4.218890669108104
4.218890669108104
4.212736196943095
4.218890669108104
4.218890669108104
4.225045141273086
4.225045141273086
4.231199613438097
4.225045141273086
4.225045141273086
4.237354085603107
4.231199613438097
4.237354085603107
4.231199613438097
4.243508557768089
4.255817502098108
4.255817502098108
4.255817502098108
4.255817502098108
4.261971974263091
4.255817502098108
4.255817502098108
4.255817502098108
4.255817502098108
4.2681264464281
4.2681264464281
4.280435390758093
4.305053279418103
4.298898807253093
4.292744335088111
4.292744335088111
4.329671168078114
4.335825640243124
4.280435390758093
4.2865898629231
4.305053279418103
4.305053279418103
4.3112077515831135
4.3112077515831135
4.3173622237481215
4.3173622237481215
4.329671168078114
4.335825640243124
4.341980112408105
4.348134584573115
4.348134584573115
4.354289056738125
4.360443528903107
4.360443528903107
4.3727524732331275
4.385061417563119
4.391215889728128
4.3727524732331275
4.366598001068117
4.354289056738125
4.341980112408105
4.335825640243124
4.323516695913104
4.292744335088111
4.27428091859311
4.243508557768089
4.151191475293081
4.212736196943095
4.243508557768089
4.212736196943095
4.2065817247780855
4.200427252613103
4.1942727804480935
4.188118308283084
4.200427252613103
4.200427252613103
4.2065817247780855
4.200427252613103
4.200427252613103
4.188118308283084
4.181963836118102
4.1942727804480935
4.200427252613103
4.1942727804480935
4.188118308283084
4.181963836118102
4.1758093639530935
4.188118308283084
4.188118308283084
4.188118308283084
4.188118308283084
4.188118308283084
4.181963836118102
4.181963836118102
4.181963836118102
4.188118308283084
4.200427252613103
4.200427252613103
4.200427252613103
4.200427252613103
4.200427252613103
4.1942727804480935
4.1942727804480935
4.1942727804480935
4.181963836118102
4.188118308283084
4.1942727804480935
4.1942727804480935
4.1942727804480935
4.200427252613103
4.200427252613103
4.2065817247780855
4.2065817247780855
4.212736196943095
4.218890669108104
4.225045141273086
4.218890669108104
4.218890669108104
4.225045141273086
4.225045141273086
4.225045141273086
4.225045141273086
4.225045141273086
4.225045141273086
4.225045141273086
4.225045141273086
4.225045141273086
4.218890669108104
4.212736196943095
4.218890669108104
4.225045141273086
4.231199613438097
4.231199613438097
4.225045141273086
4.225045141273086
4.218890669108104
4.218890669108104
4.212736196943095
4.212736196943095
4.200427252613103
4.2065817247780855
4.212736196943095
4.225045141273086
4.212736196943095
4.218890669108104
4.237354085603107
4.231199613438097
4.225045141273086
4.218890669108104
4.218890669108104
4.225045141273086
4.231199613438097
4.231199613438097
4.225045141273086
4.225045141273086
4.225045141273086
4.225045141273086
4.225045141273086
4.237354085603107
4.237354085603107
4.237354085603107
4.237354085603107
4.231199613438097
4.218890669108104
4.231199613438097
4.243508557768089
4.243508557768089
4.237354085603107
4.237354085603107
4.231199613438097
4.231199613438097
4.231199613438097
4.218890669108104
4.2065817247780855
4.2065817247780855
4.218890669108104
4.237354085603107
4.255817502098108
4.255817502098108
4.249663029933098
4.237354085603107
4.225045141273086
4.218890669108104
4.212736196943095
4.218890669108104
4.212736196943095
4.2065817247780855
4.1758093639530935
4.1327280587980795
4.1942727804480935
4.188118308283084
4.181963836118102
4.181963836118102
4.1758093639530935
4.145037003128072
4.145037003128072
4.157345947458091
4.157345947458091
4.169654891788083
4.163500419623101
4.157345947458091
4.163500419623101
4.163500419623101
4.163500419623101
4.1758093639530935
4.200427252613103
4.2681264464281
4.348134584573115
4.40352483405812
4.434297194883113
4.397370361893111
4.329671168078114
4.255817502098108
4.1758093639530935
4.089646753643067
4.028102031993082
4.034256504158063
4.0465654484880815
4.083492281478085
4.138882530963089
4.163500419623101
4.163500419623101
4.157345947458091
4.157345947458091
4.163500419623101
4.157345947458091
4.163500419623101
4.163500419623101
4.157345947458091
4.157345947458091
4.151191475293081
4.145037003128072
4.157345947458091
4.163500419623101
4.169654891788083
4.163500419623101
4.157345947458091
4.157345947458091
4.163500419623101
4.163500419623101
4.157345947458091
4.145037003128072
4.151191475293081
4.163500419623101
4.169654891788083
4.1758093639530935
4.1942727804480935
4.200427252613103
4.188118308283084
4.181963836118102
4.181963836118102
4.181963836118102
4.200427252613103
4.1942727804480935
4.200427252613103
4.212736196943095
4.2065817247780855
4.212736196943095
4.218890669108104
4.218890669108104
4.2065817247780855
4.218890669108104
4.225045141273086
4.231199613438097
4.231199613438097
4.237354085603107
4.243508557768089
4.243508557768089
4.255817502098108
4.255817502098108
4.255817502098108
4.261971974263091
4.249663029933098
4.243508557768089
4.243508557768089
4.237354085603107
4.243508557768089
4.225045141273086
4.212736196943095
4.1942727804480935
4.181963836118102
4.1758093639530935
4.163500419623101
4.151191475293081
4.145037003128072
4.1327280587980795
4.12657358663307
4.1327280587980795
4.083492281478085
4.1327280587980795
4.138882530963089
4.138882530963089
4.1327280587980795
4.12657358663307
4.120419114468088
4.101955697973087
4.083492281478085
4.089646753643067
4.101955697973087
4.089646753643067
4.101955697973087
4.101955697973087
4.095801225808079
4.089646753643067
4.095801225808079
4.101955697973087
4.101955697973087
4.114264642303079
4.114264642303079
4.101955697973087
4.058874392818074
4.095801225808079
4.101955697973087
4.114264642303079
4.120419114468088
4.12657358663307
4.120419114468088
4.120419114468088
4.120419114468088
4.120419114468088
4.1327280587980795
4.138882530963089
4.145037003128072
4.138882530963089
4.145037003128072
4.138882530963089
4.138882530963089
4.151191475293081
4.169654891788083
4.1758093639530935
4.163500419623101
4.163500419623101
4.151191475293081
4.138882530963089
4.138882530963089
4.151191475293081
4.157345947458091
4.157345947458091
4.157345947458091
4.157345947458091
4.151191475293081
4.151191475293081
4.1327280587980795
4.138882530963089
4.138882530963089
4.138882530963089
4.151191475293081
4.163500419623101
4.151191475293081
4.151191475293081
4.157345947458091
4.157345947458091
4.169654891788083
4.163500419623101
4.169654891788083
4.169654891788083
4.163500419623101
4.169654891788083
4.163500419623101
4.169654891788083
4.163500419623101
4.151191475293081
4.163500419623101
4.1758093639530935
4.1758093639530935
4.169654891788083
4.181963836118102
4.181963836118102
4.1758093639530935
4.181963836118102
4.181963836118102
4.188118308283084
4.169654891788083
4.163500419623101
4.1942727804480935
4.218890669108104
4.225045141273086
4.225045141273086
4.231199613438097
4.243508557768089
4.255817502098108
4.261971974263091
4.261971974263091
4.255817502098108
4.237354085603107
4.237354085603107
4.225045141273086
4.237354085603107
4.243508557768089
4.249663029933098
4.261971974263091
4.2681264464281
4.261971974263091
4.261971974263091
4.249663029933098
4.255817502098108
4.249663029933098
4.243508557768089
4.249663029933098
4.249663029933098
4.237354085603107
4.231199613438097
4.231199613438097
4.237354085603107
4.280435390758093
4.341980112408105
4.421988250553122
4.471224027873144
4.477378500038126
4.446606139213133
4.385061417563119
4.3112077515831135
4.225045141273086
4.145037003128072
4.108110170138069
4.138882530963089
4.151191475293081
4.188118308283084
4.237354085603107
4.261971974263091
4.255817502098108
4.261971974263091
4.261971974263091
4.27428091859311
4.280435390758093
4.27428091859311
4.2681264464281
4.261971974263091
4.261971974263091
4.2681264464281
4.27428091859311
4.255817502098108
4.218890669108104
4.280435390758093
4.27428091859311
4.27428091859311
4.243508557768089
4.231199613438097
4.249663029933098
4.261971974263091
4.2681264464281
4.2681264464281
4.27428091859311
4.2865898629231
4.280435390758093
4.292744335088111
4.2865898629231
4.292744335088111
4.298898807253093
4.298898807253093
4.305053279418103
4.2865898629231
4.2865898629231
4.292744335088111
4.305053279418103
4.323516695913104
4.329671168078114
4.329671168078114
4.329671168078114
4.329671168078114
4.329671168078114
4.335825640243124
4.335825640243124
4.348134584573115
4.360443528903107
4.366598001068117
4.360443528903107
4.354289056738125
4.360443528903107
4.360443528903107
4.360443528903107
4.366598001068117
4.360443528903107
4.360443528903107
4.341980112408105
4.3173622237481215
4.305053279418103
4.305053279418103
4.2681264464281
4.2681264464281
4.255817502098108
4.255817502098108
4.237354085603107
4.237354085603107
4.225045141273086
4.218890669108104
4.225045141273086
4.225045141273086
4.218890669108104
4.218890669108104
4.225045141273086
4.243508557768089
4.243508557768089
4.243508557768089
4.225045141273086
4.225045141273086
4.225045141273086
4.218890669108104
4.225045141273086
4.218890669108104
4.218890669108104
4.2065817247780855
4.218890669108104
4.225045141273086
4.231199613438097
4.2065817247780855
4.1942727804480935
4.200427252613103
4.2065817247780855
4.212736196943095
4.218890669108104
4.218890669108104
4.218890669108104
4.218890669108104
4.2065817247780855
4.218890669108104
4.218890669108104
4.218890669108104
4.218890669108104
4.225045141273086
4.218890669108104
4.218890669108104
4.212736196943095
4.212736196943095
4.212736196943095
4.212736196943095
4.225045141273086
4.225045141273086
4.225045141273086
4.231199613438097
4.218890669108104
4.231199613438097
4.225045141273086
4.218890669108104
4.218890669108104
4.212736196943095
4.218890669108104
4.212736196943095
4.218890669108104
4.225045141273086
4.218890669108104
4.218890669108104
4.218890669108104
4.212736196943095
4.225045141273086
4.231199613438097
4.243508557768089
4.243508557768089
4.237354085603107
4.231199613438097
4.218890669108104
4.225045141273086
4.212736196943095
4.2065817247780855
4.169654891788083
4.231199613438097
4.243508557768089
4.231199613438097
4.225045141273086
4.225045141273086
4.218890669108104
4.188118308283084
4.188118308283084
4.212736196943095
4.218890669108104
4.218890669108104
4.218890669108104
4.225045141273086
4.225045141273086
4.218890669108104
4.218890669108104
4.237354085603107
4.249663029933098
4.249663029933098
4.237354085603107
4.218890669108104
4.225045141273086
4.243508557768089
4.261971974263091
4.261971974263091
4.27428091859311
4.2681264464281
4.261971974263091
4.261971974263091
4.243508557768089
4.249663029933098
4.243508557768089
4.237354085603107
4.231199613438097
4.231199613438097
4.231199613438097
4.225045141273086
4.212736196943095
4.218890669108104
4.231199613438097
4.218890669108104
4.218890669108104
4.225045141273086
4.225045141273086
4.225045141273086
4.163500419623101
4.212736196943095
4.249663029933098
4.231199613438097
4.218890669108104
4.212736196943095
4.255817502098108
4.329671168078114
4.360443528903107
4.434297194883113
4.471224027873144
4.452760611378115
4.37890694539811
4.3173622237481215
4.237354085603107
4.145037003128072
4.077337809313075
4.095801225808079
4.114264642303079
4.163500419623101
4.212736196943095
4.225045141273086
4.225045141273086
4.225045141273086
4.231199613438097
4.225045141273086
4.231199613438097
4.231199613438097
4.237354085603107
4.231199613438097
4.231199613438097
4.237354085603107
4.249663029933098
4.249663029933098
4.261971974263091
4.2681264464281
4.27428091859311
4.2681264464281
4.2681264464281
4.261971974263091
4.2681264464281
4.261971974263091
4.27428091859311
4.2865898629231
4.280435390758093
4.292744335088111
4.292744335088111
4.292744335088111
4.292744335088111
4.292744335088111
4.292744335088111
4.2865898629231
4.2865898629231
4.305053279418103
4.329671168078114
4.335825640243124
4.335825640243124
4.335825640243124
4.323516695913104
4.323516695913104
4.323516695913104
4.329671168078114
4.335825640243124
4.329671168078114
4.354289056738125
4.366598001068117
4.354289056738125
4.37890694539811
4.37890694539811
4.391215889728128
4.397370361893111
4.40352483405812
4.391215889728128
4.37890694539811
4.37890694539811
4.366598001068117
4.323516695913104
4.40352483405812
4.37890694539811
4.335825640243124
4.329671168078114
4.341980112408105
4.335825640243124
4.323516695913104
4.298898807253093
4.292744335088111
4.2865898629231
4.292744335088111
4.280435390758093
4.27428091859311
4.27428091859311
4.2681264464281
4.249663029933098
4.249663029933098
4.280435390758093
4.280435390758093
4.2865898629231
4.298898807253093
4.27428091859311
4.2681264464281
4.292744335088111
4.298898807253093
4.323516695913104
4.348134584573115
4.341980112408105
4.323516695913104
4.3173622237481215
4.329671168078114
4.305053279418103
4.298898807253093
4.3112077515831135
4.305053279418103
4.305053279418103
4.335825640243124
4.40967930622313
4.434297194883113
4.434297194883113
4.434297194883113
4.434297194883113
4.477378500038126
4.52661427735815
4.52661427735815
4.5327687495231315
4.483532972203136
4.489687444368147
4.465069555708134
4.446606139213133
4.471224027873144
4.483532972203136
4.508150860863147
4.52661427735815
4.538923221688139
4.471224027873144
4.391215889728128
4.397370361893111
4.397370361893111
4.40352483405812
4.385061417563119
4.415833778388112
4.415833778388112
4.40352483405812
4.397370361893111
4.40352483405812
4.341980112408105
4.3173622237481215
4.3727524732331275
4.428142722718132
4.37890694539811
4.360443528903107
4.3727524732331275
4.354289056738125
4.366598001068117
4.40352483405812
4.397370361893111
4.40967930622313
4.360443528903107
4.335825640243124
4.3727524732331275
4.385061417563119
4.397370361893111
4.40352483405812
4.471224027873144
4.483532972203136
4.508150860863147
4.538923221688139
4.508150860863147
4.501996388698137
4.471224027873144
4.40967930622313
4.385061417563119
4.366598001068117
4.292744335088111
4.2681264464281
4.255817502098108
4.2681264464281
4.2681264464281
4.243508557768089
4.255817502098108
4.249663029933098
4.237354085603107
4.225045141273086
4.225045141273086
4.218890669108104
4.237354085603107
4.237354085603107
4.243508557768089
4.292744335088111
4.348134584573115
4.3727524732331275
4.354289056738125
4.323516695913104
4.298898807253093
4.280435390758093
4.255817502098108
4.255817502098108
4.255817502098108
4.255817502098108
4.225045141273086
4.163500419623101
4.249663029933098
4.255817502098108
4.237354085603107
4.218890669108104
4.188118308283084
4.212736196943095
4.237354085603107
4.249663029933098
4.249663029933098
4.249663029933098
4.255817502098108
4.249663029933098
4.212736196943095
4.218890669108104
4.225045141273086
4.2681264464281
4.360443528903107
4.421988250553122
4.434297194883113
4.446606139213133
4.391215889728128
4.298898807253093
4.1942727804480935
4.095801225808079
3.9911751990030497
3.948093893848065
3.9788662546730578
4.009638615498079
4.065028864983084
4.1327280587980795
4.138882530963089
4.157345947458091
4.181963836118102
4.181963836118102
4.151191475293081
4.138882530963089
4.163500419623101
4.157345947458091
4.200427252613103
4.237354085603107
4.255817502098108
4.292744335088111
4.323516695913104
4.3112077515831135
4.3173622237481215
4.305053279418103
4.2865898629231
4.2681264464281
4.292744335088111
4.280435390758093
4.255817502098108
4.249663029933098
4.2681264464281
4.27428091859311
4.249663029933098
4.225045141273086
4.237354085603107
4.225045141273086
4.1942727804480935
4.1758093639530935
4.163500419623101
4.12657358663307
4.114264642303079
4.12657358663307
4.138882530963089
4.157345947458091
4.145037003128072
4.151191475293081
4.163500419623101
4.181963836118102
4.181963836118102
4.212736196943095
4.1942727804480935
4.181963836118102
4.188118308283084
4.181963836118102
4.1758093639530935
4.181963836118102
4.169654891788083
4.163500419623101
4.1942727804480935
4.218890669108104
4.231199613438097
4.237354085603107
4.231199613438097
4.218890669108104
4.225045141273086
4.200427252613103
4.1758093639530935
4.151191475293081
4.138882530963089
4.114264642303079
4.077337809313075
4.065028864983084
4.0465654484880815
4.052719920653064
4.058874392818074
4.034256504158063
4.021947559828071
4.028102031993082
4.034256504158063
4.052719920653064
4.083492281478085
4.108110170138069
4.12657358663307
4.145037003128072
4.151191475293081
4.120419114468088
4.108110170138069
4.083492281478085
4.095801225808079
4.101955697973087
4.1327280587980795
4.163500419623101
4.237354085603107
4.261971974263091
4.200427252613103
4.188118308283084
4.163500419623101
4.163500419623101
4.1758093639530935
4.065028864983084
4.138882530963089
4.145037003128072
4.1327280587980795
4.120419114468088
4.101955697973087
4.114264642303079
4.151191475293081
4.12657358663307
4.120419114468088
4.095801225808079
4.089646753643067
4.095801225808079
4.095801225808079
4.077337809313075
4.077337809313075
4.083492281478085
4.077337809313075
4.052719920653064
4.0465654484880815
4.052719920653064
4.058874392818074
4.058874392818074
4.0465654484880815
4.058874392818074
4.065028864983084
4.065028864983084
4.065028864983084
4.065028864983084
4.052719920653064
4.065028864983084
4.065028864983084
4.065028864983084
4.058874392818074
4.065028864983084
4.065028864983084
4.0711833371480655
4.077337809313075
4.083492281478085
4.089646753643067
4.083492281478085
4.077337809313075
4.089646753643067
4.108110170138069
4.138882530963089
4.157345947458091
4.1758093639530935
4.181963836118102
4.181963836118102
4.157345947458091
4.157345947458091
4.1942727804480935
4.243508557768089
4.305053279418103
4.323516695913104
4.329671168078114
4.2681264464281
4.225045141273086
4.237354085603107
4.212736196943095
4.1942727804480935
4.200427252613103
4.212736196943095
4.1942727804480935
4.1942727804480935
4.218890669108104
4.237354085603107
4.261971974263091
4.255817502098108
4.237354085603107
4.212736196943095
4.200427252613103
4.1758093639530935
4.1758093639530935
4.1942727804480935
4.1942727804480935
4.181963836118102
4.157345947458091
4.157345947458091
4.1942727804480935
4.2065817247780855
4.218890669108104
4.231199613438097
4.218890669108104
4.2065817247780855
4.188118308283084
4.1758093639530935
4.1758093639530935
4.1758093639530935
4.1942727804480935
4.188118308283084
4.2065817247780855
4.212736196943095
4.231199613438097
4.292744335088111
4.37890694539811
4.452760611378115
4.514305333028129
4.52661427735815
4.458915083543125
4.391215889728128
4.329671168078114
4.261971974263091
4.2065817247780855
4.188118308283084
4.243508557768089
4.305053279418103
4.37890694539811
4.477378500038126
4.477378500038126
4.434297194883113
4.452760611378115
4.483532972203136
4.508150860863147
4.471224027873144
4.428142722718132
4.397370361893111
4.385061417563119
4.391215889728128
4.40967930622313
4.428142722718132
4.440451667048122
4.421988250553122
4.508150860863147
4.495841916533129
4.452760611378115
4.465069555708134
4.471224027873144
4.465069555708134
4.495841916533129
4.557386638183142
4.563541110348153
4.52661427735815
4.483532972203136
4.465069555708134
4.465069555708134
4.501996388698137
4.495841916533129
4.483532972203136
4.477378500038126
4.452760611378115
4.458915083543125
4.538923221688139
4.5820045268431535
4.5820045268431535
4.5820045268431535
4.575850054678144
4.6004679433381535
4.5820045268431535
4.54507769385315
4.606622415503137
4.686630553648152
4.711248442308165
4.569695582513134
4.323516695913104
4.231199613438097
4.200427252613103
4.1758093639530935
4.169654891788083
4.163500419623101
4.151191475293081
4.12657358663307
4.114264642303079
4.101955697973087
4.089646753643067
4.101955697973087
4.101955697973087
4.077337809313075
4.052719920653064
4.058874392818074
4.0711833371480655
4.0711833371480655
4.052719920653064
4.034256504158063
4.009638615498079
4.015793087663061
4.021947559828071
4.028102031993082
4.021947559828071
4.021947559828071
4.009638615498079
4.021947559828071
4.034256504158063
4.034256504158063
4.021947559828071
4.028102031993082
4.034256504158063
4.009638615498079
4.003484143333068
4.015793087663061
4.009638615498079
4.015793087663061
4.015793087663061
4.021947559828071
4.015793087663061
4.015793087663061
4.015793087663061
4.021947559828071
4.052719920653064
4.065028864983084
4.0711833371480655
4.077337809313075
4.052719920653064
4.052719920653064
4.058874392818074
4.083492281478085
4.095801225808079
4.101955697973087
4.108110170138069
4.120419114468088
4.12657358663307
4.108110170138069
4.101955697973087
4.114264642303079
4.1327280587980795
4.1327280587980795
4.1327280587980795
4.12657358663307
4.138882530963089
4.163500419623101
4.163500419623101
4.157345947458091
4.1942727804480935
4.249663029933098
4.231199613438097
4.1942727804480935
4.2065817247780855
4.243508557768089
4.249663029933098
4.231199613438097
4.218890669108104
4.2065817247780855
4.237354085603107
4.249663029933098
4.249663029933098
4.2681264464281
4.2865898629231
4.3112077515831135
4.27428091859311
4.27428091859311
4.27428091859311
4.292744335088111
4.329671168078114
4.341980112408105
4.280435390758093
4.360443528903107
4.477378500038126
4.489687444368147
4.520459805193139
4.5943134711731455
4.563541110348153
4.6004679433381535
4.717402914473172
4.81587446911319
4.828183413443182
4.828183413443182
4.809719996948181
4.772793163958178
4.723557386638154
4.735866330968175
4.748175275298167
4.723557386638154
4.754329747463175
4.760484219628157
4.772793163958178
4.772793163958178
4.785102108288171
4.8528013021031935
4.877419190763177
4.877419190763177
4.877419190763177
4.877419190763177
4.902037079423188
4.883573662928187
4.883573662928187
4.8651102464331855
4.8528013021031935
4.834337885608192
4.828183413443182
4.778947636123188
4.772793163958178
4.748175275298167
4.723557386638154
4.711248442308165
4.7297118588031655
4.717402914473172
4.698939497978172
4.668167137153151
4.649703720658149
4.662012664988168
4.662012664988168
4.662012664988168
4.662012664988168
4.655858192823159
4.637394776328158
4.637394776328158
4.649703720658149
4.668167137153151
4.717402914473172
4.778947636123188
4.8528013021031935
4.908191551588198
4.945118384578201
4.889728135093197
4.778947636123188
4.6435492484931675
4.655858192823159
4.588158999008135
4.514305333028129
4.514305333028129
4.5327687495231315
4.5943134711731455
4.625085831998166
4.606622415503137
4.618931359833156
4.637394776328158
4.655858192823159
4.68047608148317
4.692785025813162
4.705093970143154
4.692785025813162
4.692785025813162
4.692785025813162
4.68047608148317
4.692785025813162
4.692785025813162
4.692785025813162
4.686630553648152
4.68047608148317
4.686630553648152
4.686630553648152
4.68047608148317
4.67432160931816
4.67432160931816
4.68047608148317
4.668167137153151
4.649703720658149
4.662012664988168
4.668167137153151
4.668167137153151
4.662012664988168
4.662012664988168
4.649703720658149
4.631240304163148
4.625085831998166
4.625085831998166
4.618931359833156
4.625085831998166
4.618931359833156
4.625085831998166
4.637394776328158
4.625085831998166
4.631240304163148
4.631240304163148
4.637394776328158
4.649703720658149
4.655858192823159
4.6435492484931675
4.6435492484931675
4.637394776328158
4.68047608148317
4.52661427735815
4.428142722718132
4.508150860863147
4.551232166018132
4.551232166018132
4.514305333028129
4.563541110348153
4.551232166018132
4.54507769385315
4.52661427735815
4.508150860863147
4.489687444368147
4.471224027873144
4.471224027873144
4.446606139213133
4.440451667048122
4.40967930622313
4.37890694539811
4.348134584573115
4.341980112408105
4.341980112408105
4.323516695913104
4.3112077515831135
4.292744335088111
4.280435390758093
4.298898807253093
4.3112077515831135
4.305053279418103
4.292744335088111
4.2865898629231
4.298898807253093
4.3112077515831135
4.3112077515831135
4.3112077515831135
4.3112077515831135
4.3112077515831135
4.305053279418103
4.305053279418103
4.3173622237481215
4.323516695913104
4.3112077515831135
4.323516695913104
4.341980112408105
4.341980112408105
4.348134584573115
4.354289056738125
4.354289056738125
4.360443528903107
4.3727524732331275
4.366598001068117
4.354289056738125
4.360443528903107
4.3727524732331275
4.366598001068117
4.360443528903107
4.348134584573115
4.348134584573115
4.348134584573115
4.341980112408105
4.348134584573115
4.348134584573115
4.348134584573115
4.354289056738125
4.341980112408105
4.348134584573115
4.360443528903107
4.354289056738125
4.329671168078114
4.305053279418103
4.3173622237481215
4.3112077515831135
4.305053279418103
4.298898807253093
4.298898807253093
4.298898807253093
4.298898807253093
4.305053279418103
4.305053279418103
4.3112077515831135
4.305053279418103
4.2865898629231
4.292744335088111
4.305053279418103
4.3173622237481215
4.323516695913104
4.323516695913104
4.323516695913104
4.305053279418103
4.3112077515831135
4.3112077515831135
4.3112077515831135
4.3112077515831135
4.298898807253093
4.298898807253093
4.305053279418103
4.298898807253093
4.298898807253093
4.3112077515831135
4.3173622237481215
4.3173622237481215
4.298898807253093
4.305053279418103
4.298898807253093
4.305053279418103
4.329671168078114
4.335825640243124
4.335825640243124
4.341980112408105
4.329671168078114
4.323516695913104
4.3173622237481215
4.3112077515831135
4.305053279418103
4.3112077515831135
4.323516695913104
4.323516695913104
4.354289056738125
4.354289056738125
4.348134584573115
4.341980112408105
4.335825640243124
4.341980112408105
4.329671168078114
4.323516695913104
4.323516695913104
4.305053279418103
4.2865898629231
4.255817502098108
4.3112077515831135
4.3173622237481215
4.305053279418103
4.255817502098108
4.243508557768089
4.261971974263091
4.280435390758093
4.27428091859311
4.292744335088111
4.305053279418103
4.298898807253093
4.292744335088111
4.280435390758093
4.2681264464281
4.261971974263091
4.2681264464281
4.298898807253093
4.37890694539811
4.452760611378115
4.514305333028129
4.54507769385315
4.501996388698137
4.421988250553122
4.335825640243124
4.237354085603107
4.157345947458091
4.101955697973087
4.114264642303079
4.145037003128072
4.2065817247780855
4.249663029933098
4.249663029933098
4.255817502098108
4.280435390758093
4.2865898629231
4.292744335088111
4.2865898629231
4.27428091859311
4.27428091859311
4.2681264464281
4.280435390758093
4.27428091859311
4.27428091859311
4.27428091859311
4.280435390758093
4.2865898629231
4.292744335088111
4.2865898629231
4.292744335088111
4.298898807253093
4.292744335088111
4.298898807253093
4.305053279418103
4.305053279418103
4.298898807253093
4.3112077515831135
4.3173622237481215
4.305053279418103
4.3112077515831135
4.3173622237481215
4.3173622237481215
4.3112077515831135
4.3112077515831135
4.329671168078114
4.3173622237481215
4.323516695913104
4.329671168078114
4.335825640243124
4.335825640243124
4.335825640243124
4.341980112408105
4.341980112408105
4.341980112408105
4.341980112408105
4.354289056738125
4.354289056738125
4.360443528903107
4.366598001068117
4.3727524732331275
4.3727524732331275
4.3727524732331275
4.37890694539811
4.37890694539811
4.37890694539811
4.366598001068117
4.366598001068117
4.360443528903107
4.348134584573115
4.323516695913104
4.298898807253093
4.2865898629231
4.27428091859311
4.2681264464281
4.255817502098108
4.231199613438097
4.218890669108104
4.2065817247780855
4.2065817247780855
4.212736196943095
4.2065817247780855
4.200427252613103
4.200427252613103
4.200427252613103
4.188118308283084
4.181963836118102
4.169654891788083
4.169654891788083
4.1758093639530935
4.1758093639530935
4.169654891788083
4.169654891788083
4.157345947458091
4.138882530963089
4.138882530963089
4.145037003128072
4.145037003128072
4.157345947458091
4.138882530963089
4.12657358663307
4.12657358663307
4.108110170138069
4.058874392818074
4.12657358663307
4.138882530963089
4.12657358663307
4.114264642303079
4.120419114468088
4.108110170138069
4.028102031993082
4.089646753643067
4.138882530963089
4.12657358663307
4.1327280587980795
4.1327280587980795
4.1327280587980795
4.12657358663307
4.083492281478085
4.089646753643067
4.089646753643067
4.108110170138069
4.108110170138069
4.095801225808079
4.083492281478085
4.077337809313075
4.083492281478085
4.101955697973087
4.095801225808079
4.095801225808079
4.077337809313075
4.058874392818074
4.058874392818074
4.052719920653064
4.040410976323072
4.009638615498079
4.003484143333068
4.009638615498079
3.9911751990030497
3.9973296711680604
4.009638615498079
3.9973296711680604
4.003484143333068
3.9911751990030497
3.9911751990030497
3.9973296711680604
3.9911751990030497
3.9911751990030497
3.9727117825080467
3.9665573103430645
3.9604028381780574
3.9604028381780574
3.9665573103430645
3.9665573103430645
3.9665573103430645
3.9788662546730578
3.9911751990030497
4.003484143333068
4.015793087663061
4.021947559828071
4.015793087663061
4.021947559828071
4.052719920653064
4.052719920653064
4.0465654484880815
4.052719920653064
4.0711833371480655
4.021947559828071
3.9973296711680604
3.9788662546730578
3.9296304773530633
3.9111670608580615
3.886549172198051
3.843467867043037
3.843467867043037
3.843467867043037
3.855776811373057
3.8619312835380395
3.855776811373057
3.855776811373057
3.8680857557030492
3.8680857557030492
3.8496223392080475
3.8619312835380395
3.874240227868059
3.8803947000330408
3.8680857557030492
3.8496223392080475
3.8496223392080475
3.886549172198051
3.8803947000330408
3.886549172198051
3.8680857557030492
3.837313394878028
3.831158922713046
3.855776811373057
3.8803947000330408
3.8927036443630603
3.8803947000330408
3.8927036443630603
3.8988581165280416
3.9173215330230438
3.9419394216830552
3.9727117825080467
4.021947559828071
4.0711833371480655
4.157345947458091
4.249663029933098
4.255817502098108
4.2065817247780855
4.120419114468088
4.028102031993082
3.9604028381780574
3.9173215330230438
3.8927036443630603
3.905012588693053
3.905012588693053
3.948093893848065
3.948093893848065
3.905012588693053
3.905012588693053
3.9173215330230438
3.948093893848065
3.9542483660130467
3.9788662546730578
3.9604028381780574
4.015793087663061
3.9911751990030497
4.009638615498079
4.021947559828071
4.003484143333068
3.9850207268380675
4.003484143333068
4.021947559828071
4.021947559828071
4.040410976323072
4.065028864983084
4.0711833371480655
4.089646753643067
4.052719920653064
4.021947559828071
4.065028864983084
4.138882530963089
4.1758093639530935
4.1942727804480935
4.200427252613103
4.237354085603107
4.225045141273086
4.231199613438097
4.249663029933098
4.237354085603107
4.255817502098108
4.280435390758093
4.3112077515831135
4.329671168078114
4.354289056738125
4.37890694539811
4.397370361893111
4.391215889728128
4.391215889728128
4.40967930622313
4.421988250553122
4.428142722718132
4.452760611378115
4.465069555708134
4.477378500038126
4.477378500038126
4.483532972203136
4.458915083543125
4.452760611378115
4.465069555708134
4.452760611378115
4.452760611378115
4.465069555708134
4.477378500038126
4.483532972203136
4.452760611378115
4.428142722718132
4.415833778388112
4.40967930622313
4.391215889728128
4.37890694539811
4.366598001068117
4.3727524732331275
4.366598001068117
4.3727524732331275
4.37890694539811
4.37890694539811
4.366598001068117
4.3727524732331275
4.3727524732331275
4.366598001068117
4.366598001068117
4.3727524732331275
4.360443528903107
4.360443528903107
4.360443528903107
4.366598001068117
4.366598001068117
4.366598001068117
4.360443528903107
4.354289056738125
4.360443528903107
4.348134584573115
4.348134584573115
4.348134584573115
4.354289056738125
4.360443528903107
4.360443528903107
4.366598001068117
4.354289056738125
4.366598001068117
4.354289056738125
4.354289056738125
4.360443528903107
4.360443528903107
4.366598001068117
4.366598001068117
4.3727524732331275
4.366598001068117
4.360443528903107
4.348134584573115
4.354289056738125
4.348134584573115
4.341980112408105
4.335825640243124
4.329671168078114
4.335825640243124
4.335825640243124
4.341980112408105
4.329671168078114
4.335825640243124
4.323516695913104
4.323516695913104
4.329671168078114
4.329671168078114
4.323516695913104
4.329671168078114
4.329671168078114
4.323516695913104
4.3173622237481215
4.323516695913104
4.3112077515831135
4.3112077515831135
4.3173622237481215
4.3173622237481215
4.292744335088111
4.249663029933098
4.323516695913104
4.329671168078114
4.3173622237481215
4.292744335088111
4.255817502098108
4.2681264464281
4.2865898629231
4.298898807253093
4.2865898629231
4.27428091859311
4.27428091859311
4.280435390758093
4.27428091859311
4.280435390758093
4.27428091859311
4.27428091859311
4.280435390758093
4.280435390758093
4.280435390758093
4.2681264464281
4.261971974263091
4.2681264464281
4.2681264464281
4.261971974263091
4.2681264464281
4.27428091859311
4.27428091859311
4.2681264464281
4.261971974263091
4.261971974263091
4.261971974263091
4.2681264464281
4.292744335088111
4.298898807253093
4.305053279418103
4.292744335088111
4.292744335088111
4.292744335088111
4.292744335088111
4.2865898629231
4.2865898629231
4.27428091859311
4.261971974263091
4.255817502098108
4.255817502098108
4.255817502098108
4.249663029933098
4.255817502098108
4.255817502098108
4.243508557768089
4.243508557768089
4.243508557768089
4.249663029933098
4.249663029933098
4.249663029933098
4.243508557768089
4.237354085603107
4.231199613438097
4.218890669108104
4.231199613438097
4.2681264464281
4.348134584573115
4.421988250553122
4.489687444368147
4.514305333028129
4.452760611378115
4.37890694539811
4.3112077515831135
4.218890669108104
4.138882530963089
4.089646753643067
4.095801225808079
4.120419114468088
4.1758093639530935
4.1758093639530935
4.225045141273086
4.255817502098108
4.243508557768089
4.249663029933098
4.249663029933098
4.243508557768089
4.237354085603107
4.212736196943095
4.212736196943095
4.218890669108104
4.225045141273086
4.218890669108104
4.231199613438097
4.237354085603107
4.255817502098108
4.255817502098108
4.255817502098108
4.249663029933098
4.249663029933098
4.243508557768089
4.249663029933098
4.243508557768089
4.249663029933098
4.2681264464281
4.261971974263091
4.2681264464281
4.27428091859311
4.2681264464281
4.261971974263091
4.261971974263091
4.2681264464281
4.280435390758093
4.2865898629231
4.27428091859311
4.2865898629231
4.298898807253093
4.298898807253093
4.305053279418103
4.298898807253093
4.305053279418103
4.3173622237481215
4.3173622237481215
4.329671168078114
4.329671168078114
4.329671168078114
4.3112077515831135
4.2681264464281
4.3727524732331275
4.3727524732331275
4.3727524732331275
4.360443528903107
4.366598001068117
4.354289056738125
4.341980112408105
4.305053279418103
4.292744335088111
4.292744335088111
4.2865898629231
4.27428091859311
4.2681264464281
4.261971974263091
4.255817502098108
4.225045141273086
4.200427252613103
4.188118308283084
4.200427252613103
4.200427252613103
4.188118308283084
4.1942727804480935
4.181963836118102
4.181963836118102
4.181963836118102
4.1758093639530935
4.169654891788083
4.169654891788083
4.169654891788083
4.181963836118102
4.163500419623101
4.169654891788083
4.1758093639530935
4.181963836118102
4.181963836118102
4.181963836118102
4.188118308283084
4.1758093639530935
4.169654891788083
4.169654891788083
4.181963836118102
4.169654891788083
4.181963836118102
4.181963836118102
4.1942727804480935
4.181963836118102
4.181963836118102
4.181963836118102
4.181963836118102
4.181963836118102
4.188118308283084
4.188118308283084
4.1758093639530935
4.181963836118102
4.188118308283084
4.1942727804480935
4.1942727804480935
4.1942727804480935
4.1942727804480935
4.188118308283084
4.181963836118102
4.181963836118102
4.200427252613103
4.2065817247780855
4.1942727804480935
4.1942727804480935
4.200427252613103
4.1942727804480935
4.1942727804480935
4.188118308283084
4.1942727804480935
4.200427252613103
4.188118308283084
4.188118308283084
4.188118308283084
4.188118308283084
4.181963836118102
4.169654891788083
4.181963836118102
4.200427252613103
4.200427252613103
4.200427252613103
4.1942727804480935
4.1942727804480935
4.1942727804480935
4.181963836118102
4.188118308283084
4.188118308283084
4.181963836118102
4.188118308283084
4.200427252613103
4.1942727804480935
4.181963836118102
4.188118308283084
4.1942727804480935
4.188118308283084
4.1942727804480935
4.1942727804480935
4.188118308283084
4.188118308283084
4.188118308283084
4.1942727804480935
4.188118308283084
4.1942727804480935
4.188118308283084
4.1942727804480935
4.1942727804480935
4.200427252613103
4.1942727804480935
4.200427252613103
4.200427252613103
4.2065817247780855
4.200427252613103
4.200427252613103
4.1942727804480935
4.188118308283084
4.200427252613103
4.231199613438097
4.249663029933098
4.243508557768089
4.212736196943095
4.1758093639530935
4.231199613438097
4.225045141273086
4.188118308283084
4.169654891788083
4.200427252613103
4.2065817247780855
4.1942727804480935
4.1942727804480935
4.200427252613103
4.188118308283084
4.188118308283084
4.188118308283084
4.1942727804480935
4.200427252613103
4.188118308283084
4.188118308283084
4.200427252613103
4.1942727804480935
4.200427252613103
4.1942727804480935
4.181963836118102
4.1758093639530935
4.169654891788083
4.2065817247780855
4.2681264464281
4.354289056738125
4.428142722718132
4.465069555708134
4.440451667048122
4.354289056738125
4.280435390758093
4.2065817247780855
4.095801225808079
4.028102031993082
4.0465654484880815
4.077337809313075
4.1327280587980795
4.169654891788083
4.188118308283084
4.200427252613103
4.1942727804480935
4.1942727804480935
4.1942727804480935
4.200427252613103
4.2065817247780855
4.2065817247780855
4.2065817247780855
4.212736196943095
4.200427252613103
4.2065817247780855
4.200427252613103
4.212736196943095
4.218890669108104
4.225045141273086
4.225045141273086
4.218890669108104
4.212736196943095
4.218890669108104
4.218890669108104
4.225045141273086
4.225045141273086
4.231199613438097
4.231199613438097
4.237354085603107
4.231199613438097
4.231199613438097
4.237354085603107
4.243508557768089
4.249663029933098
4.255817502098108
4.255817502098108
4.261971974263091
4.249663029933098
4.255817502098108
4.255817502098108
4.27428091859311
4.292744335088111
4.292744335088111
4.298898807253093
4.305053279418103
4.292744335088111
4.305053279418103
4.3112077515831135
4.323516695913104
4.323516695913104
4.329671168078114
4.335825640243124
4.335825640243124
4.323516695913104
4.335825640243124
4.329671168078114
4.329671168078114
4.3173622237481215
4.305053279418103
4.305053279418103
4.298898807253093
4.27428091859311
4.261971974263091
4.225045141273086
4.218890669108104
4.225045141273086
4.218890669108104
4.2065817247780855
4.188118308283084
4.181963836118102
4.181963836118102
4.1758093639530935
4.181963836118102
4.1758093639530935
4.169654891788083
4.1758093639530935
4.163500419623101
4.169654891788083
4.1758093639530935
4.169654891788083
4.157345947458091
4.157345947458091
4.157345947458091
4.163500419623101
4.181963836118102
4.163500419623101
4.1327280587980795
4.188118308283084
4.188118308283084
4.181963836118102
4.1758093639530935
4.169654891788083
4.145037003128072
4.151191475293081
4.163500419623101
4.163500419623101
4.169654891788083
4.169654891788083
4.163500419623101
4.163500419623101
4.157345947458091
4.169654891788083
4.1758093639530935
4.1758093639530935
4.181963836118102
4.181963836118102
4.188118308283084
4.157345947458091
4.1327280587980795
4.2065817247780855
4.2065817247780855
4.200427252613103
4.200427252613103
4.1942727804480935
4.1942727804480935
4.1758093639530935
4.157345947458091
4.157345947458091
4.169654891788083
4.1758093639530935
4.181963836118102
4.169654891788083
4.188118308283084
4.188118308283084
4.181963836118102
4.188118308283084
4.188118308283084
4.181963836118102
4.1758093639530935
4.181963836118102
4.169654891788083
4.181963836118102
4.200427252613103
4.2065817247780855
4.200427252613103
4.200427252613103
4.188118308283084
4.200427252613103
4.188118308283084
4.188118308283084
4.200427252613103
4.2065817247780855
4.212736196943095
4.2065817247780855
4.2065817247780855
4.200427252613103
4.188118308283084
4.1942727804480935
4.2065817247780855
4.200427252613103
4.200427252613103
4.1942727804480935
4.200427252613103
4.200427252613103
4.200427252613103
4.2065817247780855
4.212736196943095
4.200427252613103
4.2065817247780855
4.218890669108104
4.2065817247780855
4.2065817247780855
4.200427252613103
4.2065817247780855
4.2065817247780855
4.2065817247780855
4.218890669108104
4.212736196943095
4.200427252613103
4.188118308283084
4.1942727804480935
4.212736196943095
4.249663029933098
4.255817502098108
4.255817502098108
4.243508557768089
4.237354085603107
4.231199613438097
4.237354085603107
4.243508557768089
4.231199613438097
4.231199613438097
4.212736196943095
4.200427252613103
4.2065817247780855
4.212736196943095
4.2065817247780855
4.212736196943095
4.2065817247780855
4.2065817247780855
4.2065817247780855
4.200427252613103
4.2065817247780855
4.200427252613103
4.2065817247780855
4.218890669108104
4.212736196943095
4.2065817247780855
4.188118308283084
4.181963836118102
4.1942727804480935
4.237354085603107
4.329671168078114
4.428142722718132
4.483532972203136
4.477378500038126
4.40967930622313
4.298898807253093
4.181963836118102
4.12657358663307
4.052719920653064
4.034256504158063
4.058874392818074
4.108110170138069
4.163500419623101
4.2065817247780855
4.2065817247780855
4.200427252613103
4.212736196943095
4.231199613438097
4.218890669108104
4.2065817247780855
4.200427252613103
4.1942727804480935
4.1942727804480935
4.200427252613103
4.2065817247780855
4.2065817247780855
4.218890669108104
4.225045141273086
4.225045141273086
4.225045141273086
4.225045141273086
4.225045141273086
4.231199613438097
4.231199613438097
4.237354085603107
4.243508557768089
4.237354085603107
4.237354085603107
4.218890669108104
4.218890669108104
4.218890669108104
4.212736196943095
4.2065817247780855
4.200427252613103
4.181963836118102
4.181963836118102
4.188118308283084
4.200427252613103
4.2065817247780855
4.2065817247780855
4.2065817247780855
4.212736196943095
4.225045141273086
4.225045141273086
4.225045141273086
4.237354085603107
4.255817502098108
4.255817502098108
4.261971974263091
4.280435390758093
4.2865898629231
4.298898807253093
4.305053279418103
4.292744335088111
4.298898807253093
4.305053279418103
4.298898807253093
4.298898807253093
4.2865898629231
4.280435390758093
4.280435390758093
4.261971974263091
4.249663029933098
4.237354085603107
4.212736196943095
4.200427252613103
4.188118308283084
4.169654891788083
4.1758093639530935
4.1758093639530935
4.151191475293081
4.151191475293081
4.163500419623101
4.163500419623101
4.151191475293081
4.145037003128072
4.157345947458091
4.1758093639530935
4.169654891788083
4.163500419623101
4.169654891788083
4.169654891788083
4.169654891788083
4.163500419623101
4.169654891788083
4.169654891788083
4.169654891788083
4.1758093639530935
4.1942727804480935
4.181963836118102
4.1758093639530935
4.163500419623101
4.1758093639530935
4.1758093639530935
4.188118308283084
4.200427252613103
4.1942727804480935
4.1942727804480935
4.188118308283084
4.1942727804480935
4.200427252613103
4.188118308283084
4.181963836118102
4.188118308283084
4.200427252613103
4.2065817247780855
4.1942727804480935
4.188118308283084
4.188118308283084
4.1942727804480935
4.212736196943095
4.2065817247780855
4.2065817247780855
4.2065817247780855
4.200427252613103
4.200427252613103
4.200427252613103
4.1942727804480935
4.151191475293081
4.231199613438097
4.225045141273086
4.218890669108104
4.1758093639530935
4.181963836118102
4.1942727804480935
4.1942727804480935
4.2065817247780855
4.1942727804480935
4.2065817247780855
4.2065817247780855
4.212736196943095
4.212736196943095
4.218890669108104
4.212736196943095
4.2065817247780855
4.2065817247780855
4.212736196943095
4.2065817247780855
4.212736196943095
4.212736196943095
4.2065817247780855
4.212736196943095
4.2065817247780855
4.2065817247780855
4.188118308283084
4.188118308283084
4.2065817247780855
4.212736196943095
4.212736196943095
4.2065817247780855
4.200427252613103
4.1942727804480935
4.1942727804480935
4.200427252613103
4.1942727804480935
4.188118308283084
4.2065817247780855
4.2065817247780855
4.218890669108104
4.2065817247780855
4.2065817247780855
4.1942727804480935
4.188118308283084
4.188118308283084
4.200427252613103
4.218890669108104
4.231199613438097
4.218890669108104
4.212736196943095
4.200427252613103
4.212736196943095
4.2065817247780855
4.212736196943095
4.2065817247780855
4.200427252613103
4.1942727804480935
4.181963836118102
4.181963836118102
4.181963836118102
4.1942727804480935
4.188118308283084
4.188118308283084
4.1942727804480935
4.188118308283084
4.1758093639530935
4.181963836118102
4.188118308283084
4.181963836118102
4.1758093639530935
4.169654891788083
4.163500419623101
4.163500419623101
4.1758093639530935
4.212736196943095
4.280435390758093
4.360443528903107
4.415833778388112
4.440451667048122
4.40352483405812
4.329671168078114
4.255817502098108
4.163500419623101
4.065028864983084
4.015793087663061
4.034256504158063
4.052719920653064
4.0711833371480655
4.108110170138069
4.095801225808079
4.169654891788083
4.188118308283084
4.181963836118102
4.163500419623101
4.169654891788083
4.1758093639530935
4.1758093639530935
4.151191475293081
4.157345947458091
4.169654891788083
4.163500419623101
4.1327280587980795
4.108110170138069
4.120419114468088
4.12657358663307
4.12657358663307
4.120419114468088
4.12657358663307
4.120419114468088
4.12657358663307
4.12657358663307
4.138882530963089
4.145037003128072
4.151191475293081
4.1758093639530935
4.181963836118102
4.181963836118102
4.188118308283084
4.1942727804480935
4.2065817247780855
4.200427252613103
4.169654891788083
4.255817502098108
4.255817502098108
4.255817502098108
4.261971974263091
4.27428091859311
4.261971974263091
4.225045141273086
4.243508557768089
4.261971974263091
4.280435390758093
4.292744335088111
4.292744335088111
4.3112077515831135
4.3173622237481215
4.3112077515831135
4.3173622237481215
4.329671168078114
4.348134584573115
4.360443528903107
4.354289056738125
4.348134584573115
4.341980112408105
4.341980112408105
4.329671168078114
4.3112077515831135
4.3112077515831135
4.298898807253093
4.2865898629231
4.27428091859311
4.243508557768089
4.243508557768089
4.255817502098108
4.261971974263091
4.237354085603107
4.231199613438097
4.237354085603107
4.218890669108104
4.2065817247780855
4.218890669108104
4.212736196943095
4.225045141273086
4.225045141273086
4.231199613438097
4.225045141273086
4.218890669108104
4.218890669108104
4.231199613438097
4.237354085603107
4.231199613438097
4.231199613438097
4.231199613438097
4.243508557768089
4.249663029933098
4.249663029933098
4.249663029933098
4.237354085603107
4.237354085603107
4.243508557768089
4.249663029933098
4.255817502098108
4.249663029933098
4.243508557768089
4.249663029933098
4.261971974263091
4.255817502098108
4.261971974263091
4.255817502098108
4.255817502098108
4.255817502098108
4.261971974263091
4.261971974263091
4.2681264464281
4.27428091859311
4.2681264464281
4.27428091859311
4.27428091859311
4.27428091859311
4.2681264464281
4.261971974263091
4.261971974263091
4.280435390758093
4.27428091859311
4.280435390758093
4.280435390758093
4.261971974263091
4.2681264464281
4.27428091859311
4.27428091859311
4.280435390758093
4.280435390758093
4.280435390758093
4.2681264464281
4.2681264464281
4.27428091859311
4.27428091859311
4.27428091859311
4.2681264464281
4.27428091859311
4.27428091859311
4.2681264464281
4.261971974263091
4.261971974263091
4.27428091859311
4.280435390758093
4.280435390758093
4.280435390758093
4.2681264464281
4.261971974263091
4.2681264464281
4.2681264464281
4.2681264464281
4.27428091859311
4.280435390758093
4.280435390758093
4.2865898629231
4.280435390758093
4.27428091859311
4.2865898629231
4.2865898629231
4.27428091859311
4.2681264464281
4.243508557768089
4.323516695913104
4.298898807253093
4.27428091859311
4.27428091859311
4.292744335088111
4.298898807253093
4.292744335088111
4.298898807253093
4.292744335088111
4.2865898629231
4.27428091859311
4.2681264464281
4.255817502098108
4.249663029933098
4.255817502098108
4.261971974263091
4.261971974263091
4.261971974263091
4.255817502098108
4.255817502098108
4.255817502098108
4.243508557768089
4.249663029933098
4.237354085603107
4.225045141273086
4.225045141273086
4.225045141273086
4.225045141273086
4.255817502098108
4.3112077515831135
4.391215889728128
4.483532972203136
4.508150860863147
4.471224027873144
4.40352483405812
4.3173622237481215
4.225045141273086
4.145037003128072
4.083492281478085
4.083492281478085
4.108110170138069
4.163500419623101
4.218890669108104
4.231199613438097
4.237354085603107
4.237354085603107
4.237354085603107
4.243508557768089
4.237354085603107
4.237354085603107
4.237354085603107
4.237354085603107
4.237354085603107
4.231199613438097
4.237354085603107
4.243508557768089
4.249663029933098
4.255817502098108
4.249663029933098
4.261971974263091
4.261971974263091
4.2681264464281
4.261971974263091
4.261971974263091
4.255817502098108
4.255817502098108
4.255817502098108
4.255817502098108
4.261971974263091
4.261971974263091
4.255817502098108
4.261971974263091
4.255817502098108
4.255817502098108
4.261971974263091
4.261971974263091
4.261971974263091
4.2681264464281
4.261971974263091
4.261971974263091
4.2865898629231
4.305053279418103
4.305053279418103
4.3112077515831135
4.3173622237481215
4.329671168078114
4.335825640243124
4.335825640243124
4.341980112408105
4.354289056738125
4.360443528903107
4.354289056738125
4.360443528903107
4.354289056738125
4.3727524732331275
4.348134584573115
4.329671168078114
4.335825640243124
4.329671168078114
4.3173622237481215
4.305053279418103
4.292744335088111
4.27428091859311
4.261971974263091
4.249663029933098
4.249663029933098
4.243508557768089
4.225045141273086
4.212736196943095
4.200427252613103
4.1942727804480935
4.188118308283084
4.188118308283084
4.200427252613103
4.1942727804480935
4.1942727804480935
4.1942727804480935
4.188118308283084
4.188118308283084
4.1942727804480935
4.1758093639530935
4.145037003128072
4.212736196943095
4.212736196943095
4.200427252613103
4.1942727804480935
4.151191475293081
4.145037003128072
4.157345947458091
4.151191475293081
4.157345947458091
4.163500419623101
4.169654891788083
4.163500419623101
4.157345947458091
4.169654891788083
4.163500419623101
4.157345947458091
4.151191475293081
4.138882530963089
4.1327280587980795
4.1327280587980795
4.145037003128072
4.138882530963089
4.145037003128072
4.138882530963089
4.1327280587980795
4.138882530963089
4.163500419623101
4.181963836118102
4.181963836118102
4.1758093639530935
4.1758093639530935
4.1758093639530935
4.169654891788083
4.181963836118102
4.188118308283084
4.12657358663307
4.163500419623101
4.1942727804480935
4.188118308283084
4.169654891788083
4.151191475293081
4.151191475293081
4.145037003128072
4.101955697973087
4.114264642303079
4.1327280587980795
4.1327280587980795
4.145037003128072
4.151191475293081
4.151191475293081
4.145037003128072
4.151191475293081
4.145037003128072
4.151191475293081
4.169654891788083
4.169654891788083
4.163500419623101
4.163500419623101
4.169654891788083
4.157345947458091
4.157345947458091
4.145037003128072
4.138882530963089
4.138882530963089
4.151191475293081
4.151191475293081
4.145037003128072
4.1327280587980795
4.12657358663307
4.12657358663307
4.12657358663307
4.1327280587980795
4.1327280587980795
4.138882530963089
4.138882530963089
4.151191475293081
4.151191475293081
4.145037003128072
4.157345947458091
4.188118308283084
4.237354085603107
4.249663029933098
4.243508557768089
4.237354085603107
4.231199613438097
4.237354085603107
4.225045141273086
4.225045141273086
4.218890669108104
4.1942727804480935
4.188118308283084
4.169654891788083
4.163500419623101
4.163500419623101
4.163500419623101
4.157345947458091
4.163500419623101
4.138882530963089
4.120419114468088
4.12657358663307
4.114264642303079
4.114264642303079
4.108110170138069
4.095801225808079
4.0711833371480655
4.034256504158063
4.040410976323072
4.065028864983084
4.077337809313075
4.145037003128072
4.218890669108104
4.255817502098108
4.2681264464281
4.237354085603107
4.169654891788083
4.077337809313075
3.9665573103430645
3.8803947000330408
3.837313394878028
3.874240227868059
3.8927036443630603
3.874240227868059
4.015793087663061
4.0465654484880815
4.040410976323072
4.052719920653064
4.058874392818074
4.052719920653064
4.0711833371480655
4.034256504158063
4.034256504158063
4.0465654484880815
4.0711833371480655
4.089646753643067
4.095801225808079
4.108110170138069
4.12657358663307
4.157345947458091
4.2065817247780855
4.218890669108104
4.231199613438097
4.261971974263091
4.261971974263091
4.261971974263091
4.249663029933098
4.255817502098108
4.255817502098108
4.255817502098108
4.2681264464281
4.2865898629231
4.298898807253093
4.3173622237481215
4.3173622237481215
4.335825640243124
4.323516695913104
4.305053279418103
4.323516695913104
4.348134584573115
4.354289056738125
4.354289056738125
4.348134584573115
4.360443528903107
4.360443528903107
4.354289056738125
4.37890694539811
4.40967930622313
4.421988250553122
4.434297194883113
4.434297194883113
4.446606139213133
4.452760611378115
4.458915083543125
4.458915083543125
4.483532972203136
4.489687444368147
4.495841916533129
4.489687444368147
4.465069555708134
4.446606139213133
4.428142722718132
4.40352483405812
4.385061417563119
4.354289056738125
4.3173622237481215
4.292744335088111
4.280435390758093
4.261971974263091
4.243508557768089
4.218890669108104
4.200427252613103
4.188118308283084
4.151191475293081
4.1327280587980795
4.120419114468088
4.114264642303079
4.089646753643067
4.077337809313075
4.058874392818074
4.0465654484880815
4.034256504158063
4.028102031993082
4.015793087663061
4.040410976323072
4.052719920653064
4.083492281478085
4.089646753643067
4.077337809313075
4.0711833371480655
4.077337809313075
4.058874392818074
4.015793087663061
3.9542483660130467
3.8803947000330408
3.8619312835380395
3.874240227868059
3.8803947000330408
3.8680857557030492
3.843467867043037
3.8496223392080475
3.825004450548036
3.8126955062180454
3.837313394878028
3.8927036443630603
3.9357849495180455
3.948093893848065
3.9973296711680604
4.003484143333068
3.9973296711680604
3.9973296711680604
4.003484143333068
3.9296304773530633
3.874240227868059
3.855776811373057
3.8803947000330408
3.905012588693053
3.825004450548036
3.763459728898022
3.8126955062180454
3.8619312835380395
3.8927036443630603
3.9234760051880535
3.9419394216830552
3.9604028381780574
3.9419394216830552
4.034256504158063
4.021947559828071
3.9542483660130467
3.9911751990030497
3.9788662546730578
3.9973296711680604
4.0711833371480655
4.058874392818074
4.034256504158063
4.040410976323072
4.101955697973087
4.101955697973087
4.12657358663307
4.151191475293081
4.163500419623101
4.212736196943095
4.2681264464281
4.298898807253093
4.305053279418103
4.2865898629231
4.261971974263091
4.27428091859311
4.305053279418103
4.298898807253093
4.348134584573115
4.397370361893111
4.40352483405812
4.40352483405812
4.385061417563119
4.37890694539811
4.40967930622313
4.428142722718132
4.446606139213133
4.446606139213133
4.458915083543125
4.458915083543125
4.471224027873144
4.471224027873144
4.471224027873144
4.501996388698137
4.514305333028129
4.508150860863147
4.501996388698137
4.495841916533129
4.501996388698137
4.495841916533129
4.495841916533129
4.489687444368147
4.477378500038126
4.458915083543125
4.458915083543125
4.465069555708134
4.471224027873144
4.477378500038126
4.477378500038126
4.489687444368147
4.477378500038126
4.477378500038126
4.471224027873144
4.477378500038126
4.471224027873144
4.465069555708134
4.446606139213133
4.458915083543125
4.458915083543125
4.446606139213133
4.452760611378115
4.477378500038126
4.54507769385315
4.618931359833156
4.67432160931816
4.705093970143154
4.662012664988168
4.5820045268431535
4.52661427735815
4.452760611378115
4.354289056738125
4.292744335088111
4.292744335088111
4.298898807253093
4.329671168078114
4.37890694539811
4.428142722718132
4.440451667048122
4.434297194883113
4.434297194883113
4.434297194883113
4.421988250553122
4.415833778388112
4.40967930622313
4.415833778388112
4.428142722718132
4.415833778388112
4.40967930622313
4.40967930622313
4.40352483405812
4.40352483405812
4.397370361893111
4.391215889728128
4.385061417563119
4.37890694539811
4.3727524732331275
4.360443528903107
4.3173622237481215
4.298898807253093
4.3727524732331275
4.37890694539811
4.37890694539811
4.37890694539811
4.385061417563119
4.391215889728128
4.3727524732331275
4.348134584573115
4.360443528903107
4.354289056738125
4.305053279418103
4.218890669108104
4.101955697973087
3.9973296711680604
3.9296304773530633
3.8803947000330408
3.8126955062180454
3.8680857557030492
3.8803947000330408
3.886549172198051
3.9173215330230438
3.9419394216830552
3.9234760051880535
3.9604028381780574
4.040410976323072
4.120419114468088
4.1942727804480935
4.261971974263091
4.3112077515831135
4.3173622237481215
4.305053279418103
4.292744335088111
4.3173622237481215
4.323516695913104
4.323516695913104
4.298898807253093
4.2681264464281
4.255817502098108
4.218890669108104
4.163500419623101
4.114264642303079
4.052719920653064
4.021947559828071
4.009638615498079
3.9604028381780574
3.9173215330230438
3.9234760051880535
3.874240227868059
3.8496223392080475
3.8803947000330408
3.8680857557030492
3.8803947000330408
3.8680857557030492
3.886549172198051
3.9111670608580615
3.9542483660130467
3.9788662546730578
3.9973296711680604
4.015793087663061
4.0465654484880815
4.138882530963089
4.261971974263091
4.348134584573115
4.391215889728128
4.397370361893111
4.40352483405812
4.391215889728128
4.354289056738125
4.3112077515831135
4.292744335088111
4.2681264464281
4.249663029933098
4.200427252613103
4.157345947458091
4.1327280587980795
4.083492281478085
4.028102031993082
3.9850207268380675
3.9357849495180455
3.8988581165280416
3.8988581165280416
3.874240227868059
3.874240227868059
3.8803947000330408
3.855776811373057
3.8496223392080475
3.874240227868059
3.9296304773530633
3.9727117825080467
4.028102031993082
4.077337809313075
4.114264642303079
4.188118308283084
4.218890669108104
4.255817502098108
4.2865898629231
4.292744335088111
4.3112077515831135
4.329671168078114
4.323516695913104
4.329671168078114
4.354289056738125
4.37890694539811
4.397370361893111
4.391215889728128
4.397370361893111
4.40352483405812
4.40352483405812
4.421988250553122
4.421988250553122
4.421988250553122
4.421988250553122
4.415833778388112
4.415833778388112
4.421988250553122
4.40967930622313
4.415833778388112
4.421988250553122
4.421988250553122
4.421988250553122
4.40352483405812
4.397370361893111
4.40967930622313
4.415833778388112
4.428142722718132
4.452760611378115
4.446606139213133
4.434297194883113
4.421988250553122
4.415833778388112
4.415833778388112
4.385061417563119
4.37890694539811
4.354289056738125
4.329671168078114
4.298898807253093
4.249663029933098
4.181963836118102
4.114264642303079
4.1327280587980795
4.065028864983084
3.9911751990030497
3.874240227868059
3.763459728898022
3.677297118588024
3.61575239693801
3.5665166196180156
3.5234353144630024
3.4926629536379816
3.468045064977998
3.449581648482997
3.449581648482997
3.486508481473
3.5542076752879965
3.6219068691030203
3.677297118588024
3.701915007248036
3.677297118588024
3.61575239693801
3.5542076752879965
3.48035400930799
3.394191398997992
3.3511100938429803
3.381882454667973
3.406500343327984
3.4557361206479786
3.5234353144630024
3.5665166196180156
3.5849800361130173
3.6034434526080172
3.652679229928013
3.7449963124030208
3.8803947000330408
4.040410976323072
4.188118308283084
4.329671168078114
4.434297194883113
4.501996388698137
4.508150860863147
4.52661427735815
4.54507769385315
4.551232166018132
4.551232166018132
4.538923221688139
4.52661427735815
4.538923221688139
4.557386638183142
4.569695582513134
4.588158999008135
4.6004679433381535
4.606622415503137
4.637394776328158
4.668167137153151
4.686630553648152
4.686630553648152
4.692785025813162
4.686630553648152
4.692785025813162
4.692785025813162
4.698939497978172
4.705093970143154
4.698939497978172
4.692785025813162
4.698939497978172
4.692785025813162
4.698939497978172
4.692785025813162
4.692785025813162
4.686630553648152
4.67432160931816
4.67432160931816
4.67432160931816
4.67432160931816
4.668167137153151
4.662012664988168
4.668167137153151
4.655858192823159
4.6435492484931675
4.655858192823159
4.655858192823159
4.6435492484931675
4.631240304163148
4.612776887668146
4.5820045268431535
4.569695582513134
4.538923221688139
4.520459805193139
4.514305333028129
4.508150860863147
4.483532972203136
4.458915083543125
4.446606139213133
4.452760611378115
4.421988250553122
4.391215889728128
4.397370361893111
4.397370361893111
4.385061417563119
4.366598001068117
4.341980112408105
4.335825640243124
4.305053279418103
4.27428091859311
4.243508557768089
4.200427252613103
4.145037003128072
4.120419114468088
4.108110170138069
4.052719920653064
4.0465654484880815
4.040410976323072
4.003484143333068
3.9604028381780574
3.9357849495180455
3.905012588693053
3.8188499783830263
3.7142239515780275
3.640370285598021
3.591134508277999
3.5357442587929944
3.486508481473
3.541898730958004
3.548053203123014
3.548053203123014
3.511126370132983
3.529589786627985
3.5542076752879965
3.591134508277999
3.6280613412680016
3.6649881742580046
3.7080694794130173
3.75115078456803
3.8065410340530352
3.855776811373057
3.9173215330230438
3.9665573103430645
3.9604028381780574
3.9665573103430645
3.9604028381780574
3.9604028381780574
4.003484143333068
4.052719920653064
4.12657358663307
4.169654891788083
4.2065817247780855
4.225045141273086
4.243508557768089
4.261971974263091
4.298898807253093
4.348134584573115
4.397370361893111
4.428142722718132
4.452760611378115
4.465069555708134
4.489687444368147
4.514305333028129
4.538923221688139
4.5327687495231315
4.52661427735815
4.54507769385315
4.563541110348153
4.563541110348153
4.563541110348153
4.551232166018132
4.557386638183142
4.551232166018132
4.557386638183142
4.551232166018132
4.54507769385315
4.551232166018132
4.5327687495231315
4.495841916533129
4.563541110348153
4.575850054678144
4.551232166018132
4.551232166018132
4.54507769385315
4.52661427735815
4.508150860863147
4.489687444368147
4.508150860863147
4.54507769385315
4.54507769385315
4.538923221688139
4.520459805193139
4.52661427735815
4.520459805193139
4.514305333028129
4.508150860863147
4.495841916533129
4.495841916533129
4.477378500038126
4.471224027873144
4.458915083543125
4.458915083543125
4.465069555708134
4.458915083543125
4.458915083543125
4.452760611378115
4.434297194883113
4.421988250553122
4.446606139213133
4.446606139213133
4.452760611378115
4.452760611378115
4.434297194883113
4.421988250553122
4.40967930622313
4.40967930622313
4.458915083543125
4.52661427735815
4.618931359833156
4.662012664988168
4.662012664988168
4.6004679433381535
4.52661427735815
4.446606139213133
4.366598001068117
4.27428091859311
4.243508557768089
4.249663029933098
4.292744335088111
4.348134584573115
4.3727524732331275
4.37890694539811
4.3727524732331275
4.385061417563119
4.391215889728128
4.37890694539811
4.385061417563119
4.37890694539811
4.391215889728128
4.391215889728128
4.385061417563119
4.385061417563119
4.385061417563119
4.37890694539811
4.385061417563119
4.391215889728128
4.391215889728128
4.37890694539811
4.360443528903107
4.335825640243124
4.40352483405812
4.397370361893111
4.397370361893111
4.391215889728128
4.391215889728128
4.37890694539811
4.348134584573115
4.366598001068117
4.366598001068117
4.366598001068117
4.37890694539811
4.385061417563119
4.397370361893111
4.397370361893111
4.397370361893111
4.397370361893111
4.391215889728128
4.391215889728128
4.391215889728128
4.397370361893111
4.40967930622313
4.40967930622313
4.40967930622313
4.421988250553122
4.421988250553122
4.421988250553122
4.421988250553122
4.440451667048122
4.434297194883113
4.446606139213133
4.446606139213133
4.440451667048122
4.440451667048122
4.434297194883113
4.415833778388112
4.40352483405812
4.40352483405812
4.385061417563119
4.366598001068117
4.354289056738125
4.335825640243124
4.323516695913104
4.292744335088111
4.2681264464281
4.261971974263091
4.261971974263091
4.2681264464281
4.261971974263091
4.255817502098108
4.249663029933098
4.237354085603107
4.243508557768089
4.243508557768089
4.237354085603107
4.231199613438097
4.225045141273086
4.231199613438097
4.218890669108104
4.212736196943095
4.225045141273086
4.231199613438097
4.225045141273086
4.225045141273086
4.231199613438097
4.225045141273086
4.212736196943095
4.218890669108104
4.231199613438097
4.212736196943095
4.218890669108104
4.218890669108104
4.225045141273086
4.237354085603107
4.231199613438097
4.237354085603107
4.231199613438097
4.225045141273086
4.225045141273086
4.225045141273086
4.225045141273086
4.218890669108104
4.212736196943095
4.218890669108104
4.225045141273086
4.218890669108104
4.218890669108104
4.218890669108104
4.2065817247780855
4.212736196943095
4.212736196943095
4.218890669108104
4.225045141273086
4.212736196943095
4.218890669108104
4.212736196943095
4.212736196943095
4.225045141273086
4.243508557768089
4.237354085603107
4.218890669108104
4.225045141273086
4.231199613438097
4.231199613438097
4.218890669108104
4.212736196943095
4.218890669108104
4.231199613438097
4.225045141273086
4.225045141273086
4.225045141273086
4.212736196943095
4.2065817247780855
4.212736196943095
4.212736196943095
4.2065817247780855
4.200427252613103
4.225045141273086
4.237354085603107
4.237354085603107
4.237354085603107
4.218890669108104
4.188118308283084
4.237354085603107
4.218890669108104
4.212736196943095
4.231199613438097
4.225045141273086
4.225045141273086
4.237354085603107
4.243508557768089
4.249663029933098
4.249663029933098
4.237354085603107
4.231199613438097
4.243508557768089
4.261971974263091
4.2681264464281
4.2681264464281
4.255817502098108
4.249663029933098
4.261971974263091
4.249663029933098
4.249663029933098
4.261971974263091
4.249663029933098
4.237354085603107
4.237354085603107
4.231199613438097
4.225045141273086
4.218890669108104
4.225045141273086
4.231199613438097
4.243508557768089
4.237354085603107
4.231199613438097
4.231199613438097
4.225045141273086
4.218890669108104
4.231199613438097
4.243508557768089
4.231199613438097
4.225045141273086
4.218890669108104
4.237354085603107
4.298898807253093
4.37890694539811
4.452760611378115
4.495841916533129
4.465069555708134
4.385061417563119
4.305053279418103
4.249663029933098
4.157345947458091
4.089646753643067
4.083492281478085
4.101955697973087
4.1327280587980795
4.1758093639530935
4.218890669108104
4.231199613438097
4.225045141273086
4.231199613438097
4.231199613438097
4.249663029933098
4.249663029933098
4.255817502098108
4.249663029933098
4.243508557768089
4.243508557768089
4.243508557768089
4.243508557768089
4.243508557768089
4.243508557768089
4.231199613438097
4.249663029933098
4.249663029933098
4.249663029933098
4.255817502098108
4.249663029933098
4.255817502098108
4.249663029933098
4.249663029933098
4.261971974263091
4.27428091859311
4.2681264464281
4.2681264464281
4.2865898629231
4.292744335088111
4.298898807253093
4.2865898629231
4.292744335088111
4.298898807253093
4.292744335088111
4.305053279418103
4.3112077515831135
4.305053279418103
4.305053279418103
4.305053279418103
4.298898807253093
4.298898807253093
4.3112077515831135
4.329671168078114
4.329671168078114
4.323516695913104
4.329671168078114
4.348134584573115
4.354289056738125
4.354289056738125
4.354289056738125
4.354289056738125
4.354289056738125
4.341980112408105
4.341980112408105
4.341980112408105
4.329671168078114
4.305053279418103
4.2865898629231
4.27428091859311
4.255817502098108
4.249663029933098
4.1942727804480935
4.243508557768089
4.237354085603107
4.163500419623101
4.218890669108104
4.231199613438097
4.218890669108104
4.218890669108104
4.169654891788083
4.1758093639530935
4.1942727804480935
4.1942727804480935
4.200427252613103
4.1942727804480935
4.200427252613103
4.212736196943095
4.200427252613103
4.200427252613103
4.200427252613103
4.212736196943095
4.218890669108104
4.225045141273086
4.218890669108104
4.212736196943095
4.218890669108104
4.218890669108104
4.218890669108104
4.218890669108104
4.225045141273086
4.231199613438097
4.237354085603107
4.225045141273086
4.231199613438097
4.237354085603107
4.225045141273086
4.231199613438097
4.237354085603107
4.231199613438097
4.243508557768089
4.237354085603107
4.237354085603107
4.237354085603107
4.243508557768089
4.249663029933098
4.249663029933098
4.243508557768089
4.243508557768089
4.237354085603107
4.237354085603107
4.231199613438097
4.249663029933098
4.243508557768089
4.249663029933098
4.249663029933098
4.231199613438097
4.218890669108104
4.249663029933098
4.249663029933098
4.255817502098108
4.249663029933098
4.243508557768089
4.249663029933098
4.249663029933098
4.249663029933098
4.249663029933098
4.243508557768089
4.249663029933098
4.249663029933098
4.243508557768089
4.243508557768089
4.243508557768089
4.243508557768089
4.243508557768089
4.243508557768089
4.243508557768089
4.225045141273086
4.231199613438097
4.231199613438097
4.237354085603107
4.231199613438097
4.231199613438097
4.231199613438097
4.243508557768089
4.237354085603107
4.231199613438097
4.225045141273086
4.212736196943095
4.212736196943095
4.200427252613103
4.169654891788083
4.138882530963089
4.120419114468088
4.114264642303079
4.095801225808079
4.065028864983084
4.028102031993082
3.9296304773530633
3.843467867043037
3.763459728898022
3.7142239515780275
3.6896060629180156
3.609597924773
3.5665166196180156
3.578825563948007
3.572671091782997
3.572671091782997
3.5665166196180156
3.591134508277999
3.5849800361130173
3.572671091782997
3.5357442587929944
3.504971897968001
3.486508481473
3.468045064977998
3.4618905928129893
3.4434271763179867
3.4311182319879947
3.406500343327984
3.400345871162973
3.394191398997992
3.381882454667973
3.381882454667973
3.3880369268329824
3.3880369268329824
3.363419038172971
3.289565372192965
3.3695735103379807
3.406500343327984
3.4741995371429804
3.560362147453006
3.634215813433012
3.671142646423015
3.6649881742580046
3.5849800361130173
3.5172808422979926
3.468045064977998
3.400345871162973
3.332646677347978
3.3141832608529764
3.3449556216779697
3.3880369268329824
3.4618905928129893
3.4926629536379816
3.4926629536379816
3.511126370132983
3.529589786627985
3.541898730958004
3.5542076752879965
3.5542076752879965
3.5542076752879965
3.5665166196180156
3.5665166196180156
3.560362147453006
3.5849800361130173
3.61575239693801
3.6219068691030203
3.6280613412680016
3.640370285598021
3.6465247577630033
3.652679229928013
3.658833702093023
3.671142646423015
3.671142646423015
3.6896060629180156
3.695760535083026
3.7080694794130173
3.7142239515780275
3.7142239515780275
3.720378423743037
3.738841840238039
3.738841840238039
3.7449963124030208
3.75730525673304
3.763459728898022
3.7696142010630322
3.781923145393024
3.7942320897230433
3.8065410340530352
3.8065410340530352
3.800386561888025
3.8188499783830263
3.855776811373057
3.8803947000330408
3.8988581165280416
3.8988581165280416
3.9111670608580615
3.9173215330230438
3.9234760051880535
3.9234760051880535
3.9357849495180455
3.948093893848065
3.9542483660130467
3.9665573103430645
3.9604028381780574
3.9727117825080467
3.9727117825080467
3.9665573103430645
3.9727117825080467
3.9665573103430645
3.9604028381780574
3.9419394216830552
3.9296304773530633
3.9173215330230438
3.8988581165280416
3.8988581165280416
3.8988581165280416
3.8927036443630603
3.886549172198051
3.8803947000330408
3.886549172198051
3.886549172198051
3.886549172198051
3.886549172198051
3.8927036443630603
3.8988581165280416
3.8927036443630603
3.8927036443630603
3.8988581165280416
3.8988581165280416
3.8988581165280416
3.8988581165280416
3.905012588693053
3.905012588693053
3.9111670608580615
3.9296304773530633
3.9296304773530633
3.9357849495180455
3.9357849495180455
3.9296304773530633
3.9357849495180455
3.948093893848065
3.9604028381780574
3.9542483660130467
3.9604028381780574
3.9604028381780574
3.9727117825080467
3.9788662546730578
3.9788662546730578
3.9850207268380675
3.9788662546730578
3.9788662546730578
3.9788662546730578
3.9727117825080467
3.9788662546730578
3.9850207268380675
3.9911751990030497
3.9911751990030497
3.9542483660130467
4.021947559828071
4.028102031993082
3.9850207268380675
3.9911751990030497
4.015793087663061
4.028102031993082
4.034256504158063
4.028102031993082
4.040410976323072
4.021947559828071
4.009638615498079
4.021947559828071
4.040410976323072
4.034256504158063
4.034256504158063
4.0465654484880815
4.040410976323072
4.034256504158063
4.021947559828071
4.034256504158063
4.040410976323072
4.052719920653064
4.052719920653064
4.052719920653064
4.052719920653064
4.065028864983084
4.065028864983084
4.058874392818074
4.065028864983084
4.065028864983084
4.065028864983084
4.065028864983084
4.0711833371480655
4.065028864983084
4.058874392818074
4.065028864983084
4.083492281478085
4.095801225808079
4.095801225808079
4.095801225808079
4.095801225808079
4.083492281478085
4.089646753643067
4.095801225808079
4.101955697973087
4.095801225808079
4.101955697973087
4.101955697973087
4.101955697973087
4.101955697973087
4.114264642303079
4.108110170138069
4.120419114468088
4.108110170138069
4.108110170138069
4.114264642303079
4.114264642303079
4.120419114468088
4.12657358663307
4.114264642303079
4.108110170138069
4.108110170138069
4.12657358663307
4.163500419623101
4.12657358663307
4.1327280587980795
4.1942727804480935
4.188118308283084
4.181963836118102
4.1758093639530935
4.169654891788083
4.151191475293081
4.12657358663307
4.120419114468088
4.1327280587980795
4.1327280587980795
4.120419114468088
4.114264642303079
4.12657358663307
4.1327280587980795
4.1327280587980795
4.1327280587980795
4.138882530963089
4.1327280587980795
4.1327280587980795
4.1327280587980795
4.138882530963089
4.12657358663307
4.114264642303079
4.114264642303079
4.108110170138069
4.138882530963089
4.2065817247780855
4.2865898629231
4.366598001068117
4.397370361893111
4.366598001068117
4.292744335088111
4.218890669108104
4.145037003128072
4.0711833371480655
4.015793087663061
4.015793087663061
4.040410976323072
4.089646753643067
4.151191475293081
4.169654891788083
4.169654891788083
4.169654891788083
4.1758093639530935
4.1758093639530935
4.169654891788083
4.181963836118102
4.181963836118102
4.181963836118102
4.181963836118102
4.1758093639530935
4.181963836118102
4.181963836118102
4.2065817247780855
4.2065817247780855
4.169654891788083
4.243508557768089
4.2681264464281
4.255817502098108
4.261971974263091
4.243508557768089
4.212736196943095
4.212736196943095
4.231199613438097
4.243508557768089
4.243508557768089
4.249663029933098
4.255817502098108
4.2681264464281
4.280435390758093
4.27428091859311
4.27428091859311
4.261971974263091
4.27428091859311
4.27428091859311
4.292744335088111
4.298898807253093
4.305053279418103
4.3112077515831135
4.323516695913104
4.329671168078114
4.341980112408105
4.341980112408105
4.354289056738125
4.360443528903107
4.385061417563119
4.391215889728128
4.37890694539811
4.366598001068117
4.354289056738125
4.348134584573115
4.341980112408105
4.329671168078114
4.335825640243124
4.348134584573115
4.335825640243124
4.3173622237481215
4.298898807253093
4.292744335088111
4.2681264464281
4.261971974263091
4.231199613438097
4.218890669108104
4.218890669108104
4.200427252613103
4.1942727804480935
4.181963836118102
4.1758093639530935
4.163500419623101
4.163500419623101
4.169654891788083
4.157345947458091
4.163500419623101
4.163500419623101
4.169654891788083
4.157345947458091
4.157345947458091
4.1758093639530935
4.181963836118102
4.200427252613103
4.181963836118102
4.1758093639530935
4.169654891788083
4.163500419623101
4.1758093639530935
4.188118308283084
4.1942727804480935
4.1942727804480935
4.2065817247780855
4.218890669108104
4.218890669108104
4.212736196943095
4.212736196943095
4.218890669108104
4.225045141273086
4.225045141273086
4.231199613438097
4.218890669108104
4.225045141273086
4.200427252613103
4.200427252613103
4.1942727804480935
4.1942727804480935
4.2065817247780855
4.225045141273086
4.243508557768089
4.2681264464281
4.249663029933098
4.231199613438097
4.243508557768089
4.237354085603107
4.243508557768089
4.231199613438097
4.231199613438097
4.231199613438097
4.243508557768089
4.243508557768089
4.2681264464281
4.323516695913104
4.3112077515831135
4.292744335088111
4.3112077515831135
4.3112077515831135
4.292744335088111
4.3112077515831135
4.329671168078114
4.3112077515831135
4.298898807253093
4.335825640243124
4.385061417563119
4.37890694539811
4.37890694539811
4.37890694539811
4.397370361893111
4.40352483405812
4.40967930622313
4.40967930622313
4.3727524732331275
4.415833778388112
4.452760611378115
4.477378500038126
4.52661427735815
4.569695582513134
4.563541110348153
4.606622415503137
4.588158999008135
4.618931359833156
4.67432160931816
4.698939497978172
4.68047608148317
4.662012664988168
4.717402914473172
4.81587446911319
4.858955774268176
4.877419190763177
4.840492357773174
4.834337885608192
4.840492357773174
4.8528013021031935
4.834337885608192
4.809719996948181
4.828183413443182
4.877419190763177
4.883573662928187
4.902037079423188
4.951272856743211
4.945118384578201
4.982045217568204
5.006663106228215
4.994354161898196
5.006663106228215
5.012817578393197
5.012817578393197
5.025126522723218
5.0312809948882
5.043589939218219
5.025126522723218
4.9881996897332135
4.982045217568204
5.006663106228215
4.994354161898196
5.000508634063205
4.994354161898196
4.982045217568204
4.975890745403193
4.963581801073202
4.945118384578201
4.932809440248209
4.932809440248209
4.91434602375318
4.895882607258178
4.871264718598195
4.8651102464331855
4.858955774268176
4.877419190763177
4.877419190763177
4.871264718598195
4.846646829938186
4.840492357773174
4.834337885608192
4.834337885608192
4.834337885608192
4.81587446911319
4.803565524783171
4.803565524783171
4.7912565804531795
4.778947636123188
4.760484219628157
4.772793163958178
4.822028941278172
4.908191551588198
4.9881996897332135
5.025126522723218
5.012817578393197
4.945118384578201
4.858955774268176
4.772793163958178
4.67432160931816
4.5943134711731455
4.5820045268431535
4.5943134711731455
4.618931359833156
4.67432160931816
4.717402914473172
4.698939497978172
4.686630553648152
4.692785025813162
4.692785025813162
4.686630553648152
4.686630553648152
4.68047608148317
4.67432160931816
4.668167137153151
4.662012664988168
4.668167137153151
4.668167137153151
4.655858192823159
4.662012664988168
4.67432160931816
4.655858192823159
4.649703720658149
4.655858192823159
4.649703720658149
4.6435492484931675
4.649703720658149
4.631240304163148
4.631240304163148
4.6435492484931675
4.6435492484931675
4.631240304163148
4.631240304163148
4.612776887668146
4.612776887668146
4.612776887668146
4.606622415503137
4.5943134711731455
4.606622415503137
4.612776887668146
4.5943134711731455
4.557386638183142
4.625085831998166
4.618931359833156
4.606622415503137
4.569695582513134
4.588158999008135
4.5943134711731455
4.6004679433381535
4.612776887668146
4.606622415503137
4.612776887668146
4.588158999008135
4.538923221688139
4.631240304163148
4.631240304163148
4.606622415503137
4.5943134711731455
4.588158999008135
4.575850054678144
4.538923221688139
4.483532972203136
4.458915083543125
4.440451667048122
4.428142722718132
4.421988250553122
4.391215889728128
4.348134584573115
4.3112077515831135
4.261971974263091
4.237354085603107
4.181963836118102
4.114264642303079
4.028102031993082
3.9727117825080467
3.9357849495180455
3.8988581165280416
3.837313394878028
3.7757686732280415
3.75115078456803
3.732687368073029
3.695760535083026
3.671142646423015
3.652679229928013
3.61575239693801
3.5665166196180156
3.5542076752879965
3.529589786627985
3.5172808422979926
3.486508481473
3.4988174258029914
3.504971897968001
3.504971897968001
3.504971897968001
3.5172808422979926
3.511126370132983
3.5357442587929944
3.541898730958004
3.548053203123014
3.548053203123014
3.5542076752879965
3.572671091782997
3.578825563948007
3.572671091782997
3.5849800361130173
3.5972889804430093
3.61575239693801
3.61575239693801
3.609597924773
3.6034434526080172
3.5972889804430093
3.609597924773
3.609597924773
3.6219068691030203
3.6219068691030203
3.6280613412680016
3.634215813433012
3.652679229928013
3.658833702093023
3.658833702093023
3.658833702093023
3.6649881742580046
3.6649881742580046
3.671142646423015
3.6896060629180156
3.701915007248036
3.7080694794130173
3.720378423743037
3.75730525673304
3.763459728898022
3.7449963124030208
3.763459728898022
3.788077617558033
3.8126955062180454
3.843467867043037
3.8680857557030492
3.8927036443630603
3.8988581165280416
3.8988581165280416
3.8927036443630603
3.886549172198051
3.886549172198051
3.8803947000330408
3.886549172198051
3.8803947000330408
3.8619312835380395
3.837313394878028
3.831158922713046
3.825004450548036
3.843467867043037
3.874240227868059
3.874240227868059
3.8803947000330408
3.886549172198051
3.874240227868059
3.8803947000330408
3.886549172198051
3.8988581165280416
3.9111670608580615
3.9234760051880535
3.948093893848065
3.9542483660130467
3.948093893848065
3.9296304773530633
4.015793087663061
4.052719920653064
4.065028864983084
4.052719920653064
4.052719920653064
4.058874392818074
4.015793087663061
4.003484143333068
4.003484143333068
4.003484143333068
4.003484143333068
4.009638615498079
4.034256504158063
4.052719920653064
4.058874392818074
4.083492281478085
4.083492281478085
4.0711833371480655
4.058874392818074
4.052719920653064
4.0465654484880815
4.040410976323072
4.034256504158063
4.040410976323072
4.052719920653064
4.0465654484880815
4.040410976323072
4.040410976323072
4.034256504158063
4.028102031993082
4.040410976323072
4.0465654484880815
4.040410976323072
4.0465654484880815
4.052719920653064
4.040410976323072
4.040410976323072
4.021947559828071
4.034256504158063
4.052719920653064
4.108110170138069
4.1758093639530935
4.243508557768089
4.305053279418103
4.323516695913104
4.255817502098108
4.188118308283084
4.145037003128072
4.052719920653064
3.9665573103430645
3.9419394216830552
3.9727117825080467
4.009638615498079
4.052719920653064
4.101955697973087
4.145037003128072
4.151191475293081
4.163500419623101
4.1758093639530935
4.181963836118102
4.200427252613103
4.218890669108104
4.243508557768089
4.280435390758093
4.280435390758093
4.2865898629231
4.292744335088111
4.3112077515831135
4.280435390758093
4.261971974263091
4.243508557768089
4.2065817247780855
4.1942727804480935
4.1942727804480935
4.200427252613103
4.1942727804480935
4.181963836118102
4.200427252613103
4.212736196943095
4.212736196943095
4.200427252613103
4.1758093639530935
4.1758093639530935
4.169654891788083
4.188118308283084
4.2065817247780855
4.218890669108104
4.231199613438097
4.255817502098108
4.261971974263091
4.2681264464281
4.261971974263091
4.261971974263091
4.280435390758093
4.3173622237481215
4.354289056738125
4.341980112408105
4.360443528903107
4.3727524732331275
4.397370361893111
4.415833778388112
4.421988250553122
4.40967930622313
4.391215889728128
4.360443528903107
4.3112077515831135
4.2681264464281
4.231199613438097
4.1942727804480935
4.1942727804480935
4.2065817247780855
4.1942727804480935
4.200427252613103
4.280435390758093
4.428142722718132
4.5943134711731455
4.705093970143154
4.67432160931816
4.557386638183142
4.415833778388112
4.261971974263091
4.101955697973087
