-0.10770326288750408
-0.17540245670252808
-0.2246382340225228
-0.21232928969253104
-0.18771140103251985
-0.30464637216753854
-0.7846952010376053
0.13232115154751534
0.09539431855751236
-0.16309351237253633
-0.1938658731975296
-0.1938658731975296
-0.21232928969253104
-0.2061748175275213
-0.15078456804251686
-0.15693904020752658
-0.15693904020752658
-0.1938658731975296
-0.17540245670252808
-0.1938658731975296
-0.17540245670252808
0.26771953917753555
0.1692479845375183
-0.06462195773251911
-0.1261666793825056
-0.17540245670252808
-0.1692479845375183
-0.15078456804251686
-0.13232115154751534
-0.15078456804251686
-0.1692479845375183
-0.2061748175275213
-0.15078456804251686
-0.2431016505175243
-0.2554105948475438
-0.33541873299255964
-0.7046870628925892
-0.5262073701075842
-0.32310978866254003
-0.2984919000025288
-0.18771140103251985
-0.3108008443325483
-0.30464637216753854
-0.29233742783754685
-0.28618295567253704
-0.26156506701252585
-0.23079270618753256
-0.2431016505175243
-0.1938658731975296
-0.32310978866254003
-0.26156506701252585
-0.17540245670252808
-0.23079270618753256
-0.24925612268253405
-0.2554105948475438
-0.2431016505175243
-0.16309351237253633
-0.30464637216753854
-0.2554105948475438
-0.2738740113425453
-0.30464637216753854
-0.2554105948475438
-0.2431016505175243
-0.30464637216753854
0.0707764298975011
0.44619923196256844
-0.433890287632549
-0.2246382340225228
-0.2000203453625393
-0.18771140103251985
-0.18771140103251985
-0.17540245670252808
-0.427735815467567
-0.8462399226876194
-0.5200528979425745
-0.4400447597975588
-0.44619923196256844
-0.4154268711375475
-0.433890287632549
-0.4523537041275505
-0.2061748175275213
0.04615854123751762
-0.2431016505175243
-0.37850003814754446
-0.40927239897256545
-0.3846545103125543
-0.390808982477564
-0.3846545103125543
-0.360036621652543
-0.4708171206225797
-0.40311792680755576
-0.40311792680755576
-0.40311792680755576
-0.40311792680755576
-0.40311792680755576
-0.6431423412426027
-0.9385570051626267
-0.6677602299025862
-0.5262073701075842
-0.5077439536125827
-0.4831260649525715
-0.4831260649525715
-0.49543500928256323
-0.5077439536125827
-0.47697159278756174
-0.5631342030975872
-0.5200528979425745
-0.4892805371175811
-0.4831260649525715
-0.4831260649525715
-0.28618295567253704
-0.1692479845375183
0.4892805371175811
-1.0247196154726523
-0.04000406907250786
-0.10770326288750408
-0.34772767732255133
-0.37850003814754446
-0.35388214948756086
-0.4154268711375475
-0.8647033391826209
-0.8647033391826209
-0.5631342030975872
-0.4892805371175811
-0.4708171206225797
-0.5815976195925888
-0.6862236463975879
-0.4892805371175811
-0.4708171206225797
-0.49543500928256323
-0.44619923196256844
-0.42158134330255725
-0.42158134330255725
-0.433890287632549
-0.40927239897256545
-0.40311792680755576
-0.42158134330255725
-0.4892805371175811
-0.4708171206225797
-0.4400447597975588
-0.36619109381755277
-0.4523537041275505
-0.45850817629256013
-0.45850817629256013
-0.45850817629256013
-0.4892805371175811
-0.45850817629256013
-0.4400447597975588
-0.396963454642546
-0.40311792680755576
-0.40311792680755576
-0.36619109381755277
-0.360036621652543
-0.396963454642546
-0.3846545103125543
-0.42158134330255725
-0.40311792680755576
-0.390808982477564
-0.3846545103125543
-0.34772767732255133
-0.3846545103125543
-0.396963454642546
-0.42158134330255725
-0.40927239897256545
-0.4523537041275505
-0.433890287632549
-0.390808982477564
-0.3846545103125543
-0.45850817629256013
-0.36619109381755277
-0.3292642608275498
-0.396963454642546
-0.360036621652543
-0.32310978866254003
-0.36619109381755277
-0.8708578113476306
-0.33541873299255964
0.12001220721752358
-0.1692479845375183
-0.2246382340225228
-0.2184837618575408
-0.21232928969253104
-0.2246382340225228
-0.18155692886753785
-0.21232928969253104
-0.24925612268253405
-0.09539431855751236
-0.05846748556750937
-0.5446707866025856
-0.2184837618575408
-0.17540245670252808
-0.26156506701252585
-0.4523537041275505
-0.2061748175275213
-0.15078456804251686
-0.11385773505251384
-0.06462195773251911
-0.05846748556750937
-0.04615854123751762
-0.02769512474251612
-0.01538618041249662
-0.02769512474251612
-0.033849596907498114
-0.05231301340249961
-0.05231301340249961
-0.09539431855751236
-0.1261666793825056
-0.15078456804251686
-0.15693904020752658
-0.14463009587750708
-0.14463009587750708
-0.15078456804251686
-0.1384756237125251
-0.10770326288750408
-0.12001220721752358
-0.1384756237125251
-0.13232115154751534
-0.08923984639250257
-0.06462195773251911
-0.05846748556750937
-0.08308537422752059
-0.08923984639250257
-0.08923984639250257
-0.08923984639250257
-0.08923984639250257
-0.07693090206251085
-0.06462195773251911
-0.09539431855751236
-0.16309351237253633
-0.1938658731975296
-0.2061748175275213
-0.21232928969253104
-0.23079270618753256
-0.26771953917753555
-0.28618295567253704
-0.2984919000025288
-0.3415732051575415
-0.36619109381755277
-0.36619109381755277
-0.3723455659825625
-0.36619109381755277
-0.37850003814754446
-0.40927239897256545
-0.427735815467567
-0.433890287632549
-0.44619923196256844
-0.45850817629256013
-0.46466264845757
-0.44619923196256844
-0.42158134330255725
-0.40311792680755576
-0.396963454642546
-0.37850003814754446
-0.35388214948756086
-0.35388214948756086
-0.33541873299255964
-0.29233742783754685
-0.23079270618753256
-0.18155692886753785
-0.13232115154751534
-0.11385773505251384
-0.1261666793825056
-0.15078456804251686
-0.2000203453625393
-0.2738740113425453
-0.360036621652543
-0.396963454642546
-0.40927239897256545
-0.396963454642546
-0.396963454642546
-0.36619109381755277
-0.31695531649755804
-0.2984919000025288
-0.2800284835075273
-0.2431016505175243
-0.2431016505175243
-0.24925612268253405
-0.2554105948475438
-0.28618295567253704
-0.3415732051575415
-0.45850817629256013
-0.5446707866025856
-0.6246789247476012
-0.6431423412426027
-0.6246789247476012
-0.5631342030975872
-0.427735815467567
-0.360036621652543
-0.34772767732255133
-0.28618295567253704
-0.2431016505175243
-0.31695531649755804
-0.36619109381755277
-0.390808982477564
-0.40311792680755576
-0.37850003814754446
-0.40927239897256545
-0.6000610360875902
-0.6308333969125834
-0.42158134330255725
-0.28618295567253704
-0.2000203453625393
-0.15078456804251686
-0.11385773505251384
-0.08923984639250257
-0.05231301340249961
-0.01538618041249662
0.01538618041249662
0.05846748556750937
0.11385773505251384
0.15693904020752658
0.16309351237253633
0.18155692886753785
0.2184837618575408
0.2369471783525424
0.23079270618753256
0.2369471783525424
0.2369471783525424
0.2246382340225228
0.2184837618575408
0.2246382340225228
0.21232928969253104
0.2184837618575408
0.21232928969253104
0.2000203453625393
0.18771140103251985
0.17540245670252808
0.1692479845375183
0.1692479845375183
0.15693904020752658
0.15693904020752658
0.16309351237253633
0.16309351237253633
0.1692479845375183
0.18155692886753785
0.16309351237253633
0.15693904020752658
0.15078456804251686
0.14463009587750708
0.1384756237125251
0.1384756237125251
0.1261666793825056
0.13232115154751534
0.12001220721752358
0.12001220721752358
0.11385773505251384
0.11385773505251384
0.11385773505251384
0.10770326288750408
0.1015487907225221
0.1015487907225221
0.09539431855751236
0.09539431855751236
0.09539431855751236
0.09539431855751236
0.1015487907225221
0.08923984639250257
0.08923984639250257
0.08923984639250257
0.08923984639250257
0.08923984639250257
0.08308537422752059
0.07693090206251085
0.07693090206251085
0.0707764298975011
0.0707764298975011
0.0707764298975011
0.06462195773251911
0.05846748556750937
0.05846748556750937
0.05846748556750937
0.05231301340249961
0.04000406907250786
0.05231301340249961
0.04615854123751762
0.04000406907250786
0.033849596907498114
0.02154065257750637
0.02769512474251612
0.02769512474251612
0.02154065257750637
0.009231708247514623
0.01538618041249662
0.003077236082504875
-0.003077236082504875
-0.003077236082504875
0.003077236082504875
-0.003077236082504875
-0.009231708247514623
-0.009231708247514623
-0.009231708247514623
-0.009231708247514623
-0.009231708247514623
-0.01538618041249662
-0.02154065257750637
-0.01538618041249662
-0.02154065257750637
-0.02154065257750637
-0.02154065257750637
-0.01538618041249662
-0.009231708247514623
-0.01538618041249662
-0.02154065257750637
-0.033849596907498114
-0.04615854123751762
-0.04615854123751762
-0.04615854123751762
-0.05231301340249961
-0.04000406907250786
-0.05231301340249961
-0.05846748556750937
-0.0707764298975011
-0.07693090206251085
-0.08308537422752059
-0.08308537422752059
-0.09539431855751236
-0.1015487907225221
-0.09539431855751236
-0.10770326288750408
-0.1015487907225221
-0.1015487907225221
-0.10770326288750408
-0.10770326288750408
-0.1015487907225221
-0.10770326288750408
-0.11385773505251384
-0.11385773505251384
-0.1261666793825056
-0.14463009587750708
-0.15078456804251686
-0.1015487907225221
-0.05846748556750937
-0.009231708247514623
0.02769512474251612
0.05231301340249961
0.033849596907498114
0.003077236082504875
-0.05846748556750937
-0.1692479845375183
-0.23079270618753256
-0.24925612268253405
-0.2554105948475438
-0.2431016505175243
-0.24925612268253405
-0.2369471783525424
-0.21232928969253104
-0.1938658731975296
-0.17540245670252808
-0.15693904020752658
-0.15693904020752658
-0.15693904020752658
-0.15693904020752658
-0.15078456804251686
-0.15078456804251686
-0.15078456804251686
-0.15693904020752658
-0.15078456804251686
-0.14463009587750708
-0.14463009587750708
-0.15693904020752658
-0.15078456804251686
-0.15693904020752658
-0.15693904020752658
-0.15078456804251686
-0.14463009587750708
-0.14463009587750708
-0.15078456804251686
-0.15078456804251686
-0.15693904020752658
-0.15693904020752658
-0.15078456804251686
-0.15078456804251686
-0.15078456804251686
-0.15078456804251686
-0.15078456804251686
-0.14463009587750708
-0.14463009587750708
-0.14463009587750708
-0.1384756237125251
-0.14463009587750708
-0.1384756237125251
-0.13232115154751534
-0.13232115154751534
-0.1261666793825056
-0.1261666793825056
-0.12001220721752358
-0.12001220721752358
-0.12001220721752358
-0.11385773505251384
-0.10770326288750408
-0.11385773505251384
-0.10770326288750408
-0.11385773505251384
-0.11385773505251384
-0.1261666793825056
-0.12001220721752358
-0.12001220721752358
-0.12001220721752358
-0.13232115154751534
-0.1384756237125251
-0.15693904020752658
-0.16309351237253633
-0.1692479845375183
-0.18155692886753785
-0.18155692886753785
-0.18771140103251985
-0.2000203453625393
-0.2061748175275213
-0.21232928969253104
-0.2184837618575408
-0.2184837618575408
-0.2184837618575408
-0.2184837618575408
-0.23079270618753256
-0.2246382340225228
-0.23079270618753256
-0.23079270618753256
-0.2246382340225228
-0.23079270618753256
-0.2246382340225228
-0.2184837618575408
-0.2184837618575408
-0.2184837618575408
-0.2246382340225228
-0.2184837618575408
-0.2246382340225228
-0.2246382340225228
-0.2246382340225228
-0.21232928969253104
-0.2184837618575408
-0.21232928969253104
-0.21232928969253104
-0.21232928969253104
-0.2061748175275213
-0.2061748175275213
-0.2184837618575408
-0.2184837618575408
-0.2061748175275213
-0.21232928969253104
-0.2184837618575408
-0.2184837618575408
-0.21232928969253104
-0.2184837618575408
-0.2184837618575408
-0.21232928969253104
-0.2184837618575408
-0.2184837618575408
-0.21232928969253104
-0.2184837618575408
-0.21232928969253104
-0.21232928969253104
-0.2184837618575408
-0.2246382340225228
-0.2184837618575408
-0.2061748175275213
-0.2061748175275213
-0.2000203453625393
-0.2184837618575408
-0.2431016505175243
-0.23079270618753256
-0.2246382340225228
-0.2184837618575408
-0.2061748175275213
-0.2061748175275213
-0.18771140103251985
-0.1938658731975296
-0.2061748175275213
-0.21232928969253104
-0.21232928969253104
-0.2061748175275213
-0.21232928969253104
-0.21232928969253104
-0.21232928969253104
-0.21232928969253104
-0.2246382340225228
-0.2184837618575408
-0.2246382340225228
-0.2369471783525424
-0.2369471783525424
-0.2369471783525424
-0.2369471783525424
-0.2431016505175243
-0.2369471783525424
-0.2431016505175243
-0.2431016505175243
-0.2431016505175243
-0.23079270618753256
-0.23079270618753256
-0.2369471783525424
-0.2431016505175243
-0.2431016505175243
-0.24925612268253405
-0.26156506701252585
-0.24925612268253405
-0.2246382340225228
-0.1692479845375183
-0.1261666793825056
-0.1015487907225221
-0.08923984639250257
-0.1015487907225221
-0.1261666793825056
-0.18771140103251985
-0.2554105948475438
-0.32310978866254003
-0.4708171206225797
-0.5138984257775646
-0.5939065639225805
-0.575443147427579
-0.5446707866025856
-0.5446707866025856
-0.5631342030975872
-0.5631342030975872
-0.5077439536125827
-0.4523537041275505
-0.5446707866025856
-0.6923781185625978
-0.8216220340276081
0.4892805371175811
0.01538618041249662
-0.3723455659825625
-0.3723455659825625
-0.3846545103125543
-0.49543500928256323
-0.49543500928256323
-0.4831260649525715
-0.47697159278756174
-0.5015894814475731
-0.5138984257775646
-0.42158134330255725
-0.45850817629256013
-0.538516314437576
-0.7846952010376053
-0.9693293659876481
-0.6923781185625978
-0.6000610360875902
-0.5815976195925888
-0.5015894814475731
-0.5262073701075842
-0.5262073701075842
-0.5138984257775646
-0.5200528979425745
-0.5323618422725662
-0.575443147427579
-0.5323618422725662
-0.5200528979425745
-0.5569797309325777
-0.4708171206225797
-0.5446707866025856
-0.5077439536125827
-0.5077439536125827
-0.5077439536125827
-0.4831260649525715
-0.4708171206225797
-0.4831260649525715
-0.4708171206225797
-0.49543500928256323
-0.49543500928256323
-0.4831260649525715
-0.4708171206225797
-0.5138984257775646
-0.44619923196256844
-0.47697159278756174
-0.5815976195925888
-0.5015894814475731
-0.46466264845757
-0.4892805371175811
-0.5015894814475731
-0.5015894814475731
-0.44619923196256844
-0.538516314437576
-0.5138984257775646
-0.5138984257775646
-0.5200528979425745
-0.5015894814475731
-0.15078456804251686
0.5569797309325777
-0.7231504793875909
-1.1355001144426613
-0.7354594237176102
-0.5262073701075842
-0.4831260649525715
-0.45850817629256013
-0.433890287632549
-0.4400447597975588
-0.37850003814754446
-0.44619923196256844
-0.4523537041275505
-0.46466264845757
-0.5015894814475731
-0.5077439536125827
-0.433890287632549
-0.427735815467567
-0.390808982477564
-0.4523537041275505
-0.390808982477564
-0.3723455659825625
-0.396963454642546
-0.396963454642546
-0.4400447597975588
-0.4523537041275505
-0.34772767732255133
-0.45850817629256013
-0.40927239897256545
-0.37850003814754446
-0.390808982477564
-0.33541873299255964
-0.32310978866254003
-0.3846545103125543
-0.30464637216753854
-0.4154268711375475
-0.360036621652543
-0.36619109381755277
-0.396963454642546
-0.34772767732255133
-0.3108008443325483
-0.33541873299255964
-0.3108008443325483
-0.42158134330255725
-0.40311792680755576
-0.40311792680755576
-0.31695531649755804
-0.1015487907225221
-0.21232928969253104
-0.2738740113425453
-0.29233742783754685
-0.390808982477564
-0.4708171206225797
-0.34772767732255133
-0.34772767732255133
-0.40311792680755576
-0.37850003814754446
-0.35388214948756086
-0.33541873299255964
-0.433890287632549
-0.40927239897256545
-0.49543500928256323
-0.7108415350575992
-0.7108415350575992
-1.1170366979476598
-0.11385773505251384
-0.08923984639250257
-0.42158134330255725
-0.4400447597975588
-0.427735815467567
-0.44619923196256844
-0.49543500928256323
-0.4831260649525715
-0.396963454642546
0.4831260649525715
-0.49543500928256323
-0.3415732051575415
-0.40927239897256545
-0.42158134330255725
-0.396963454642546
-0.433890287632549
-0.45850817629256013
-0.895475700007614
-0.9324025329976448
-0.6246789247476012
-0.5508252587675677
-0.5262073701075842
-0.5077439536125827
-0.49543500928256323
-0.47697159278756174
-0.47697159278756174
-0.433890287632549
-0.5077439536125827
-0.4708171206225797
-0.45850817629256013
-0.46466264845757
-0.45850817629256013
-0.427735815467567
-0.390808982477564
-0.47697159278756174
-0.46466264845757
-0.47697159278756174
-0.46466264845757
-0.4523537041275505
-0.433890287632549
-0.42158134330255725
-0.4523537041275505
-0.5200528979425745
-0.4400447597975588
-0.396963454642546
-0.44619923196256844
-0.46466264845757
-0.44619923196256844
-0.4154268711375475
-0.45850817629256013
-0.5569797309325777
-0.5077439536125827
-0.45850817629256013
-0.45850817629256013
-0.44619923196256844
-0.4400447597975588
-0.3292642608275498
-0.0707764298975011
0.40311792680755576
-0.5077439536125827
-0.3723455659825625
-0.34772767732255133
-0.360036621652543
-0.32310978866254003
-0.37850003814754446
-0.9139391165026156
-0.6862236463975879
-0.4831260649525715
-0.396963454642546
-0.360036621652543
-0.33541873299255964
-0.2984919000025288
0.6123699804175823
-0.24925612268253405
-1.0308740876376343
-0.47697159278756174
-0.37850003814754446
-0.31695531649755804
-0.30464637216753854
-0.2984919000025288
-0.2738740113425453
-0.37850003814754446
-0.3292642608275498
-0.24925612268253405
-0.2369471783525424
-0.2184837618575408
-0.2061748175275213
-0.36619109381755277
-0.26771953917753555
-0.37850003814754446
-0.37850003814754446
-0.34772767732255133
-0.3292642608275498
-0.3415732051575415
-0.32310978866254003
-0.3292642608275498
-0.3108008443325483
-0.35388214948756086
-0.3292642608275498
-0.33541873299255964
-0.26156506701252585
-0.21232928969253104
-0.3108008443325483
-0.3108008443325483
-0.2369471783525424
-0.396963454642546
-0.34772767732255133
-0.33541873299255964
-0.2800284835075273
-0.29233742783754685
-0.2738740113425453
-0.2431016505175243
-0.21232928969253104
-0.32310978866254003
-0.30464637216753854
-0.2000203453625393
-0.18771140103251985
-0.2800284835075273
-0.2984919000025288
-0.2800284835075273
-0.36619109381755277
-1.0185651433076426
0.04000406907250786
-0.009231708247514623
-0.2184837618575408
-0.2800284835075273
-0.32310978866254003
-0.29233742783754685
-0.23079270618753256
-0.3723455659825625
-0.34772767732255133
-0.427735815467567
-0.36619109381755277
-0.34772767732255133
-0.34772767732255133
-0.2984919000025288
-0.2554105948475438
-0.390808982477564
-0.2984919000025288
-0.30464637216753854
-0.31695531649755804
-0.3108008443325483
-0.2984919000025288
-0.29233742783754685
-0.2738740113425453
-0.1261666793825056
-0.01538618041249662
-0.17540245670252808
-0.2184837618575408
-0.2061748175275213
-0.21232928969253104
-0.2061748175275213
-0.15078456804251686
-0.2246382340225228
-0.1692479845375183
-0.1692479845375183
-0.1938658731975296
-0.16309351237253633
-0.2000203453625393
-0.2061748175275213
-0.0707764298975011
-0.09539431855751236
-0.11385773505251384
-0.1384756237125251
-0.11385773505251384
-0.10770326288750408
-0.0707764298975011
-0.04615854123751762
-0.04000406907250786
-0.07693090206251085
-0.01538618041249662
-0.02769512474251612
-0.04000406907250786
-0.02769512474251612
-0.05231301340249961
-0.3415732051575415
-0.4523537041275505
-0.28618295567253704
-0.15693904020752658
0.2000203453625393
0.6862236463975879
-0.2738740113425453
-0.06462195773251911
-0.06462195773251911
-0.5323618422725662
-0.5323618422725662
-0.24925612268253405
-0.24925612268253405
-0.2554105948475438
-0.24925612268253405
-0.14463009587750708
-0.09539431855751236
-0.18771140103251985
-0.2738740113425453
-0.23079270618753256
-0.23079270618753256
-0.23079270618753256
-0.2431016505175243
-0.26156506701252585
-0.24925612268253405
-0.26771953917753555
-0.30464637216753854
-0.33541873299255964
-0.35388214948756086
-0.33541873299255964
-0.44619923196256844
-0.4400447597975588
-0.32310978866254003
-0.2984919000025288
-0.360036621652543
-0.2800284835075273
-0.26771953917753555
-0.28618295567253704
-0.2984919000025288
-0.2984919000025288
-0.26771953917753555
-0.29233742783754685
-0.33541873299255964
-0.360036621652543
-0.2984919000025288
-0.2061748175275213
-0.2431016505175243
-0.26156506701252585
-0.2369471783525424
-0.2554105948475438
-0.2800284835075273
-0.2431016505175243
-0.26156506701252585
-0.2800284835075273
-0.2800284835075273
-0.2738740113425453
-0.23079270618753256
-0.30464637216753854
-0.29233742783754685
-0.2431016505175243
-0.28618295567253704
-0.28618295567253704
-0.2431016505175243
-0.24925612268253405
-0.1938658731975296
-0.2984919000025288
-0.30464637216753854
-0.4892805371175811
-0.9693293659876481
0.003077236082504875
0.009231708247514623
-0.28618295567253704
-0.2800284835075273
-0.3723455659825625
-0.29233742783754685
-0.17540245670252808
-0.18771140103251985
-0.2061748175275213
-0.23079270618753256
-0.1938658731975296
-0.13232115154751534
-0.30464637216753854
-0.3108008443325483
-0.2984919000025288
-0.3108008443325483
-0.2984919000025288
-0.2800284835075273
-0.26771953917753555
-0.2369471783525424
-0.32310978866254003
-0.3846545103125543
-0.3415732051575415
-0.3292642608275498
-0.32310978866254003
-0.3108008443325483
-0.28618295567253704
-0.18155692886753785
-0.34772767732255133
-0.33541873299255964
-0.33541873299255964
-0.34772767732255133
-0.33541873299255964
-0.35388214948756086
-0.3723455659825625
-0.30464637216753854
-0.5446707866025856
-0.427735815467567
-0.390808982477564
-0.37850003814754446
-0.3292642608275498
-0.33541873299255964
-0.34772767732255133
-0.30464637216753854
-0.427735815467567
-0.4523537041275505
-0.427735815467567
-0.4400447597975588
-0.44619923196256844
-0.45850817629256013
-0.28618295567253704
-0.1692479845375183
-0.390808982477564
-0.40927239897256545
-0.433890287632549
-0.427735815467567
-0.427735815467567
-0.10770326288750408
0.6123699804175823
-1.000101726812641
-1.073955392792647
-0.6492968134075847
-0.5569797309325777
-0.5631342030975872
-0.5262073701075842
-0.5569797309325777
-0.7416138958825924
-0.575443147427579
-0.6308333969125834
-0.5569797309325777
-0.5508252587675677
-0.5200528979425745
-0.5692886752625692
-0.5569797309325777
-0.5138984257775646
-0.47697159278756174
-0.5692886752625692
-0.538516314437576
-0.5138984257775646
-0.4892805371175811
-0.29233742783754685
-0.427735815467567
-0.433890287632549
0.2184837618575408
-1.1662724752676545
-0.05231301340249961
-0.21232928969253104
-0.42158134330255725
-0.46466264845757
-0.49543500928256323
-0.538516314437576
-0.9816383103176396
-1.0185651433076426
-0.6985325907276074
-0.6246789247476012
-0.5815976195925888
-0.5446707866025856
-0.5508252587675677
-0.5077439536125827
-0.47697159278756174
-0.5692886752625692
-0.5323618422725662
-0.5138984257775646
-0.49543500928256323
-0.4831260649525715
-0.4400447597975588
-0.4154268711375475
-0.42158134330255725
-0.45850817629256013
-0.45850817629256013
-0.46466264845757
-0.46466264845757
-0.46466264845757
-0.4523537041275505
-0.42158134330255725
-0.42158134330255725
-0.4400447597975588
-0.3846545103125543
-0.3846545103125543
-0.37850003814754446
-0.3846545103125543
-0.40927239897256545
-0.34772767732255133
-0.40311792680755576
-0.44619923196256844
-0.6123699804175823
-0.538516314437576
-0.396963454642546
-0.34772767732255133
-0.34772767732255133
-0.2984919000025288
-0.31695531649755804
-0.33541873299255964
-0.29233742783754685
-0.31695531649755804
-0.3292642608275498
-0.3292642608275498
-0.29233742783754685
-0.2554105948475438
-0.18155692886753785
-0.07693090206251085
-0.17540245670252808
-0.1692479845375183
-0.10770326288750408
0.1384756237125251
0.47697159278756174
0.5631342030975872
0.7539228402126119
0.7846952010376053
0.7477683680476023
0.7354594237176102
0.7169960072226089
0.6985325907276074
0.6862236463975879
0.6616057577376044
0.6492968134075847
0.6369878690775933
0.6246789247476012
0.6123699804175823
0.6062155082525723
0.5877520917575707
0.575443147427579
0.5692886752625692
0.5631342030975872
0.5508252587675677
0.5446707866025856
0.5262073701075842
0.5138984257775646
0.5200528979425745
0.5015894814475731
0.4831260649525715
0.4831260649525715
0.46466264845757
0.46466264845757
0.44619923196256844
0.44619923196256844
0.433890287632549
0.427735815467567
0.4154268711375475
0.40311792680755576
0.40927239897256545
0.40927239897256545
0.396963454642546
0.3846545103125543
0.3723455659825625
0.3723455659825625
0.34772767732255133
0.30464637216753854
0.31695531649755804
0.31695531649755804
0.30464637216753854
0.30464637216753854
0.2984919000025288
0.2984919000025288
0.28618295567253704
0.2800284835075273
0.2738740113425453
0.26156506701252585
0.2554105948475438
0.2554105948475438
0.2554105948475438
0.24925612268253405
0.2554105948475438
0.2431016505175243
0.23079270618753256
0.2184837618575408
0.2061748175275213
0.2000203453625393
0.2000203453625393
0.18771140103251985
0.18155692886753785
0.18155692886753785
0.16309351237253633
0.15693904020752658
0.14463009587750708
0.14463009587750708
0.1384756237125251
0.1261666793825056
0.11385773505251384
0.10770326288750408
0.10770326288750408
0.1015487907225221
0.1015487907225221
0.08923984639250257
0.08923984639250257
0.08308537422752059
0.08308537422752059
0.0707764298975011
0.0707764298975011
0.05846748556750937
0.04000406907250786
0.04000406907250786
0.05231301340249961
0.09539431855751236
0.13232115154751534
0.15693904020752658
0.17540245670252808
0.1692479845375183
0.1384756237125251
0.09539431855751236
0.04000406907250786
-0.02154065257750637
-0.05231301340249961
-0.07693090206251085
-0.04615854123751762
-0.04000406907250786
-0.04000406907250786
-0.01538618041249662
-0.009231708247514623
-0.003077236082504875
0.003077236082504875
-0.003077236082504875
-0.003077236082504875
-0.003077236082504875
-0.01538618041249662
-0.01538618041249662
-0.01538618041249662
-0.009231708247514623
-0.02154065257750637
-0.02154065257750637
-0.02769512474251612
-0.02154065257750637
-0.02769512474251612
-0.02154065257750637
-0.02769512474251612
-0.02769512474251612
-0.02154065257750637
-0.02154065257750637
-0.02154065257750637
-0.02769512474251612
-0.02769512474251612
-0.033849596907498114
-0.033849596907498114
-0.04615854123751762
-0.05846748556750937
-0.04615854123751762
-0.033849596907498114
-0.04000406907250786
-0.033849596907498114
-0.02769512474251612
-0.02769512474251612
-0.02769512474251612
-0.02769512474251612
-0.02769512474251612
-0.02769512474251612
-0.02154065257750637
-0.02154065257750637
-0.02769512474251612
-0.02154065257750637
-0.01538618041249662
-0.02769512474251612
-0.02769512474251612
-0.02769512474251612
-0.02769512474251612
-0.02769512474251612
-0.033849596907498114
-0.02769512474251612
-0.033849596907498114
-0.04000406907250786
-0.05231301340249961
-0.05846748556750937
-0.05846748556750937
-0.05231301340249961
-0.05846748556750937
-0.07693090206251085
-0.08923984639250257
-0.1261666793825056
-0.1261666793825056
-0.12001220721752358
-0.12001220721752358
-0.1261666793825056
-0.1261666793825056
-0.13232115154751534
-0.13232115154751534
-0.13232115154751534
-0.13232115154751534
-0.1384756237125251
-0.13232115154751534
-0.1384756237125251
-0.1384756237125251
-0.14463009587750708
-0.1384756237125251
-0.14463009587750708
-0.1384756237125251
-0.1384756237125251
-0.1384756237125251
-0.13232115154751534
-0.1384756237125251
-0.13232115154751534
-0.1384756237125251
-0.14463009587750708
-0.1384756237125251
-0.1384756237125251
-0.1384756237125251
-0.14463009587750708
-0.14463009587750708
-0.1384756237125251
-0.14463009587750708
-0.14463009587750708
-0.1384756237125251
-0.1384756237125251
-0.15078456804251686
-0.14463009587750708
-0.14463009587750708
-0.14463009587750708
-0.1384756237125251
-0.14463009587750708
-0.14463009587750708
-0.15078456804251686
-0.13232115154751534
-0.15078456804251686
-0.14463009587750708
-0.13232115154751534
-0.13232115154751534
-0.1384756237125251
-0.1384756237125251
-0.14463009587750708
-0.14463009587750708
-0.14463009587750708
-0.14463009587750708
-0.1384756237125251
-0.14463009587750708
-0.1384756237125251
-0.15078456804251686
-0.14463009587750708
-0.15693904020752658
-0.15078456804251686
-0.1384756237125251
-0.14463009587750708
-0.14463009587750708
-0.14463009587750708
-0.1384756237125251
-0.14463009587750708
-0.14463009587750708
-0.1384756237125251
-0.13232115154751534
-0.13232115154751534
-0.1261666793825056
-0.1261666793825056
-0.12001220721752358
-0.1261666793825056
-0.1384756237125251
-0.13232115154751534
-0.14463009587750708
-0.1384756237125251
-0.14463009587750708
-0.14463009587750708
-0.14463009587750708
-0.15078456804251686
-0.15693904020752658
-0.15693904020752658
-0.1692479845375183
-0.16309351237253633
-0.16309351237253633
-0.15693904020752658
-0.1692479845375183
-0.16309351237253633
-0.16309351237253633
-0.1692479845375183
-0.1692479845375183
-0.17540245670252808
-0.16309351237253633
-0.15078456804251686
-0.16309351237253633
-0.1692479845375183
-0.18155692886753785
-0.18771140103251985
-0.18771140103251985
-0.15693904020752658
-0.13232115154751534
-0.10770326288750408
-0.05846748556750937
-0.04000406907250786
-0.05846748556750937
-0.08923984639250257
-0.14463009587750708
-0.2000203453625393
-0.24925612268253405
-0.2800284835075273
-0.2800284835075273
-0.26156506701252585
-0.24925612268253405
-0.2184837618575408
-0.2000203453625393
-0.17540245670252808
-0.18155692886753785
-0.18771140103251985
-0.18155692886753785
-0.17540245670252808
-0.17540245670252808
-0.17540245670252808
-0.17540245670252808
-0.1692479845375183
-0.16309351237253633
-0.16309351237253633
-0.16309351237253633
-0.1692479845375183
-0.1692479845375183
-0.1692479845375183
-0.1692479845375183
-0.15693904020752658
-0.16309351237253633
-0.1692479845375183
-0.1692479845375183
-0.16309351237253633
-0.16309351237253633
-0.1692479845375183
-0.1692479845375183
-0.16309351237253633
-0.16309351237253633
-0.15693904020752658
-0.16309351237253633
-0.15693904020752658
-0.16309351237253633
-0.16309351237253633
-0.15693904020752658
-0.14463009587750708
-0.15078456804251686
-0.14463009587750708
-0.1384756237125251
-0.1384756237125251
-0.13232115154751534
-0.1261666793825056
-0.1261666793825056
-0.12001220721752358
-0.11385773505251384
-0.10770326288750408
-0.11385773505251384
-0.10770326288750408
-0.10770326288750408
-0.11385773505251384
-0.11385773505251384
-0.11385773505251384
-0.12001220721752358
-0.12001220721752358
-0.1261666793825056
-0.13232115154751534
-0.13232115154751534
-0.14463009587750708
-0.14463009587750708
-0.15078456804251686
-0.15693904020752658
-0.16309351237253633
-0.1692479845375183
-0.18155692886753785
-0.18155692886753785
-0.18155692886753785
-0.1938658731975296
-0.18771140103251985
-0.18771140103251985
-0.17540245670252808
-0.17540245670252808
-0.18155692886753785
-0.18771140103251985
-0.18771140103251985
-0.18155692886753785
-0.18155692886753785
-0.2000203453625393
-0.18771140103251985
-0.18155692886753785
-0.1938658731975296
-0.1938658731975296
-0.2000203453625393
-0.1938658731975296
-0.1938658731975296
-0.2000203453625393
-0.2061748175275213
-0.2000203453625393
-0.2000203453625393
-0.1938658731975296
-0.2061748175275213
-0.2000203453625393
-0.1938658731975296
-0.2000203453625393
-0.2061748175275213
-0.2000203453625393
-0.2000203453625393
-0.2000203453625393
-0.2061748175275213
-0.2000203453625393
-0.1938658731975296
-0.2061748175275213
-0.2061748175275213
-0.2061748175275213
-0.2061748175275213
-0.21232928969253104
-0.21232928969253104
-0.2000203453625393
-0.21232928969253104
-0.21232928969253104
-0.2246382340225228
-0.2246382340225228
-0.2246382340225228
-0.2184837618575408
-0.2184837618575408
-0.2246382340225228
-0.2184837618575408
-0.2246382340225228
-0.2246382340225228
-0.2246382340225228
-0.2246382340225228
-0.2369471783525424
-0.2369471783525424
-0.23079270618753256
-0.23079270618753256
-0.2369471783525424
-0.2246382340225228
-0.21232928969253104
-0.2246382340225228
-0.2246382340225228
-0.2369471783525424
-0.23079270618753256
-0.2554105948475438
-0.26771953917753555
-0.26156506701252585
-0.24925612268253405
-0.24925612268253405
-0.2431016505175243
-0.2369471783525424
-0.2431016505175243
-0.2369471783525424
-0.2369471783525424
-0.2554105948475438
-0.26771953917753555
-0.26771953917753555
-0.26771953917753555
-0.2554105948475438
-0.2554105948475438
-0.2431016505175243
-0.2369471783525424
-0.2184837618575408
-0.2184837618575408
-0.21232928969253104
-0.2061748175275213
-0.2061748175275213
-0.2000203453625393
-0.18771140103251985
-0.17540245670252808
-0.18155692886753785
-0.1938658731975296
-0.1938658731975296
-0.18771140103251985
-0.1938658731975296
-0.18771140103251985
-0.18155692886753785
-0.1938658731975296
-0.18771140103251985
-0.1938658731975296
-0.2061748175275213
-0.21232928969253104
-0.2061748175275213
-0.2184837618575408
-0.23079270618753256
-0.2246382340225228
-0.23079270618753256
-0.23079270618753256
-0.23079270618753256
-0.23079270618753256
-0.23079270618753256
-0.23079270618753256
-0.23079270618753256
-0.23079270618753256
-0.23079270618753256
-0.2369471783525424
-0.24925612268253405
-0.23079270618753256
-0.18155692886753785
-0.13232115154751534
-0.1015487907225221
-0.07693090206251085
-0.05846748556750937
-0.06462195773251911
-0.12001220721752358
-0.18771140103251985
-0.26771953917753555
-0.32310978866254003
-0.34772767732255133
-0.3415732051575415
-0.3292642608275498
-0.3108008443325483
-0.2800284835075273
-0.24925612268253405
-0.23079270618753256
-0.2246382340225228
-0.2184837618575408
-0.2246382340225228
-0.2184837618575408
-0.2061748175275213
-0.2061748175275213
-0.2184837618575408
-0.2061748175275213
-0.2061748175275213
-0.21232928969253104
-0.2061748175275213
-0.2061748175275213
-0.21232928969253104
-0.2061748175275213
-0.2000203453625393
-0.2000203453625393
-0.2061748175275213
-0.2061748175275213
-0.2000203453625393
-0.2000203453625393
-0.2061748175275213
-0.2000203453625393
-0.1938658731975296
-0.18771140103251985
-0.1938658731975296
-0.1938658731975296
-0.1938658731975296
-0.18155692886753785
-0.18155692886753785
-0.18771140103251985
-0.18155692886753785
-0.18155692886753785
-0.17540245670252808
-0.18155692886753785
-0.1692479845375183
-0.16309351237253633
-0.1692479845375183
-0.15078456804251686
-0.14463009587750708
-0.14463009587750708
-0.1384756237125251
-0.14463009587750708
-0.13232115154751534
-0.13232115154751534
-0.13232115154751534
-0.13232115154751534
-0.11385773505251384
-0.12001220721752358
-0.14463009587750708
-0.16309351237253633
-0.15693904020752658
-0.15693904020752658
-0.15693904020752658
-0.16309351237253633
-0.17540245670252808
-0.17540245670252808
-0.18771140103251985
-0.1938658731975296
-0.2000203453625393
-0.2000203453625393
-0.2000203453625393
-0.2061748175275213
-0.2061748175275213
-0.21232928969253104
-0.2184837618575408
-0.2184837618575408
-0.2184837618575408
-0.2246382340225228
-0.2246382340225228
-0.2184837618575408
-0.2184837618575408
-0.23079270618753256
-0.23079270618753256
-0.2246382340225228
-0.23079270618753256
-0.23079270618753256
-0.23079270618753256
-0.23079270618753256
-0.23079270618753256
-0.2246382340225228
-0.2369471783525424
-0.23079270618753256
-0.2246382340225228
-0.2246382340225228
-0.23079270618753256
-0.23079270618753256
-0.23079270618753256
-0.23079270618753256
-0.2369471783525424
-0.2369471783525424
-0.23079270618753256
-0.23079270618753256
-0.2369471783525424
-0.2369471783525424
-0.2431016505175243
-0.2431016505175243
-0.2738740113425453
-0.26156506701252585
-0.2246382340225228
-0.2369471783525424
-0.2431016505175243
-0.2431016505175243
-0.2554105948475438
-0.26156506701252585
-0.29233742783754685
-0.28618295567253704
-0.2800284835075273
-0.26771953917753555
-0.26771953917753555
-0.26771953917753555
-0.26156506701252585
-0.26156506701252585
-0.2738740113425453
-0.2738740113425453
-0.2738740113425453
-0.2738740113425453
-0.2738740113425453
-0.2738740113425453
-0.26771953917753555
-0.26156506701252585
-0.26771953917753555
-0.26156506701252585
-0.2554105948475438
-0.24925612268253405
-0.2554105948475438
-0.24925612268253405
-0.2431016505175243
-0.23079270618753256
-0.23079270618753256
-0.23079270618753256
-0.23079270618753256
-0.2431016505175243
-0.23079270618753256
-0.2369471783525424
-0.2369471783525424
-0.2369471783525424
-0.24925612268253405
-0.26156506701252585
-0.26771953917753555
-0.26156506701252585
-0.26156506701252585
-0.2738740113425453
-0.26156506701252585
-0.2554105948475438
-0.26156506701252585
-0.2554105948475438
-0.2431016505175243
-0.2554105948475438
-0.2431016505175243
-0.2369471783525424
-0.2369471783525424
-0.2369471783525424
-0.2431016505175243
-0.2369471783525424
-0.2431016505175243
-0.2431016505175243
-0.2431016505175243
-0.2431016505175243
-0.2431016505175243
-0.26156506701252585
-0.2554105948475438
-0.24925612268253405
-0.2554105948475438
-0.26156506701252585
-0.26771953917753555
-0.2738740113425453
-0.2800284835075273
-0.3292642608275498
-0.2984919000025288
-0.28618295567253704
-0.29233742783754685
-0.29233742783754685
-0.28618295567253704
-0.28618295567253704
-0.28618295567253704
-0.2800284835075273
-0.29233742783754685
-0.2984919000025288
-0.30464637216753854
-0.29233742783754685
-0.2554105948475438
-0.2000203453625393
-0.16309351237253633
-0.14463009587750708
-0.1384756237125251
-0.15078456804251686
-0.18771140103251985
-0.2738740113425453
-0.37850003814754446
-0.45850817629256013
-0.47697159278756174
-0.47697159278756174
-0.4708171206225797
-0.45850817629256013
-0.44619923196256844
-0.42158134330255725
-0.3723455659825625
-0.34772767732255133
-0.3415732051575415
-0.35388214948756086
-0.34772767732255133
-0.35388214948756086
-0.35388214948756086
-0.37850003814754446
-0.37850003814754446
-0.37850003814754446
-0.33541873299255964
-0.32310978866254003
-0.31695531649755804
-0.3108008443325483
-0.30464637216753854
-0.29233742783754685
-0.28618295567253704
-0.28618295567253704
-0.28618295567253704
-0.2984919000025288
-0.31695531649755804
-0.3292642608275498
-0.33541873299255964
-0.33541873299255964
-0.3292642608275498
-0.30464637216753854
-0.29233742783754685
-0.28618295567253704
-0.26771953917753555
-0.26771953917753555
-0.26771953917753555
-0.26771953917753555
-0.2738740113425453
-0.2738740113425453
-0.2738740113425453
-0.26156506701252585
-0.2554105948475438
-0.2431016505175243
-0.21232928969253104
-0.2061748175275213
-0.1938658731975296
-0.17540245670252808
-0.1938658731975296
-0.2061748175275213
-0.2184837618575408
-0.2184837618575408
-0.2246382340225228
-0.2184837618575408
-0.2184837618575408
-0.2246382340225228
-0.23079270618753256
-0.2246382340225228
-0.23079270618753256
-0.2431016505175243
-0.2554105948475438
-0.26156506701252585
-0.26156506701252585
-0.26771953917753555
-0.26156506701252585
-0.2738740113425453
-0.26771953917753555
-0.26156506701252585
-0.26771953917753555
-0.26771953917753555
-0.2800284835075273
-0.2738740113425453
-0.26771953917753555
-0.26156506701252585
-0.24925612268253405
-0.24925612268253405
-0.2431016505175243
-0.2369471783525424
-0.2369471783525424
-0.2369471783525424
-0.24925612268253405
-0.26156506701252585
-0.2554105948475438
-0.24925612268253405
-0.24925612268253405
-0.2431016505175243
-0.23079270618753256
-0.23079270618753256
-0.2431016505175243
-0.2369471783525424
-0.21232928969253104
-0.2184837618575408
-0.2246382340225228
-0.2184837618575408
-0.21232928969253104
-0.21232928969253104
-0.21232928969253104
-0.21232928969253104
-0.2184837618575408
-0.2738740113425453
-0.2000203453625393
-0.21232928969253104
-0.2184837618575408
-0.2184837618575408
-0.2184837618575408
-0.2554105948475438
-0.2369471783525424
-0.23079270618753256
-0.23079270618753256
-0.23079270618753256
-0.2431016505175243
-0.2738740113425453
-0.26156506701252585
-0.30464637216753854
-0.360036621652543
-0.3415732051575415
-0.34772767732255133
-0.2984919000025288
-0.29233742783754685
-0.26771953917753555
-0.21232928969253104
-0.24925612268253405
-0.2246382340225228
-0.24925612268253405
-0.2369471783525424
-0.24925612268253405
-0.23079270618753256
-0.1938658731975296
-0.15693904020752658
-0.21232928969253104
-0.15078456804251686
-0.2369471783525424
-0.2000203453625393
-0.16309351237253633
-0.14463009587750708
-0.15078456804251686
-0.1015487907225221
-0.1938658731975296
-0.16309351237253633
-0.16309351237253633
-0.17540245670252808
-0.15078456804251686
-0.12001220721752358
-0.1384756237125251
-0.07693090206251085
-0.10770326288750408
-0.05846748556750937
-0.11385773505251384
-0.1261666793825056
-0.1261666793825056
-0.14463009587750708
-0.13232115154751534
-0.04000406907250786
-0.1692479845375183
-0.1015487907225221
-0.08923984639250257
-0.10770326288750408
-0.11385773505251384
-0.1261666793825056
-0.07693090206251085
0.11385773505251384
-0.16309351237253633
-0.7046870628925892
0.2984919000025288
0.23079270618753256
-0.01538618041249662
-0.02154065257750637
-0.01538618041249662
0.02769512474251612
-0.1015487907225221
-0.1015487907225221
-0.04615854123751762
-0.05231301340249961
-0.04000406907250786
-0.07693090206251085
-0.1692479845375183
-0.12001220721752358
-0.15078456804251686
-0.05231301340249961
-0.033849596907498114
-0.033849596907498114
-0.04000406907250786
-0.009231708247514623
0.02154065257750637
0.08923984639250257
-0.0707764298975011
-0.009231708247514623
0.0707764298975011
0.08923984639250257
0.10770326288750408
0.2369471783525424
0.1692479845375183
0.2184837618575408
0.08923984639250257
0.08308537422752059
0.1015487907225221
0.09539431855751236
0.10770326288750408
0.1261666793825056
0.1384756237125251
0.2000203453625393
0.1261666793825056
0.2000203453625393
0.1938658731975296
0.24925612268253405
0.30464637216753854
0.11385773505251384
0.13232115154751534
0.47697159278756174
0.44619923196256844
0.02154065257750637
-0.11385773505251384
-0.14463009587750708
-0.1938658731975296
-0.26156506701252585
-0.2800284835075273
-0.24925612268253405
-0.396963454642546
-0.3723455659825625
-0.34772767732255133
-0.1261666793825056
0.3292642608275498
-0.5569797309325777
-0.2984919000025288
0.06462195773251911
-1.4247603061977032
-0.21232928969253104
-0.16309351237253633
-0.35388214948756086
-0.40311792680755576
-0.40311792680755576
-0.40927239897256545
-0.8400854505226096
-0.8523943948526291
-0.4892805371175811
-0.5138984257775646
-0.37850003814754446
-0.30464637216753854
-0.32310978866254003
-0.33541873299255964
-0.3415732051575415
-0.37850003814754446
-0.28618295567253704
-0.26771953917753555
-0.26156506701252585
-0.23079270618753256
-0.18771140103251985
-0.15693904020752658
-0.17540245670252808
0.12001220721752358
0.5692886752625692
0.10770326288750408
-0.009231708247514623
-0.02769512474251612
-0.07693090206251085
-0.08308537422752059
-0.08923984639250257
-0.10770326288750408
-0.05846748556750937
-0.04000406907250786
0.009231708247514623
-0.003077236082504875
-0.003077236082504875
0.02769512474251612
-0.2738740113425453
-0.6677602299025862
-0.31695531649755804
-0.2184837618575408
-0.15693904020752658
-0.16309351237253633
-0.1938658731975296
-0.14463009587750708
-0.1692479845375183
-0.2431016505175243
-0.16309351237253633
-0.15078456804251686
-0.18155692886753785
-0.16309351237253633
-0.1692479845375183
-0.15078456804251686
-0.23079270618753256
-0.1938658731975296
-0.2184837618575408
-0.2061748175275213
-0.21232928969253104
-0.26771953917753555
-0.29233742783754685
-0.7846952010376053
-0.32310978866254003
0.17540245670252808
-0.1384756237125251
-0.23079270618753256
-0.2738740113425453
-0.2246382340225228
-0.04615854123751762
0.35388214948756086
-0.21232928969253104
-0.6062155082525723
-0.40311792680755576
-0.37850003814754446
-0.360036621652543
-0.34772767732255133
-0.433890287632549
-0.37850003814754446
-0.45850817629256013
-0.45850817629256013
-0.433890287632549
-0.4523537041275505
-0.4523537041275505
-0.5138984257775646
-0.5939065639225805
-0.45850817629256013
-0.5446707866025856
-0.5077439536125827
-0.5138984257775646
-0.5262073701075842
-0.47697159278756174
-0.4831260649525715
-0.4708171206225797
-0.40311792680755576
-0.49543500928256323
-0.5015894814475731
-0.5138984257775646
-0.4400447597975588
-0.433890287632549
-0.49543500928256323
-0.46466264845757
-0.396963454642546
-0.5446707866025856
-0.47697159278756174
-0.4708171206225797
-0.45850817629256013
-0.4400447597975588
-0.42158134330255725
-0.427735815467567
-0.37850003814754446
-0.538516314437576
-0.5508252587675677
-0.4523537041275505
-0.3846545103125543
-0.4523537041275505
-0.4154268711375475
-0.1015487907225221
0.44619923196256844
-0.5692886752625692
-0.3723455659825625
-0.35388214948756086
-0.40927239897256545
-0.4154268711375475
-0.3723455659825625
-0.3723455659825625
-0.6677602299025862
-1.0185651433076426
-0.5815976195925888
-0.37850003814754446
-0.4154268711375475
-0.40311792680755576
-0.390808982477564
-0.3846545103125543
-0.30464637216753854
-0.4523537041275505
-0.433890287632549
-0.396963454642546
-0.37850003814754446
-0.3723455659825625
-0.37850003814754446
-0.34772767732255133
-0.30464637216753854
-0.4831260649525715
-0.433890287632549
-0.396963454642546
-0.396963454642546
-0.40311792680755576
-0.40311792680755576
-0.40311792680755576
-0.36619109381755277
-0.46466264845757
-0.46466264845757
-0.46466264845757
-0.4892805371175811
-0.44619923196256844
-0.47697159278756174
-0.5077439536125827
-0.4831260649525715
-0.6862236463975879
-0.575443147427579
-0.5262073701075842
-0.45850817629256013
-0.4831260649525715
-0.5200528979425745
-0.5138984257775646
-0.49543500928256323
-0.5877520917575707
-0.5631342030975872
-0.5200528979425745
-0.5138984257775646
-0.5138984257775646
-0.47697159278756174
-0.30464637216753854
-0.4523537041275505
-0.538516314437576
-0.5015894814475731
-0.5015894814475731
-0.47697159278756174
-0.4400447597975588
-0.6185244525825918
-1.141654586607671
-0.1692479845375183
-0.2554105948475438
-0.4154268711375475
-0.4523537041275505
-0.4523537041275505
-0.433890287632549
-0.3723455659825625
-0.3415732051575415
-0.360036621652543
-0.42158134330255725
-0.42158134330255725
-0.40927239897256545
-0.40927239897256545
-0.427735815467567
-0.4154268711375475
-0.37850003814754446
-0.40311792680755576
-0.4400447597975588
-0.4154268711375475
-0.42158134330255725
-0.433890287632549
-0.433890287632549
-0.396963454642546
-0.32310978866254003
-0.360036621652543
-0.44619923196256844
-0.42158134330255725
-0.40927239897256545
-0.390808982477564
-0.396963454642546
-0.40311792680755576
-0.396963454642546
-0.575443147427579
-0.5877520917575707
-0.30464637216753854
-0.37850003814754446
-0.46466264845757
-0.35388214948756086
-0.26156506701252585
-0.4523537041275505
-0.433890287632549
-0.433890287632549
-0.40311792680755576
-0.40311792680755576
-0.3723455659825625
-0.3846545103125543
-0.3846545103125543
0.13232115154751534
-0.3846545103125543
-0.7416138958825924
-0.46466264845757
-0.36619109381755277
-0.42158134330255725
-0.46466264845757
-0.47697159278756174
-0.4154268711375475
-0.4892805371175811
-0.08923984639250257
0.6554512855725947
-0.6554512855725947
-0.37850003814754446
-0.35388214948756086
-0.36619109381755277
-0.5077439536125827
-1.0185651433076426
-0.6739147020675963
-0.5508252587675677
-0.47697159278756174
-0.4523537041275505
-0.4400447597975588
-0.42158134330255725
-0.360036621652543
-0.45850817629256013
-0.46466264845757
-0.45850817629256013
-0.4154268711375475
-0.42158134330255725
-0.42158134330255725
-0.40927239897256545
-0.360036621652543
-0.37850003814754446
-0.30464637216753854
-0.34772767732255133
-0.390808982477564
-0.40311792680755576
-0.3723455659825625
-0.3846545103125543
-0.3415732051575415
-0.44619923196256844
-0.42158134330255725
-0.40927239897256545
-0.35388214948756086
-0.36619109381755277
-0.4154268711375475
-0.40927239897256545
-0.46466264845757
-1.3078253350626845
-0.04615854123751762
-0.05231301340249961
-0.3415732051575415
-0.31695531649755804
-0.2184837618575408
-0.4831260649525715
-0.37850003814754446
-0.5015894814475731
-0.46466264845757
-0.4523537041275505
-0.42158134330255725
-0.42158134330255725
-0.40927239897256545
-0.31695531649755804
-0.427735815467567
-0.5138984257775646
-0.4523537041275505
-0.433890287632549
-0.40311792680755576
-0.3846545103125543
-0.390808982477564
-0.390808982477564
-0.33541873299255964
-0.44619923196256844
-0.390808982477564
-0.3846545103125543
-0.40311792680755576
-0.396963454642546
-0.3846545103125543
-0.35388214948756086
-0.30464637216753854
-0.45850817629256013
-0.433890287632549
-0.433890287632549
-0.433890287632549
-0.433890287632549
-0.4400447597975588
-0.34772767732255133
0.5446707866025856
-0.37850003814754446
-0.4154268711375475
-0.33541873299255964
-0.30464637216753854
-0.30464637216753854
-0.40927239897256545
-0.34772767732255133
-0.7416138958825924
-0.8400854505226096
-0.5015894814475731
-0.40927239897256545
-0.40927239897256545
-0.40311792680755576
-0.37850003814754446
-0.30464637216753854
-0.28618295567253704
-0.32310978866254003
-0.2738740113425453
-0.2554105948475438
-0.2246382340225228
-0.30464637216753854
-0.2984919000025288
-0.30464637216753854
-0.28618295567253704
-0.3108008443325483
-0.29233742783754685
-0.32310978866254003
-0.2984919000025288
-0.29233742783754685
-0.3108008443325483
-0.2738740113425453
-0.30464637216753854
-0.37850003814754446
-0.29233742783754685
-0.2369471783525424
-0.28618295567253704
-0.2800284835075273
-0.31695531649755804
-0.23079270618753256
-0.2738740113425453
-0.3723455659825625
-0.34772767732255133
-0.3292642608275498
-0.02769512474251612
-0.003077236082504875
-0.7723862567076134
0.23079270618753256
-0.7108415350575992
-0.6062155082525723
-0.31695531649755804
-0.33541873299255964
-0.2984919000025288
-0.26156506701252585
-0.2431016505175243
-0.2000203453625393
-0.28618295567253704
-0.3415732051575415
-0.2984919000025288
-0.30464637216753854
-0.2984919000025288
-0.31695531649755804
-0.2800284835075273
-0.2184837618575408
-0.16309351237253633
0.1384756237125251
-0.0707764298975011
-0.1938658731975296
-0.26771953917753555
-0.28618295567253704
-0.30464637216753854
0.11385773505251384
-0.3723455659825625
-0.6862236463975879
-0.42158134330255725
-0.35388214948756086
-0.36619109381755277
-0.3846545103125543
-0.4154268711375475
-0.4892805371175811
-0.7600773123775938
-0.5631342030975872
-0.5015894814475731
-0.46466264845757
-0.4892805371175811
-0.4892805371175811
-0.47697159278756174
-0.4400447597975588
-0.5015894814475731
-0.4831260649525715
-0.4523537041275505
-0.4523537041275505
-0.47697159278756174
-0.4708171206225797
-0.4523537041275505
-0.433890287632549
-0.5138984257775646
-0.49543500928256323
-0.4892805371175811
-0.4708171206225797
-0.4400447597975588
-0.46466264845757
-0.42158134330255725
-0.2984919000025288
-0.5138984257775646
-0.4831260649525715
-0.4523537041275505
-0.6616057577376044
-1.1478090587726528
-0.0707764298975011
-0.12001220721752358
-0.30464637216753854
-0.5077439536125827
-0.4892805371175811
-0.5077439536125827
-0.5200528979425745
-0.49543500928256323
-0.5138984257775646
-0.5138984257775646
-0.427735815467567
-0.5323618422725662
-0.5077439536125827
-0.49543500928256323
-0.4831260649525715
-0.49543500928256323
-0.46466264845757
-0.4154268711375475
-0.3723455659825625
-0.4831260649525715
-0.427735815467567
-0.40927239897256545
-0.433890287632549
-0.427735815467567
-0.427735815467567
-0.433890287632549
-0.396963454642546
-0.5015894814475731
-0.4400447597975588
-0.42158134330255725
-0.396963454642546
-0.4708171206225797
-0.4708171206225797
-0.4400447597975588
-0.396963454642546
-0.5446707866025856
-0.5569797309325777
-0.5569797309325777
-0.5692886752625692
-0.5939065639225805
-0.6123699804175823
-0.5815976195925888
-0.5015894814475731
-0.6185244525825918
-0.5692886752625692
-0.3846545103125543
-0.433890287632549
-0.4708171206225797
-0.4831260649525715
-0.4400447597975588
-0.396963454642546
-0.47697159278756174
-0.4400447597975588
-0.4400447597975588
-0.42158134330255725
-0.42158134330255725
-0.36619109381755277
-0.033849596907498114
0.35388214948756086
-0.5323618422725662
-0.433890287632549
-0.427735815467567
-0.3723455659825625
-0.35388214948756086
-0.34772767732255133
-0.37850003814754446
-0.7662317845426038
-0.6492968134075847
-0.37850003814754446
-0.28618295567253704
-0.2184837618575408
-0.2246382340225228
-0.17540245670252808
-0.18155692886753785
-0.1938658731975296
-0.18155692886753785
-0.18771140103251985
-0.18771140103251985
-0.2061748175275213
-0.2369471783525424
-0.2369471783525424
-0.21232928969253104
-0.2061748175275213
-0.21232928969253104
-0.1938658731975296
-0.18771140103251985
-0.18771140103251985
-0.18771140103251985
-0.18155692886753785
-0.18155692886753785
-0.18771140103251985
-0.1692479845375183
-0.1692479845375183
-0.17540245670252808
-0.18771140103251985
-0.18771140103251985
-0.18155692886753785
-0.2061748175275213
-0.2246382340225228
-0.23079270618753256
-0.23079270618753256
-0.2369471783525424
-0.23079270618753256
-0.2246382340225228
-0.21232928969253104
-0.21232928969253104
-0.2184837618575408
-0.21232928969253104
-0.2184837618575408
-0.23079270618753256
-0.23079270618753256
-0.21232928969253104
-0.17540245670252808
-0.1384756237125251
-0.08923984639250257
-0.04615854123751762
-0.05231301340249961
-0.07693090206251085
-0.12001220721752358
-0.1938658731975296
-0.28618295567253704
-0.3292642608275498
-0.3415732051575415
-0.35388214948756086
-0.34772767732255133
-0.33541873299255964
-0.2984919000025288
-0.24925612268253405
-0.2369471783525424
-0.2246382340225228
-0.2061748175275213
-0.23079270618753256
-0.2369471783525424
-0.24925612268253405
-0.24925612268253405
-0.2369471783525424
-0.2431016505175243
-0.2554105948475438
-0.26156506701252585
-0.2738740113425453
-0.26156506701252585
-0.26156506701252585
-0.26156506701252585
-0.26156506701252585
-0.26156506701252585
-0.2554105948475438
-0.2369471783525424
-0.2184837618575408
-0.21232928969253104
-0.1938658731975296
-0.17540245670252808
-0.17540245670252808
-0.18155692886753785
-0.15693904020752658
-0.14463009587750708
-0.1261666793825056
-0.10770326288750408
-0.10770326288750408
-0.07693090206251085
-0.02769512474251612
-0.02154065257750637
-0.05846748556750937
-0.08923984639250257
-0.08923984639250257
-0.1015487907225221
-0.09539431855751236
-0.08308537422752059
-0.08308537422752059
-0.05231301340249961
-0.009231708247514623
0.009231708247514623
0.033849596907498114
0.05846748556750937
0.0707764298975011
0.06462195773251911
0.05846748556750937
0.05231301340249961
0.04000406907250786
0.04000406907250786
0.02154065257750637
0.02154065257750637
0.003077236082504875
-0.01538618041249662
-0.04000406907250786
-0.05846748556750937
-0.08923984639250257
-0.12001220721752358
-0.12001220721752358
-0.12001220721752358
-0.1261666793825056
-0.16309351237253633
-0.1692479845375183
-0.1692479845375183
-0.1692479845375183
-0.17540245670252808
-0.18771140103251985
-0.1938658731975296
-0.18771140103251985
-0.1692479845375183
-0.11385773505251384
-0.09539431855751236
-0.06462195773251911
-0.05231301340249961
-0.033849596907498114
-0.02769512474251612
-0.033849596907498114
-0.01538618041249662
-0.003077236082504875
0.003077236082504875
0.02769512474251612
0.04615854123751762
0.033849596907498114
-0.05231301340249961
0.01538618041249662
0.07693090206251085
0.09539431855751236
0.08923984639250257
0.09539431855751236
0.08923984639250257
0.10770326288750408
0.12001220721752358
0.12001220721752358
0.08923984639250257
0.0707764298975011
0.05231301340249961
0.05846748556750937
0.05231301340249961
0.05846748556750937
0.04615854123751762
0.02769512474251612
0.02154065257750637
-0.003077236082504875
-0.033849596907498114
-0.06462195773251911
-0.08923984639250257
-0.1015487907225221
-0.10770326288750408
-0.13232115154751534
-0.17540245670252808
-0.2000203453625393
-0.1938658731975296
-0.1938658731975296
-0.18771140103251985
-0.1938658731975296
-0.2246382340225228
-0.2431016505175243
-0.2000203453625393
-0.1692479845375183
-0.15078456804251686
-0.15078456804251686
-0.14463009587750708
-0.14463009587750708
-0.15693904020752658
-0.15693904020752658
-0.15078456804251686
-0.11385773505251384
-0.08923984639250257
-0.15693904020752658
-0.21232928969253104
-0.2431016505175243
-0.26156506701252585
-0.2738740113425453
-0.2738740113425453
-0.2738740113425453
-0.2800284835075273
-0.2800284835075273
-0.28618295567253704
-0.28618295567253704
-0.2984919000025288
-0.28618295567253704
-0.28618295567253704
-0.28618295567253704
-0.30464637216753854
-0.29233742783754685
-0.2800284835075273
-0.31695531649755804
-0.33541873299255964
-0.35388214948756086
-0.36619109381755277
-0.3292642608275498
0.6185244525825918
-0.37850003814754446
-1.0924188092876486
-0.4523537041275505
-0.4523537041275505
-0.3723455659825625
-0.36619109381755277
-0.390808982477564
-0.31695531649755804
-0.40927239897256545
-0.42158134330255725
-0.37850003814754446
-0.35388214948756086
-0.37850003814754446
-0.33541873299255964
-0.2984919000025288
-0.2738740113425453
-0.28618295567253704
-0.26771953917753555
-0.34772767732255133
-0.33541873299255964
-0.01538618041249662
0.46466264845757
-0.4523537041275505
-0.4154268711375475
-0.8831667556776225
-0.5323618422725662
-0.40927239897256545
-0.36619109381755277
-0.3415732051575415
-0.3292642608275498
-0.3723455659825625
-0.31695531649755804
-0.42158134330255725
-0.396963454642546
-0.3846545103125543
-0.42158134330255725
-0.433890287632549
-0.40311792680755576
-0.40311792680755576
-0.29233742783754685
-0.45850817629256013
-0.47697159278756174
-0.40311792680755576
-0.3723455659825625
-0.3846545103125543
-0.433890287632549
-0.3846545103125543
-0.1692479845375183
-0.4523537041275505
-0.4400447597975588
-0.4400447597975588
-0.45850817629256013
-0.4708171206225797
-0.5077439536125827
-0.49543500928256323
-0.44619923196256844
-0.5631342030975872
-0.5323618422725662
-0.5138984257775646
-0.5446707866025856
-0.6000610360875902
-0.5569797309325777
-0.5138984257775646
-0.5323618422725662
-0.7046870628925892
-0.6862236463975879
-0.6800691742326057
-0.6862236463975879
-0.6800691742326057
-0.6739147020675963
-0.6800691742326057
-0.6554512855725947
-0.6923781185625978
-0.6246789247476012
-0.6431423412426027
-0.6431423412426027
-0.6246789247476012
-0.6062155082525723
-0.538516314437576
-0.5077439536125827
-0.6123699804175823
-0.5569797309325777
-0.5631342030975872
-0.6616057577376044
-1.104727753617668
-0.05231301340249961
-0.11385773505251384
-0.3108008443325483
-0.427735815467567
-0.37850003814754446
-0.36619109381755277
-0.32310978866254003
-0.33541873299255964
-0.34772767732255133
-0.33541873299255964
-0.2738740113425453
-0.33541873299255964
-0.2738740113425453
-0.26156506701252585
-0.2800284835075273
-0.2800284835075273
-0.2554105948475438
-0.28618295567253704
-0.26771953917753555
-0.31695531649755804
-0.26771953917753555
-0.1692479845375183
-0.29233742783754685
-0.21232928969253104
-0.2184837618575408
-0.21232928969253104
-0.21232928969253104
-0.26156506701252585
-0.2554105948475438
-0.24925612268253405
-0.2184837618575408
-0.21232928969253104
-0.2184837618575408
-0.1938658731975296
-0.2000203453625393
-0.26771953917753555
-0.2184837618575408
-0.35388214948756086
-0.3292642608275498
-0.33541873299255964
-0.35388214948756086
-0.32310978866254003
-0.35388214948756086
-0.3846545103125543
-0.35388214948756086
-0.360036621652543
-0.360036621652543
-0.3415732051575415
-0.390808982477564
-0.3415732051575415
-0.36619109381755277
-0.42158134330255725
-0.45850817629256013
-0.4523537041275505
-0.4831260649525715
-0.46466264845757
-0.433890287632549
-0.1384756237125251
0.36619109381755277
-0.49543500928256323
-0.3846545103125543
-0.396963454642546
-0.3846545103125543
-0.360036621652543
-0.42158134330255725
-0.4523537041275505
-0.8647033391826209
-0.7293049515526008
-0.5446707866025856
-0.45850817629256013
-0.4400447597975588
-0.42158134330255725
-0.4400447597975588
-0.396963454642546
-0.4154268711375475
-0.427735815467567
-0.37850003814754446
-0.3846545103125543
-0.37850003814754446
-0.42158134330255725
-0.35388214948756086
-0.30464637216753854
-0.40927239897256545
-0.35388214948756086
-0.31695531649755804
-0.29233742783754685
-0.29233742783754685
-0.34772767732255133
-0.30464637216753854
-0.2431016505175243
-0.33541873299255964
-0.32310978866254003
-0.3108008443325483
-0.29233742783754685
-0.29233742783754685
-0.2184837618575408
-0.35388214948756086
-0.28618295567253704
-0.3108008443325483
-0.2431016505175243
-0.24925612268253405
-0.26156506701252585
-0.26771953917753555
-0.2800284835075273
-0.2800284835075273
-0.18771140103251985
-0.33541873299255964
-0.2984919000025288
-0.31695531649755804
-0.31695531649755804
-0.2246382340225228
-0.2061748175275213
-0.1938658731975296
-0.16309351237253633
-0.2800284835075273
-0.2246382340225228
-0.23079270618753256
-0.31695531649755804
-0.2738740113425453
-0.21232928969253104
-0.33541873299255964
-0.8277765061926179
0.0707764298975011
0.033849596907498114
-0.2000203453625393
-0.16309351237253633
-0.16309351237253633
-0.2000203453625393
-0.18771140103251985
-0.11385773505251384
-0.26156506701252585
-0.2800284835075273
-0.3108008443325483
-0.31695531649755804
-0.30464637216753854
-0.3292642608275498
-0.32310978866254003
-0.23079270618753256
-0.3415732051575415
-0.3846545103125543
-0.396963454642546
-0.44619923196256844
-0.390808982477564
-0.37850003814754446
-0.40927239897256545
-0.37850003814754446
-0.4892805371175811
-0.4523537041275505
-0.42158134330255725
-0.4400447597975588
-0.44619923196256844
-0.396963454642546
-0.37850003814754446
-0.360036621652543
-0.427735815467567
-0.3108008443325483
-0.433890287632549
-0.4400447597975588
-0.46466264845757
-0.4831260649525715
-0.47697159278756174
0.396963454642546
-0.5200528979425745
-0.5323618422725662
-0.47697159278756174
-0.45850817629256013
-0.42158134330255725
-0.40311792680755576
-0.433890287632549
-0.8031586175326066
-0.5631342030975872
-0.3846545103125543
-0.396963454642546
-0.390808982477564
-0.3723455659825625
-0.36619109381755277
-0.360036621652543
-0.33541873299255964
-0.44619923196256844
-0.11385773505251384
0.5631342030975872
-0.5939065639225805
-0.390808982477564
-0.396963454642546
-0.37850003814754446
-0.7723862567076134
-0.8093130896976164
-0.538516314437576
-0.5077439536125827
-0.4892805371175811
-0.46466264845757
-0.4892805371175811
-0.4831260649525715
-0.5262073701075842
-0.5631342030975872
-0.4892805371175811
-0.5015894814475731
-0.46466264845757
-0.5077439536125827
-0.5631342030975872
-0.6000610360875902
-0.5077439536125827
-0.5077439536125827
-0.4708171206225797
-0.433890287632549
-0.427735815467567
-0.4523537041275505
-0.4708171206225797
-0.433890287632549
-0.45850817629256013
-0.5077439536125827
-0.46466264845757
-0.45850817629256013
-0.44619923196256844
-0.30464637216753854
-0.01538618041249662
-0.26771953917753555
-0.34772767732255133
-0.30464637216753854
-0.3723455659825625
-0.390808982477564
-0.396963454642546
-0.427735815467567
-0.37850003814754446
-0.360036621652543
-0.4154268711375475
-0.40311792680755576
-0.37850003814754446
-0.3292642608275498
-0.6246789247476012
-0.9693293659876481
-0.6000610360875902
-0.40927239897256545
-0.390808982477564
-0.35388214948756086
-0.33541873299255964
-0.33541873299255964
-0.3292642608275498
-0.2800284835075273
-0.32310978866254003
-0.2554105948475438
-0.3108008443325483
-0.46466264845757
-0.9570204216576284
0.1261666793825056
-0.1015487907225221
-0.28618295567253704
-0.2984919000025288
-0.2554105948475438
-0.390808982477564
-0.3415732051575415
-0.31695531649755804
-0.360036621652543
-0.3292642608275498
-0.29233742783754685
-0.2554105948475438
-0.21232928969253104
-0.2984919000025288
-0.2738740113425453
-0.16309351237253633
-0.2738740113425453
-0.2800284835075273
-0.29233742783754685
-0.2554105948475438
-0.15693904020752658
-0.31695531649755804
-0.2984919000025288
-0.28618295567253704
-0.28618295567253704
-0.29233742783754685
-0.26156506701252585
-0.2369471783525424
-0.17540245670252808
-0.28618295567253704
-0.15693904020752658
-0.1261666793825056
-0.15693904020752658
-0.18155692886753785
-0.18155692886753785
-0.24925612268253405
-0.2184837618575408
-0.3108008443325483
-0.2800284835075273
-0.2800284835075273
-0.29233742783754685
-0.29233742783754685
-0.29233742783754685
-0.31695531649755804
-0.2554105948475438
-0.46466264845757
-0.4831260649525715
-0.360036621652543
-0.32310978866254003
-0.3108008443325483
-0.28618295567253704
-0.2554105948475438
-0.2000203453625393
-0.30464637216753854
-0.2984919000025288
-0.32310978866254003
-0.3292642608275498
-0.033849596907498114
0.6062155082525723
-0.5508252587675677
-0.6308333969125834
-0.8770122835126126
-0.5138984257775646
-0.3846545103125543
-0.3415732051575415
-0.3108008443325483
-0.2738740113425453
-0.2431016505175243
-0.23079270618753256
-0.3723455659825625
-0.36619109381755277
-0.3723455659825625
-0.37850003814754446
-0.37850003814754446
-0.3292642608275498
-0.3292642608275498
-0.28618295567253704
-0.360036621652543
-0.3415732051575415
-0.35388214948756086
-0.36619109381755277
-0.3415732051575415
-0.33541873299255964
-0.3108008443325483
-0.3108008443325483
-0.37850003814754446
-0.3846545103125543
-0.34772767732255133
-0.33541873299255964
-0.3723455659825625
-0.427735815467567
-0.3846545103125543
-0.35388214948756086
-0.40927239897256545
-0.36619109381755277
-0.3415732051575415
-0.33541873299255964
-0.3415732051575415
-0.3723455659825625
-0.35388214948756086
-0.32310978866254003
-0.396963454642546
-0.42158134330255725
-0.3846545103125543
-0.21232928969253104
-0.29233742783754685
-0.35388214948756086
-0.35388214948756086
-0.32310978866254003
-0.360036621652543
-0.36619109381755277
-0.360036621652543
-0.34772767732255133
-0.34772767732255133
-0.36619109381755277
-0.32310978866254003
-0.33541873299255964
-0.3723455659825625
-0.37850003814754446
-0.2800284835075273
-0.433890287632549
-0.9939472546476313
-0.04615854123751762
-0.04615854123751762
-0.2984919000025288
-0.4154268711375475
-0.396963454642546
-0.3292642608275498
-0.3415732051575415
-0.34772767732255133
-0.35388214948756086
-0.3108008443325483
-0.360036621652543
-0.396963454642546
-0.40311792680755576
-0.42158134330255725
-0.35388214948756086
-0.3292642608275498
-0.3292642608275498
-0.2800284835075273
-0.3292642608275498
-0.30464637216753854
-0.23079270618753256
-0.21232928969253104
-0.2369471783525424
-0.2554105948475438
-0.26156506701252585
-0.2369471783525424
-0.26156506701252585
-0.14463009587750708
-0.30464637216753854
-0.2431016505175243
-0.2184837618575408
-0.24925612268253405
-0.26156506701252585
-0.18155692886753785
-0.2431016505175243
-0.2369471783525424
-0.21232928969253104
-0.1938658731975296
-0.18771140103251985
-0.21232928969253104
-0.24925612268253405
-0.2061748175275213
-0.24925612268253405
-0.31695531649755804
-0.2984919000025288
-0.30464637216753854
-0.26771953917753555
-0.26771953917753555
-0.26156506701252585
-0.1692479845375183
-0.34772767732255133
-0.29233742783754685
-0.2738740113425453
-0.30464637216753854
-0.3415732051575415
-0.3723455659825625
-0.33541873299255964
0.1015487907225221
0.4831260649525715
-0.4523537041275505
-0.3108008443325483
-0.33541873299255964
-0.28618295567253704
-0.2738740113425453
-0.26771953917753555
-0.4831260649525715
-0.9262480608326351
-0.5508252587675677
-0.3846545103125543
-0.3723455659825625
-0.37850003814754446
-0.2061748175275213
0.26771953917753555
0.04000406907250786
-0.23079270618753256
-0.23079270618753256
-0.2369471783525424
-0.2738740113425453
-0.30464637216753854
-0.3108008443325483
-0.2800284835075273
-0.2061748175275213
-0.30464637216753854
-0.2984919000025288
-0.2984919000025288
-0.3108008443325483
-0.40927239897256545
-0.5877520917575707
-0.390808982477564
-0.26771953917753555
-0.40311792680755576
-0.396963454642546
-0.34772767732255133
-0.33541873299255964
-0.33541873299255964
-0.3108008443325483
-0.32310978866254003
-0.26156506701252585
-0.36619109381755277
-0.33541873299255964
-0.34772767732255133
-0.46466264845757
-0.6739147020675963
-0.5077439536125827
-0.40311792680755576
-0.2800284835075273
-0.40927239897256545
-0.45850817629256013
-0.34772767732255133
-0.36619109381755277
-0.36619109381755277
-0.33541873299255964
-0.26156506701252585
0.5631342030975872
-0.9262480608326351
-0.04615854123751762
0.07693090206251085
-0.1938658731975296
-0.23079270618753256
-0.2184837618575408
-0.26771953917753555
-0.6677602299025862
-0.8216220340276081
-0.47697159278756174
-0.42158134330255725
-0.44619923196256844
-0.427735815467567
-0.40927239897256545
-0.396963454642546
-0.3723455659825625
-0.44619923196256844
-0.33541873299255964
-0.3846545103125543
-0.42158134330255725
-0.360036621652543
-0.35388214948756086
-0.36619109381755277
-0.3846545103125543
-0.5262073701075842
-0.4892805371175811
-0.5015894814475731
-0.4154268711375475
-0.3846545103125543
-0.40927239897256545
-0.3846545103125543
-0.40927239897256545
-0.31695531649755804
-0.18771140103251985
-0.2369471783525424
-0.30464637216753854
-0.3292642608275498
-0.2984919000025288
-0.26156506701252585
-0.32310978866254003
-0.35388214948756086
-0.33541873299255964
-0.2984919000025288
-0.3108008443325483
-0.3415732051575415
-0.3846545103125543
-0.28618295567253704
-0.433890287632549
-0.5631342030975872
-0.36619109381755277
-0.3292642608275498
-0.33541873299255964
-0.3415732051575415
-0.35388214948756086
-0.3108008443325483
-0.32310978866254003
-0.34772767732255133
-0.3415732051575415
-0.33541873299255964
-0.36619109381755277
-0.360036621652543
-0.3292642608275498
-0.7970041453676248
-0.396963454642546
0.09539431855751236
0.08308537422752059
0.6616057577376044
-0.6308333969125834
-0.3846545103125543
-0.2554105948475438
-0.3292642608275498
-0.8523943948526291
-0.6246789247476012
-0.4154268711375475
-0.3723455659825625
-0.35388214948756086
-0.29233742783754685
-0.2554105948475438
-0.21232928969253104
-0.3292642608275498
-0.3415732051575415
-0.32310978866254003
-0.3108008443325483
-0.396963454642546
-0.4708171206225797
-0.538516314437576
-0.5077439536125827
-0.5939065639225805
-0.5200528979425745
-0.4831260649525715
-0.5200528979425745
-0.5015894814475731
-0.5323618422725662
-0.49543500928256323
-0.390808982477564
-0.46466264845757
-0.396963454642546
-0.40927239897256545
-0.35388214948756086
-0.35388214948756086
-0.42158134330255725
-0.427735815467567
-0.3108008443325483
-0.433890287632549
-0.4400447597975588
-0.40311792680755576
-0.36619109381755277
-0.33541873299255964
-0.3415732051575415
-0.3846545103125543
-0.3108008443325483
-0.4154268711375475
-0.35388214948756086
-0.360036621652543
-0.396963454642546
-0.4154268711375475
-0.4154268711375475
-0.42158134330255725
-0.3292642608275498
-0.46466264845757
-0.44619923196256844
-0.37850003814754446
-0.5015894814475731
-0.4708171206225797
-0.4154268711375475
-0.390808982477564
-0.35388214948756086
-0.4523537041275505
-0.5508252587675677
-1.0370285598026439
-0.0707764298975011
-0.10770326288750408
-0.35388214948756086
-0.34772767732255133
-0.3415732051575415
-0.4523537041275505
-0.29233742783754685
-0.34772767732255133
-0.396963454642546
-0.4154268711375475
-0.3723455659825625
-0.36619109381755277
-0.31695531649755804
-0.3415732051575415
-0.30464637216753854
-0.3292642608275498
-0.36619109381755277
-0.40927239897256545
-0.390808982477564
-0.3846545103125543
-0.36619109381755277
-0.3723455659825625
-0.2984919000025288
-0.34772767732255133
-0.37850003814754446
-0.396963454642546
-0.37850003814754446
-0.3723455659825625
-0.26156506701252585
-0.28618295567253704
-0.2431016505175243
-0.2800284835075273
-0.30464637216753854
-0.2554105948475438
-0.2184837618575408
-0.2800284835075273
-0.34772767732255133
-0.45850817629256013
-0.34772767732255133
-0.360036621652543
-0.37850003814754446
-0.34772767732255133
-0.32310978866254003
-0.29233742783754685
-0.2738740113425453
-0.33541873299255964
-0.3292642608275498
-0.360036621652543
-0.3415732051575415
-0.360036621652543
-0.3292642608275498
-0.26771953917753555
-0.34772767732255133
-0.37850003814754446
-0.3723455659825625
-0.3292642608275498
-0.30464637216753854
0.01538618041249662
0.7046870628925892
-0.5200528979425745
-0.8031586175326066
-0.7231504793875909
-0.44619923196256844
-0.36619109381755277
-0.34772767732255133
-0.30464637216753854
-0.28618295567253704
-0.2984919000025288
-0.26771953917753555
-0.29233742783754685
-0.2800284835075273
-0.2738740113425453
-0.33541873299255964
-0.390808982477564
-0.5015894814475731
-0.4892805371175811
-0.433890287632549
-0.4831260649525715
-0.34772767732255133
-0.26771953917753555
-0.2061748175275213
-0.2061748175275213
-0.2738740113425453
-0.23079270618753256
-0.28618295567253704
-0.35388214948756086
-0.32310978866254003
-0.360036621652543
-0.3846545103125543
-0.360036621652543
-0.35388214948756086
-0.34772767732255133
-0.40311792680755576
-0.3292642608275498
-0.2800284835075273
-0.18771140103251985
-0.08308537422752059
-0.2554105948475438
-0.29233742783754685
0.1015487907225221
-0.390808982477564
-0.6369878690775933
-0.31695531649755804
-0.28618295567253704
-0.26156506701252585
-0.28618295567253704
-0.390808982477564
-0.3415732051575415
-0.40311792680755576
-0.390808982477564
-0.42158134330255725
-0.5939065639225805
-0.4523537041275505
-0.34772767732255133
-0.31695531649755804
-0.2800284835075273
-0.34772767732255133
-0.26771953917753555
-0.29233742783754685
-0.33541873299255964
-0.40927239897256545
-0.9447114773276367
0.04000406907250786
0.02154065257750637
-0.31695531649755804
-0.1384756237125251
-0.1015487907225221
-0.23079270618753256
-0.2800284835075273
-0.2738740113425453
-0.2738740113425453
-0.21232928969253104
-0.32310978866254003
-0.2554105948475438
-0.2061748175275213
-0.23079270618753256
-0.26156506701252585
-0.28618295567253704
-0.28618295567253704
-0.2061748175275213
-0.34772767732255133
-0.2984919000025288
-0.2246382340225228
-0.24925612268253405
-0.30464637216753854
-0.26771953917753555
-0.2369471783525424
-0.2246382340225228
-0.34772767732255133
-0.2800284835075273
-0.28618295567253704
-0.30464637216753854
-0.26156506701252585
-0.18771140103251985
-0.1692479845375183
-0.1692479845375183
-0.2800284835075273
-0.2738740113425453
-0.23079270618753256
-0.2184837618575408
-0.23079270618753256
-0.21232928969253104
-0.23079270618753256
-0.16309351237253633
-0.24925612268253405
-0.2431016505175243
-0.2800284835075273
-0.2984919000025288
-0.2800284835075273
-0.24925612268253405
-0.2184837618575408
-0.1692479845375183
-0.26771953917753555
-0.23079270618753256
-0.2061748175275213
-0.21232928969253104
-0.2369471783525424
-0.2184837618575408
-0.2000203453625393
0.15693904020752658
0.6616057577376044
-0.4892805371175811
-0.2800284835075273
-0.29233742783754685
-0.24925612268253405
-0.11385773505251384
-0.1384756237125251
0.08923984639250257
-1.3324432237226955
0.02769512474251612
-0.003077236082504875
-0.2061748175275213
-0.1938658731975296
-0.24925612268253405
-0.26156506701252585
-0.6492968134075847
-0.7539228402126119
-0.40311792680755576
-0.3108008443325483
-0.28618295567253704
-0.40311792680755576
-0.390808982477564
-0.26771953917753555
-0.2246382340225228
-0.30464637216753854
-0.24925612268253405
-0.23079270618753256
-0.26771953917753555
-0.2554105948475438
-0.23079270618753256
-0.23079270618753256
-0.2554105948475438
-0.34772767732255133
-0.2738740113425453
-0.28618295567253704
-0.4892805371175811
-0.3846545103125543
-0.26156506701252585
-0.2246382340225228
-0.2061748175275213
-0.2800284835075273
-0.26156506701252585
-0.2184837618575408
-0.2246382340225228
-0.21232928969253104
-0.16309351237253633
-0.1261666793825056
-0.08923984639250257
-0.04000406907250786
0.1384756237125251
0.15693904020752658
0.0707764298975011
0.1015487907225221
0.07693090206251085
0.0707764298975011
0.04615854123751762
0.0707764298975011
0.08923984639250257
0.08923984639250257
0.09539431855751236
0.11385773505251384
0.1692479845375183
0.26156506701252585
0.26156506701252585
0.30464637216753854
0.3108008443325483
0.28618295567253704
0.2984919000025288
0.32310978866254003
0.3415732051575415
0.2738740113425453
0.3723455659825625
0.5262073701075842
0.538516314437576
0.5138984257775646
0.5077439536125827
0.5077439536125827
0.49543500928256323
0.5138984257775646
0.5631342030975872
0.6185244525825918
0.6492968134075847
0.5877520917575707
0.4831260649525715
0.3723455659825625
0.28618295567253704
0.18155692886753785
0.1015487907225221
0.360036621652543
0.2246382340225228
0.12001220721752358
0.07693090206251085
0.04000406907250786
0.033849596907498114
0.033849596907498114
0.04615854123751762
0.05231301340249961
0.04000406907250786
0.033849596907498114
0.02154065257750637
0.01538618041249662
0.01538618041249662
0.003077236082504875
-0.003077236082504875
0.01538618041249662
0.02154065257750637
0.04615854123751762
0.05231301340249961
0.04615854123751762
0.033849596907498114
0.04000406907250786
0.033849596907498114
0.033849596907498114
0.003077236082504875
-0.02154065257750637
0.009231708247514623
-0.003077236082504875
-0.04000406907250786
-0.07693090206251085
-0.08308537422752059
-0.07693090206251085
-0.05846748556750937
-0.04000406907250786
-0.05231301340249961
-0.14463009587750708
-0.1938658731975296
-0.26156506701252585
-0.28618295567253704
-0.30464637216753854
-0.3292642608275498
-0.35388214948756086
-0.37850003814754446
-0.390808982477564
-0.3846545103125543
-0.3723455659825625
-0.3846545103125543
-0.33541873299255964
-0.2984919000025288
-0.360036621652543
-0.45850817629256013
-0.5323618422725662
-0.575443147427579
-0.6123699804175823
-0.6123699804175823
-0.6000610360875902
-0.538516314437576
-0.4708171206225797
-0.427735815467567
-0.4400447597975588
-0.427735815467567
-0.44619923196256844
-0.4708171206225797
-0.4831260649525715
-0.4831260649525715
-0.46466264845757
-0.390808982477564
-0.360036621652543
-0.30464637216753854
-0.2246382340225228
-0.35388214948756086
-0.40311792680755576
-0.427735815467567
-0.427735815467567
-0.433890287632549
-0.4400447597975588
-0.44619923196256844
-0.44619923196256844
-0.4523537041275505
-0.4400447597975588
-0.40927239897256545
-0.40927239897256545
-0.427735815467567
-0.427735815467567
-0.45850817629256013
-0.5262073701075842
-0.5508252587675677
-0.5815976195925888
-0.5877520917575707
-0.5569797309325777
-0.47697159278756174
-0.4400447597975588
-0.40927239897256545
-0.390808982477564
-0.37850003814754446
-0.3723455659825625
-0.360036621652543
-0.3723455659825625
-0.4154268711375475
-0.3846545103125543
-0.32310978866254003
-0.26771953917753555
-0.2738740113425453
-0.3108008443325483
-0.2984919000025288
-0.31695531649755804
-0.33541873299255964
-0.24925612268253405
-0.16309351237253633
-0.08308537422752059
-0.02769512474251612
0.04000406907250786
0.08308537422752059
0.06462195773251911
-0.003077236082504875
-0.02154065257750637
-0.05846748556750937
-0.13232115154751534
-0.18155692886753785
-0.21232928969253104
-0.2369471783525424
-0.2738740113425453
-0.3292642608275498
-0.35388214948756086
-0.30464637216753854
-0.2431016505175243
-0.2184837618575408
-0.2184837618575408
-0.2061748175275213
-0.18771140103251985
-0.15693904020752658
-0.11385773505251384
-0.09539431855751236
-0.0707764298975011
0.01538618041249662
0.08308537422752059
0.11385773505251384
0.10770326288750408
0.11385773505251384
0.1384756237125251
0.2000203453625393
0.2184837618575408
0.2000203453625393
0.11385773505251384
0.01538618041249662
0.009231708247514623
0.1015487907225221
0.26771953917753555
0.40311792680755576
0.396963454642546
0.360036621652543
0.36619109381755277
0.35388214948756086
0.360036621652543
0.34772767732255133
0.2800284835075273
0.30464637216753854
0.29233742783754685
0.32310978866254003
0.34772767732255133
0.3723455659825625
0.37850003814754446
0.42158134330255725
0.4708171206225797
0.4831260649525715
0.4400447597975588
0.4400447597975588
0.47697159278756174
0.47697159278756174
0.4831260649525715
0.4892805371175811
0.5015894814475731
0.49543500928256323
0.5015894814475731
0.5138984257775646
0.5138984257775646
0.5077439536125827
0.49543500928256323
0.49543500928256323
0.5569797309325777
0.6123699804175823
0.6677602299025862
0.6985325907276074
0.6554512855725947
0.6616057577376044
0.6554512855725947
0.5446707866025856
0.2061748175275213
0.02154065257750637
-0.13232115154751534
-0.1692479845375183
-0.2061748175275213
-0.21232928969253104
-0.2184837618575408
-0.2554105948475438
-0.2184837618575408
-0.13232115154751534
-0.31695531649755804
-0.29233742783754685
-0.2984919000025288
-0.2738740113425453
-0.2984919000025288
-0.28618295567253704
-0.2984919000025288
-0.29233742783754685
-0.40927239897256545
-0.3415732051575415
-0.2738740113425453
-0.33541873299255964
-0.3846545103125543
-0.36619109381755277
-0.31695531649755804
-0.2738740113425453
-0.360036621652543
-0.396963454642546
-0.36619109381755277
-0.360036621652543
-0.5077439536125827
-0.9693293659876481
0.05846748556750937
0.06462195773251911
-0.2800284835075273
-0.26771953917753555
-0.29233742783754685
-0.28618295567253704
-0.2800284835075273
-0.2800284835075273
-0.24925612268253405
-0.18771140103251985
-0.2984919000025288
-0.2554105948475438
-0.24925612268253405
-0.21232928969253104
-0.1692479845375183
-0.11385773505251384
-0.033849596907498114
0.6246789247476012
-0.2246382340225228
-0.08923984639250257
-0.05846748556750937
-0.05846748556750937
-0.0707764298975011
-0.07693090206251085
-0.04615854123751762
-0.427735815467567
-0.4523537041275505
-0.16309351237253633
-0.11385773505251384
-0.13232115154751534
-0.1015487907225221
-0.1015487907225221
-0.08308537422752059
-0.12001220721752358
-0.1692479845375183
-0.1384756237125251
-0.15693904020752658
-0.17540245670252808
-0.21232928969253104
-0.2061748175275213
-0.18155692886753785
-0.18155692886753785
-0.23079270618753256
-0.21232928969253104
-0.23079270618753256
-0.24925612268253405
-0.2184837618575408
-0.2000203453625393
-0.2000203453625393
-0.2369471783525424
-0.24925612268253405
-0.2246382340225228
-0.24925612268253405
-0.23079270618753256
-0.26771953917753555
-0.26771953917753555
-0.15693904020752658
0.1384756237125251
0.5631342030975872
-0.26771953917753555
-0.10770326288750408
-0.1384756237125251
-0.1384756237125251
-0.17540245670252808
-0.2246382340225228
-0.7108415350575992
-0.5015894814475731
-0.24925612268253405
-0.2000203453625393
-0.1384756237125251
-0.2061748175275213
-0.17540245670252808
-0.1015487907225221
-0.15693904020752658
-0.14463009587750708
-0.11385773505251384
-0.1261666793825056
-0.1261666793825056
-0.12001220721752358
-0.1261666793825056
-0.1261666793825056
-0.2431016505175243
-0.23079270618753256
-0.1938658731975296
-0.2738740113425453
-0.4523537041275505
-0.4892805371175811
-0.4708171206225797
0.05846748556750937
-0.3846545103125543
-0.7539228402126119
-0.4892805371175811
-0.45850817629256013
-0.5262073701075842
-0.5138984257775646
-0.5015894814475731
-0.427735815467567
-0.4154268711375475
-0.2184837618575408
-0.17540245670252808
-0.24925612268253405
-0.2369471783525424
-0.3108008443325483
-0.33541873299255964
-0.2800284835075273
-0.396963454642546
-0.40311792680755576
-0.3846545103125543
-0.360036621652543
-0.33541873299255964
-0.34772767732255133
-0.42158134330255725
-0.2800284835075273
-0.18771140103251985
0.1692479845375183
-0.14463009587750708
-0.29233742783754685
-0.40927239897256545
-0.5446707866025856
-0.45850817629256013
-0.3723455659825625
-0.9939472546476313
-0.01538618041249662
-0.08923984639250257
-0.3723455659825625
-0.42158134330255725
-0.433890287632549
-0.44619923196256844
-0.5631342030975872
-0.9631748938226381
-0.6800691742326057
-0.5815976195925888
-0.5569797309325777
-0.6062155082525723
-0.575443147427579
-0.46466264845757
-0.45850817629256013
-0.6123699804175823
-0.5446707866025856
-0.538516314437576
-0.5262073701075842
-0.5015894814475731
-0.5077439536125827
-0.396963454642546
-0.36619109381755277
-0.46466264845757
-0.5200528979425745
-0.6677602299025862
-0.5692886752625692
-0.42158134330255725
-0.45850817629256013
-0.5200528979425745
-0.5077439536125827
-0.6062155082525723
-0.5692886752625692
-0.575443147427579
-0.7108415350575992
-0.7785407288726233
-0.7231504793875909
-0.6431423412426027
-0.5569797309325777
-0.7785407288726233
-0.9877927824826491
-1.0924188092876486
-1.0985732814526583
-1.104727753617668
-1.1478090587726528
-1.1231911701126696
-0.9693293659876481
-0.8093130896976164
-0.6431423412426027
-0.7108415350575992
-0.7846952010376053
-0.7970041453676248
-0.895475700007614
-0.9754838381526297
-1.0493375041326358
-1.1970448360926755
-1.104727753617668
-0.7785407288726233
-0.2984919000025288
-1.2585895577426898
-1.073955392792647
-1.1662724752676545
-1.5724676381577152
-1.6709391927977324
-1.467841611352716
-1.4432237226927047
-1.437069250527695
-1.3570611123826792
-1.2585895577426898
-1.1970448360926755
-1.0554919762976458
-0.9508659494926462
-0.9262480608326351
-1.0678009206276373
-1.000101726812641
-1.0678009206276373
-1.3016708628976748
-1.4062968897027015
-1.504768444342719
-1.615548943312728
-1.6401668319727392
-1.830955469087764
-2.255614048472826
-2.4648661020828517
-2.477175046412844
-2.4217847969278394
-2.298695353627811
-2.0955977721827947
-1.892500190737778
-1.5293863330027024
-1.2832074464026733
-1.1601180031026725
-1.0801098649576568
-1.0062561989776508
-1.1170366979476598
-1.400142417537692
-1.2647440299076718
-1.0185651433076426
-0.9447114773276367
-1.0247196154726523
-1.1231911701126696
-1.1970448360926755
-1.221662724752659
-1.2708985020726815
-1.3078253350626845
-1.3078253350626845
-1.3016708628976748
-1.3078253350626845
-1.4186058340326935
-1.5170773886727107
-1.5293863330027024
-1.504768444342719
-1.4986139721777092
-1.5416952773327224
-1.5724676381577152
-1.5724676381577152
-1.590931054652717
-1.7017115536227536
-1.7140204979527456
-1.6401668319727392
-1.5540042216627135
-1.5478497494977315
-1.6340123598077294
-1.7263294422827367
-1.7263294422827367
-1.7140204979527456
-1.6709391927977324
-1.5232318608377204
-1.2031993082576575
-1.0862643371226666
-0.9385570051626267
-0.8154675618626261
-0.7785407288726233
-0.7785407288726233
-0.7970041453676248
-0.7539228402126119
-0.7108415350575992
-0.6862236463975879
-0.6923781185625978
-0.7600773123775938
-0.7970041453676248
-0.7846952010376053
-0.7600773123775938
-0.7354594237176102
-0.6862236463975879
-0.5569797309325777
-0.47697159278756174
-0.42158134330255725
-0.29233742783754685
-0.18155692886753785
-0.1015487907225221
-0.13232115154751534
-0.1015487907225221
0.08923984639250257
0.01538618041249662
-0.02769512474251612
-0.08308537422752059
-0.2369471783525424
-0.32310978866254003
-0.37850003814754446
-0.40311792680755576
-0.3108008443325483
0.01538618041249662
0.26156506701252585
0.3415732051575415
0.2800284835075273
0.21232928969253104
0.2984919000025288
0.4154268711375475
0.4708171206225797
0.5077439536125827
0.5138984257775646
0.5138984257775646
0.4708171206225797
0.5446707866025856
0.7046870628925892
0.7354594237176102
0.6985325907276074
0.7477683680476023
0.7846952010376053
0.8339309783576276
0.8585488670176111
0.8523943948526291
0.8647033391826209
0.8647033391826209
0.8400854505226096
0.8400854505226096
0.8523943948526291
0.8708578113476306
0.8277765061926179
0.7600773123775938
0.7108415350575992
0.7293049515526008
0.7662317845426038
0.7600773123775938
0.7477683680476023
0.7293049515526008
0.7108415350575992
0.7046870628925892
0.6800691742326057
0.6000610360875902
0.5200528979425745
0.47697159278756174
0.4523537041275505
0.433890287632549
0.42158134330255725
0.390808982477564
0.3846545103125543
0.3723455659825625
0.36619109381755277
0.36619109381755277
0.37850003814754446
0.36619109381755277
0.3415732051575415
0.31695531649755804
0.31695531649755804
0.28618295567253704
0.26156506701252585
0.2246382340225228
0.21232928969253104
0.2431016505175243
0.24925612268253405
0.24925612268253405
0.2369471783525424
0.23079270618753256
0.2000203453625393
0.10770326288750408
0.009231708247514623
-0.08923984639250257
-0.17540245670252808
-0.2984919000025288
-0.396963454642546
-0.396963454642546
-0.28618295567253704
-0.18771140103251985
-0.12001220721752358
-0.09539431855751236
-0.13232115154751534
-0.24925612268253405
-0.396963454642546
-0.44619923196256844
-0.427735815467567
-0.40927239897256545
-0.3723455659825625
-0.31695531649755804
-0.2431016505175243
-0.2184837618575408
-0.04615854123751762
0.1384756237125251
0.2184837618575408
0.2554105948475438
0.2738740113425453
0.29233742783754685
0.2984919000025288
0.2246382340225228
0.06462195773251911
0.033849596907498114
0.07693090206251085
0.2000203453625393
0.3108008443325483
0.36619109381755277
0.3846545103125543
0.4400447597975588
0.5446707866025856
0.6123699804175823
0.6185244525825918
0.6123699804175823
0.6185244525825918
0.6677602299025862
0.6800691742326057
0.6739147020675963
0.6985325907276074
0.6985325907276074
0.7108415350575992
0.6923781185625978
0.6616057577376044
0.6062155082525723
0.6062155082525723
0.6185244525825918
0.6492968134075847
0.6800691742326057
0.6985325907276074
0.6985325907276074
0.6923781185625978
0.6800691742326057
0.6800691742326057
0.6800691742326057
0.6800691742326057
0.6616057577376044
0.6554512855725947
0.6616057577376044
0.6616057577376044
0.6616057577376044
0.6554512855725947
0.6554512855725947
0.6308333969125834
0.6246789247476012
0.6123699804175823
0.5877520917575707
0.5692886752625692
0.5446707866025856
0.5323618422725662
0.5138984257775646
0.5138984257775646
0.5138984257775646
0.5015894814475731
0.46466264845757
0.44619923196256844
0.40927239897256545
0.37850003814754446
0.37850003814754446
0.3723455659825625
0.35388214948756086
0.34772767732255133
0.34772767732255133
0.3292642608275498
0.31695531649755804
0.31695531649755804
0.3108008443325483
0.2738740113425453
0.2554105948475438
0.26156506701252585
0.2554105948475438
0.2554105948475438
0.2554105948475438
0.2369471783525424
0.2369471783525424
0.2369471783525424
0.23079270618753256
0.2184837618575408
0.21232928969253104
0.2061748175275213
0.2000203453625393
0.18155692886753785
0.15693904020752658
0.17540245670252808
0.17540245670252808
0.15693904020752658
0.1384756237125251
0.13232115154751534
0.1384756237125251
0.15078456804251686
0.13232115154751534
0.12001220721752358
0.12001220721752358
0.11385773505251384
0.12001220721752358
0.1261666793825056
0.11385773505251384
0.09539431855751236
0.1015487907225221
0.10770326288750408
0.09539431855751236
0.11385773505251384
0.14463009587750708
0.14463009587750708
0.1261666793825056
0.13232115154751534
0.13232115154751534
0.13232115154751534
0.1261666793825056
0.09539431855751236
0.0707764298975011
0.05231301340249961
0.04000406907250786
0.033849596907498114
0.033849596907498114
0.009231708247514623
-0.003077236082504875
0.009231708247514623
0.02769512474251612
0.033849596907498114
0.04000406907250786
-0.003077236082504875
-0.0707764298975011
-0.06462195773251911
-0.05231301340249961
-0.06462195773251911
-0.05846748556750937
-0.08923984639250257
-0.1384756237125251
-0.15693904020752658
-0.1384756237125251
-0.13232115154751534
-0.17540245670252808
-0.29233742783754685
-0.2984919000025288
-0.23079270618753256
-0.2184837618575408
-0.23079270618753256
-0.23079270618753256
-0.2246382340225228
-0.18155692886753785
-0.1384756237125251
-0.14463009587750708
-0.10770326288750408
-0.0707764298975011
-0.06462195773251911
-0.0707764298975011
-0.05231301340249961
-0.04000406907250786
-0.033849596907498114
-0.02154065257750637
-0.033849596907498114
-0.04615854123751762
-0.04615854123751762
-0.033849596907498114
-0.05846748556750937
-0.1261666793825056
-0.08923984639250257
-0.08308537422752059
-0.07693090206251085
-0.06462195773251911
-0.05846748556750937
-0.05231301340249961
-0.08308537422752059
-0.12001220721752358
-0.1384756237125251
-0.14463009587750708
-0.14463009587750708
-0.12001220721752358
-0.10770326288750408
-0.08923984639250257
-0.09539431855751236
-0.0707764298975011
0.01538618041249662
0.06462195773251911
0.08308537422752059
0.06462195773251911
0.09539431855751236
0.0707764298975011
0.05846748556750937
0.003077236082504875
-0.12001220721752358
-0.2246382340225228
-0.2246382340225228
-0.18771140103251985
-0.18771140103251985
-0.17540245670252808
-0.15693904020752658
-0.14463009587750708
-0.18155692886753785
-0.21232928969253104
-0.17540245670252808
-0.15693904020752658
-0.15078456804251686
-0.17540245670252808
-0.17540245670252808
-0.15693904020752658
-0.1384756237125251
-0.13232115154751534
-0.13232115154751534
-0.14463009587750708
-0.18155692886753785
-0.15693904020752658
-0.16309351237253633
-0.2246382340225228
-0.26156506701252585
-0.2738740113425453
-0.2369471783525424
-0.23079270618753256
-0.2369471783525424
-0.24925612268253405
-0.2738740113425453
-0.2984919000025288
-0.3108008443325483
-0.31695531649755804
-0.35388214948756086
-0.44619923196256844
-0.5015894814475731
-0.49543500928256323
-0.40927239897256545
-0.3723455659825625
-0.40927239897256545
-0.5446707866025856
-0.6554512855725947
-0.5815976195925888
-0.5077439536125827
-0.45850817629256013
-0.40927239897256545
-0.433890287632549
-0.5446707866025856
-0.5692886752625692
-0.5939065639225805
-0.6062155082525723
-0.5939065639225805
-0.7908496732026148
-1.0062561989776508
-1.2031993082576575
-1.3509066402176972
-1.467841611352716
-1.473996083517698
-1.4124513618677115
-1.5847765824877347
-1.6093944711477182
-1.4863050278477177
-1.6401668319727392
-2.015589634037779
-2.2186872154828228
-2.114061188677796
-1.9971262175427773
-2.003280689707787
-1.8740367742427766
-1.7140204979527456
-1.689402609292734
-2.0217441062027888
-2.114061188677796
-1.9294270237277809
-1.861727829912757
-1.8801912464077586
-1.892500190737778
-1.8863457185727683
-2.114061188677796
-2.5325652958978484
-2.631036850537866
-2.2679229928028177
-2.1571424938328088
-2.138679077337807
-1.9417359680577726
-1.818646524757745
-1.818646524757745
-1.830955469087764
-1.892500190737778
-1.954044912387765
-1.9786628010477763
-2.064825411357801
-2.1017522443478045
-2.064825411357801
-2.1632969659978185
-2.329467714452832
-2.3848579639378364
-2.323313242287821
-2.212532743317813
-1.972508328882766
-1.7878741639327511
-1.818646524757745
-1.7694107474377496
-1.6278578876427194
-1.510922916507701
-1.504768444342719
-1.6647847206327224
-1.7817196917677414
-1.8371099412527454
-1.830955469087764
-1.6955570814577436
-1.689402609292734
-1.7817196917677414
-1.954044912387765
-1.9478904402227823
-1.7878741639327511
-1.7386383866127564
-1.7386383866127564
-1.7324839144477464
-1.7632562752727399
-1.7509473309427481
-1.6709391927977324
-1.6340123598077294
-1.6217034154777374
-1.6217034154777374
-1.6217034154777374
-1.6340123598077294
-1.6217034154777374
-1.4863050278477177
-1.4062968897027015
-1.504768444342719
-1.6217034154777374
-1.677093664962742
-1.7017115536227536
-1.6463213041377216
-1.5170773886727107
-1.3693700567126987
-1.141654586607671
-0.9324025329976448
-0.889321227842632
-0.8339309783576276
-0.8585488670176111
-0.9200935886676254
-0.9385570051626267
-1.0431830319676536
-1.141654586607671
-1.1601180031026725
-1.1539635309376628
-1.178581419597674
-1.2031993082576575
-1.1662724752676545
-1.0554919762976458
-1.1478090587726528
-1.3324432237226955
-1.1662724752676545
-1.0185651433076426
-0.8647033391826209
-0.7477683680476023
-0.7169960072226089
-0.6862236463975879
-0.6739147020675963
-0.7046870628925892
-0.6800691742326057
-0.6492968134075847
-0.6185244525825918
-0.5631342030975872
-0.49543500928256323
-0.4892805371175811
-0.6000610360875902
-0.5939065639225805
-0.6185244525825918
-0.7846952010376053
-0.6923781185625978
-0.538516314437576
-0.40311792680755576
-0.42158134330255725
-0.4400447597975588
-0.44619923196256844
-0.3415732051575415
-0.2554105948475438
-0.1692479845375183
-0.08308537422752059
-0.06462195773251911
-0.01538618041249662
0.003077236082504875
-0.06462195773251911
-0.17540245670252808
-0.2738740113425453
-0.24925612268253405
-0.18771140103251985
-0.12001220721752358
-0.04000406907250786
0.033849596907498114
0.08308537422752059
0.1015487907225221
0.1384756237125251
0.14463009587750708
0.1384756237125251
0.08923984639250257
0.05846748556750937
0.04000406907250786
0.04615854123751762
0.05846748556750937
0.02769512474251612
0.01538618041249662
-0.003077236082504875
0.01538618041249662
0.01538618041249662
-0.02769512474251612
-0.05846748556750937
-0.06462195773251911
-0.10770326288750408
-0.2061748175275213
-0.1938658731975296
-0.1261666793825056
-0.1015487907225221
-0.09539431855751236
-0.05846748556750937
-0.02769512474251612
-0.02154065257750637
-0.003077236082504875
-0.02154065257750637
-0.05231301340249961
-0.08308537422752059
-0.08923984639250257
-0.10770326288750408
-0.14463009587750708
-0.15078456804251686
-0.1015487907225221
-0.10770326288750408
-0.11385773505251384
-0.05846748556750937
0.02154065257750637
0.1384756237125251
0.2061748175275213
0.2184837618575408
0.2431016505175243
0.1938658731975296
0.07693090206251085
-0.05231301340249961
-0.1384756237125251
-0.18155692886753785
-0.18155692886753785
-0.18155692886753785
-0.23079270618753256
-0.2554105948475438
-0.2246382340225228
-0.18155692886753785
-0.09539431855751236
-0.05846748556750937
-0.0707764298975011
-0.033849596907498114
0.07693090206251085
0.1261666793825056
0.10770326288750408
0.13232115154751534
0.1261666793825056
0.0707764298975011
0.003077236082504875
-0.05846748556750937
-0.04000406907250786
-0.003077236082504875
0.009231708247514623
-0.003077236082504875
-0.04615854123751762
-0.0707764298975011
-0.08923984639250257
-0.11385773505251384
-0.05846748556750937
-0.003077236082504875
0.033849596907498114
0.04615854123751762
0.04615854123751762
0.05231301340249961
0.07693090206251085
0.05846748556750937
0.033849596907498114
0.009231708247514623
0.003077236082504875
0.04000406907250786
0.04615854123751762
-0.003077236082504875
-0.033849596907498114
-0.1261666793825056
-0.18155692886753785
-0.1015487907225221
0.05846748556750937
0.15078456804251686
0.2000203453625393
0.16309351237253633
0.18155692886753785
0.23079270618753256
0.26156506701252585
0.2800284835075273
0.2984919000025288
0.2984919000025288
0.2800284835075273
0.2431016505175243
0.2800284835075273
0.29233742783754685
0.18771140103251985
0.15078456804251686
0.2369471783525424
0.29233742783754685
0.32310978866254003
0.2738740113425453
0.18771140103251985
0.1261666793825056
0.09539431855751236
0.033849596907498114
0.04615854123751762
0.12001220721752358
0.12001220721752358
0.08923984639250257
-0.02154065257750637
-0.16309351237253633
-0.23079270618753256
-0.2800284835075273
-0.30464637216753854
-0.28618295567253704
-0.26156506701252585
-0.28618295567253704
-0.2554105948475438
-0.1384756237125251
-0.07693090206251085
-0.14463009587750708
-0.1692479845375183
-0.14463009587750708
-0.13232115154751534
-0.1384756237125251
-0.14463009587750708
-0.10770326288750408
-0.07693090206251085
-0.06462195773251911
-0.05231301340249961
0.01538618041249662
0.11385773505251384
0.14463009587750708
0.14463009587750708
0.1384756237125251
0.10770326288750408
0.09539431855751236
0.09539431855751236
0.1015487907225221
0.1015487907225221
0.08308537422752059
0.04000406907250786
-0.003077236082504875
-0.08923984639250257
-0.08308537422752059
-0.06462195773251911
-0.01538618041249662
-0.003077236082504875
-0.01538618041249662
0.003077236082504875
-0.02769512474251612
-0.04000406907250786
-0.033849596907498114
-0.04000406907250786
-0.033849596907498114
-0.04615854123751762
-0.04615854123751762
-0.05846748556750937
-0.05846748556750937
-0.04000406907250786
-0.05231301340249961
-0.02154065257750637
0.04000406907250786
0.05231301340249961
0.06462195773251911
0.01538618041249662
0.003077236082504875
-0.06462195773251911
-0.17540245670252808
-0.26156506701252585
-0.26771953917753555
-0.2369471783525424
-0.2000203453625393
-0.1692479845375183
-0.12001220721752358
-0.07693090206251085
-0.033849596907498114
-0.003077236082504875
0.003077236082504875
-0.05231301340249961
-0.1384756237125251
-0.1384756237125251
-0.12001220721752358
-0.08923984639250257
-0.12001220721752358
-0.2554105948475438
-0.35388214948756086
-0.360036621652543
-0.3723455659825625
-0.4892805371175811
-0.5692886752625692
-0.5446707866025856
-0.47697159278756174
-0.44619923196256844
-0.4400447597975588
-0.45850817629256013
-0.4708171206225797
-0.47697159278756174
-0.44619923196256844
-0.42158134330255725
-0.4154268711375475
-0.390808982477564
-0.32310978866254003
-0.2738740113425453
-0.26156506701252585
-0.2184837618575408
-0.1938658731975296
-0.2369471783525424
-0.2554105948475438
-0.2554105948475438
-0.2369471783525424
-0.18771140103251985
-0.04615854123751762
0.02769512474251612
0.009231708247514623
-0.05231301340249961
-0.1261666793825056
-0.2369471783525424
-0.32310978866254003
-0.3292642608275498
-0.30464637216753854
-0.30464637216753854
-0.33541873299255964
-0.31695531649755804
-0.2184837618575408
-0.17540245670252808
-0.15078456804251686
-0.15693904020752658
-0.1692479845375183
-0.2061748175275213
-0.28618295567253704
-0.3846545103125543
-0.34772767732255133
-0.18771140103251985
-0.003077236082504875
0.08923984639250257
0.12001220721752358
0.05231301340249961
-0.05846748556750937
-0.08308537422752059
-0.14463009587750708
-0.15078456804251686
-0.13232115154751534
-0.23079270618753256
-0.45850817629256013
-0.5200528979425745
-0.4831260649525715
-0.49543500928256323
-0.47697159278756174
-0.5508252587675677
-0.7539228402126119
-0.9324025329976448
-1.1601180031026725
-1.2462806134126705
-1.2708985020726815
-1.2770529742376913
-1.2462806134126705
-1.1970448360926755
-1.178581419597674
-1.1539635309376628
-1.1662724752676545
-1.1908903639276658
-1.1293456422776516
-0.9816383103176396
-1.215508252587677
-1.4124513618677115
-1.4247603061977032
-1.39398794537271
-1.2708985020726815
-1.178581419597674
-1.0985732814526583
-1.0062561989776508
-0.9570204216576284
-0.9324025329976448
-0.9816383103176396
-1.0185651433076426
-0.9939472546476313
-1.0431830319676536
-1.3201342793926762
-1.4616871391877062
-1.3385976958876775
-1.178581419597674
-1.1355001144426613
-1.073955392792647
-1.0370285598026439
-1.0124106711426328
-1.0062561989776508
-1.0308740876376343
-1.0247196154726523
-1.0185651433076426
-1.000101726812641
-0.9200935886676254
-0.889321227842632
-0.889321227842632
-0.8708578113476306
-0.9631748938226381
-1.0124106711426328
-0.9324025329976448
-0.9262480608326351
-0.9631748938226381
-0.9200935886676254
-0.8831667556776225
-0.8585488670176111
-0.8462399226876194
-0.9077846443376336
-1.0124106711426328
-1.0493375041326358
-0.9939472546476313
-0.901630172172624
-0.895475700007614
-0.8647033391826209
-0.8154675618626261
-0.8093130896976164
-0.8154675618626261
-0.8277765061926179
-0.8339309783576276
-0.8277765061926179
-0.8585488670176111
-0.895475700007614
-0.895475700007614
-0.889321227842632
-0.9139391165026156
-0.9139391165026156
-0.889321227842632
-0.9077846443376336
-0.9077846443376336
-0.9139391165026156
-0.889321227842632
-0.8770122835126126
-0.8831667556776225
-0.901630172172624
-0.8831667556776225
-0.8647033391826209
-0.8462399226876194
-0.8400854505226096
-0.8216220340276081
-0.8339309783576276
-0.8093130896976164
-0.7970041453676248
-0.8031586175326066
-0.7723862567076134
-0.6862236463975879
-0.5877520917575707
-0.5200528979425745
-0.46466264845757
-0.46466264845757
-0.5077439536125827
-0.5692886752625692
-0.6616057577376044
-0.7600773123775938
-0.7970041453676248
-0.7846952010376053
-0.7785407288726233
-0.8216220340276081
-0.8585488670176111
-0.8585488670176111
-0.8339309783576276
-0.7846952010376053
-0.7539228402126119
-0.7108415350575992
-0.6616057577376044
-0.6431423412426027
-0.6185244525825918
-0.6185244525825918
-0.6062155082525723
-0.5877520917575707
-0.5815976195925888
-0.5569797309325777
-0.5446707866025856
-0.538516314437576
-0.5138984257775646
-0.4892805371175811
-0.5015894814475731
-0.5077439536125827
-0.47697159278756174
-0.46466264845757
-0.47697159278756174
-0.42158134330255725
-0.36619109381755277
-0.30464637216753854
-0.3415732051575415
-0.360036621652543
-0.31695531649755804
-0.2738740113425453
-0.2554105948475438
-0.26771953917753555
-0.2800284835075273
-0.2800284835075273
-0.2738740113425453
-0.24925612268253405
-0.26771953917753555
-0.31695531649755804
-0.3292642608275498
-0.3415732051575415
-0.36619109381755277
-0.3846545103125543
-0.3723455659825625
-0.360036621652543
-0.36619109381755277
-0.35388214948756086
-0.31695531649755804
-0.3108008443325483
-0.2800284835075273
-0.2184837618575408
-0.2000203453625393
-0.21232928969253104
-0.23079270618753256
-0.24925612268253405
-0.2554105948475438
-0.24925612268253405
-0.24925612268253405
-0.2554105948475438
-0.26771953917753555
-0.26771953917753555
-0.26771953917753555
-0.28618295567253704
-0.2984919000025288
-0.31695531649755804
-0.32310978866254003
-0.35388214948756086
-0.37850003814754446
-0.3723455659825625
-0.36619109381755277
-0.390808982477564
-0.5631342030975872
-0.6554512855725947
-0.6739147020675963
-0.6677602299025862
-0.6123699804175823
-0.575443147427579
-0.5877520917575707
-0.5692886752625692
-0.538516314437576
-0.5262073701075842
-0.575443147427579
-0.5877520917575707
-0.5939065639225805
-0.6985325907276074
-0.6923781185625978
-0.6492968134075847
-0.6739147020675963
-0.7169960072226089
-0.7169960072226089
-0.7169960072226089
-0.6985325907276074
-0.6554512855725947
-0.6246789247476012
-0.5939065639225805
-0.6062155082525723
-0.6123699804175823
-0.5877520917575707
-0.5323618422725662
-0.49543500928256323
-0.45850817629256013
-0.46466264845757
-0.5015894814475731
-0.538516314437576
-0.5446707866025856
-0.5569797309325777
-0.5446707866025856
-0.5323618422725662
-0.5015894814475731
-0.49543500928256323
-0.47697159278756174
-0.4708171206225797
-0.4523537041275505
-0.45850817629256013
-0.4708171206225797
-0.4892805371175811
-0.5015894814475731
-0.47697159278756174
-0.4523537041275505
-0.44619923196256844
-0.4400447597975588
-0.4400447597975588
-0.4523537041275505
-0.49543500928256323
-0.5446707866025856
-0.5508252587675677
-0.5323618422725662
-0.5323618422725662
-0.5262073701075842
-0.6062155082525723
-0.6923781185625978
-0.6985325907276074
-0.6308333969125834
-0.5508252587675677
-0.390808982477564
-0.3108008443325483
-0.3108008443325483
-0.2738740113425453
-0.26156506701252585
-0.26771953917753555
-0.2738740113425453
-0.28618295567253704
-0.2800284835075273
-0.28618295567253704
-0.28618295567253704
-0.2800284835075273
-0.26771953917753555
-0.2184837618575408
-0.18771140103251985
-0.18155692886753785
-0.1692479845375183
-0.21232928969253104
-0.2738740113425453
-0.31695531649755804
-0.33541873299255964
-0.30464637216753854
-0.3292642608275498
-0.32310978866254003
-0.2246382340225228
-0.2184837618575408
-0.033849596907498114
-0.04000406907250786
-0.2246382340225228
-0.31695531649755804
-0.3846545103125543
-0.44619923196256844
-0.4892805371175811
-0.44619923196256844
-0.35388214948756086
-0.2369471783525424
-0.17540245670252808
-0.13232115154751534
-0.1261666793825056
-0.1692479845375183
-0.2554105948475438
-0.37850003814754446
-0.4154268711375475
-0.4154268711375475
-0.433890287632549
-0.49543500928256323
-0.5508252587675677
-0.5569797309325777
-0.49543500928256323
-0.6000610360875902
-0.5877520917575707
-0.5877520917575707
-0.6308333969125834
-0.8523943948526291
-0.8277765061926179
-0.6000610360875902
-0.5877520917575707
-0.49543500928256323
-0.5077439536125827
-0.40311792680755576
-0.3292642608275498
-0.5569797309325777
-0.6985325907276074
-0.6431423412426027
-0.5815976195925888
-0.4892805371175811
-0.390808982477564
-0.36619109381755277
-0.360036621652543
-0.33541873299255964
-0.32310978866254003
-0.31695531649755804
-0.31695531649755804
-0.3108008443325483
-0.30464637216753854
-0.2984919000025288
-0.29233742783754685
-0.2984919000025288
-0.30464637216753854
-0.31695531649755804
-0.2984919000025288
-0.2738740113425453
-0.2984919000025288
-0.37850003814754446
-0.40311792680755576
-0.390808982477564
-0.3846545103125543
-0.3846545103125543
-0.3723455659825625
-0.35388214948756086
-0.35388214948756086
-0.35388214948756086
-0.34772767732255133
-0.33541873299255964
-0.360036621652543
-0.3723455659825625
-0.390808982477564
-0.4154268711375475
-0.40927239897256545
-0.42158134330255725
-0.44619923196256844
-0.44619923196256844
-0.44619923196256844
-0.4400447597975588
-0.44619923196256844
-0.427735815467567
-0.42158134330255725
-0.427735815467567
-0.427735815467567
-0.3846545103125543
-0.36619109381755277
-0.3846545103125543
-0.4154268711375475
-0.3846545103125543
-0.28618295567253704
-0.2061748175275213
-0.15693904020752658
-0.14463009587750708
-0.17540245670252808
-0.18155692886753785
-0.13232115154751534
-0.18155692886753785
-0.2246382340225228
-0.21232928969253104
-0.1384756237125251
-0.08308537422752059
-0.04615854123751762
-0.04000406907250786
-0.02769512474251612
-0.06462195773251911
-0.11385773505251384
-0.1015487907225221
-0.11385773505251384
-0.13232115154751534
-0.11385773505251384
-0.05231301340249961
-0.04000406907250786
-0.04000406907250786
-0.11385773505251384
-0.18155692886753785
-0.18155692886753785
-0.18771140103251985
-0.2061748175275213
-0.16309351237253633
-0.14463009587750708
-0.11385773505251384
-0.1015487907225221
-0.09539431855751236
-0.11385773505251384
-0.12001220721752358
-0.10770326288750408
-0.1015487907225221
-0.09539431855751236
-0.08308537422752059
-0.07693090206251085
-0.08308537422752059
-0.09539431855751236
-0.10770326288750408
-0.1015487907225221
-0.11385773505251384
-0.1261666793825056
-0.1261666793825056
-0.10770326288750408
-0.10770326288750408
-0.1261666793825056
-0.1384756237125251
-0.1384756237125251
-0.11385773505251384
-0.1015487907225221
-0.13232115154751534
-0.13232115154751534
-0.14463009587750708
-0.15078456804251686
-0.15078456804251686
-0.18771140103251985
-0.18771140103251985
-0.1692479845375183
-0.15078456804251686
-0.18155692886753785
-0.18771140103251985
-0.17540245670252808
-0.17540245670252808
-0.1938658731975296
-0.14463009587750708
-0.1015487907225221
-0.1384756237125251
-0.26156506701252585
-0.3846545103125543
-0.47697159278756174
-0.5569797309325777
-0.5569797309325777
-0.5077439536125827
-0.5692886752625692
-0.6246789247476012
-0.5692886752625692
-0.6185244525825918
-0.6800691742326057
-0.7846952010376053
-1.0431830319676536
-1.1662724752676545
-0.9816383103176396
-0.8585488670176111
-0.8031586175326066
-0.7662317845426038
-0.7785407288726233
-0.7600773123775938
-0.7416138958825924
-0.7477683680476023
-0.7600773123775938
-0.7600773123775938
-0.7600773123775938
-0.8093130896976164
-0.8708578113476306
-0.7231504793875909
-0.5508252587675677
-0.433890287632549
-0.2738740113425453
-0.2431016505175243
-0.18771140103251985
-0.33541873299255964
-0.8339309783576276
-0.9077846443376336
-0.7477683680476023
-0.6062155082525723
-0.5015894814475731
-0.4708171206225797
-0.5323618422725662
-0.5569797309325777
-0.6000610360875902
-0.7169960072226089
-0.8154675618626261
-0.7723862567076134
-0.5692886752625692
-0.40311792680755576
-0.40927239897256545
-0.46466264845757
-0.2000203453625393
-0.11385773505251384
-0.2061748175275213
-0.24925612268253405
-0.2369471783525424
-0.29233742783754685
-0.35388214948756086
-0.33541873299255964
-0.09539431855751236
-0.009231708247514623
-0.02154065257750637
0.18155692886753785
0.23079270618753256
-0.003077236082504875
-0.2000203453625393
-0.2800284835075273
-0.2554105948475438
-0.2984919000025288
-0.2431016505175243
-0.13232115154751534
-0.04615854123751762
-0.04615854123751762
-0.2738740113425453
-0.2369471783525424
-0.08923984639250257
-0.10770326288750408
-0.033849596907498114
0.08308537422752059
0.10770326288750408
0.04000406907250786
-0.05846748556750937
-0.07693090206251085
-0.05846748556750937
-0.02154065257750637
-0.23079270618753256
-0.4154268711375475
-0.5323618422725662
-0.5138984257775646
-0.40311792680755576
-0.35388214948756086
-0.34772767732255133
-0.34772767732255133
-0.3292642608275498
-0.3108008443325483
-0.3292642608275498
-0.3415732051575415
-0.36619109381755277
-0.3723455659825625
-0.4400447597975588
-0.4708171206225797
-0.47697159278756174
-0.6246789247476012
-0.7723862567076134
-0.7785407288726233
-0.7416138958825924
-0.6862236463975879
-0.5815976195925888
-0.4400447597975588
-0.44619923196256844
-0.433890287632549
-0.3292642608275498
-0.3108008443325483
-0.29233742783754685
-0.30464637216753854
-0.31695531649755804
-0.29233742783754685
-0.2738740113425453
-0.2369471783525424
-0.2369471783525424
-0.2369471783525424
-0.26156506701252585
-0.390808982477564
-0.3846545103125543
-0.33541873299255964
-0.29233742783754685
-0.23079270618753256
-0.23079270618753256
-0.31695531649755804
-0.26771953917753555
-0.14463009587750708
-0.04615854123751762
0.003077236082504875
-0.1015487907225221
-0.1692479845375183
-0.0707764298975011
-0.10770326288750408
-0.09539431855751236
-0.05231301340249961
-0.02769512474251612
0.003077236082504875
0.003077236082504875
0.07693090206251085
0.1261666793825056
0.2061748175275213
0.3415732051575415
0.36619109381755277
0.40311792680755576
0.47697159278756174
0.49543500928256323
0.5077439536125827
0.5262073701075842
0.49543500928256323
0.47697159278756174
0.46466264845757
0.4400447597975588
0.4154268711375475
0.4400447597975588
0.4831260649525715
0.5692886752625692
0.6062155082525723
0.5815976195925888
0.5446707866025856
0.4400447597975588
0.4154268711375475
0.396963454642546
0.40927239897256545
0.37850003814754446
0.34772767732255133
0.3846545103125543
0.4400447597975588
0.433890287632549
0.33541873299255964
0.28618295567253704
0.10770326288750408
-0.15078456804251686
-0.2246382340225228
-0.12001220721752358
-0.003077236082504875
0.08923984639250257
0.18155692886753785
0.24925612268253405
0.26771953917753555
0.2738740113425453
0.29233742783754685
0.3108008443325483
0.26156506701252585
0.2061748175275213
0.18771140103251985
0.26771953917753555
0.24925612268253405
0.18155692886753785
0.17540245670252808
0.23079270618753256
0.1938658731975296
0.18771140103251985
0.2246382340225228
0.1938658731975296
0.1692479845375183
0.11385773505251384
0.05846748556750937
-0.003077236082504875
-0.02154065257750637
-0.01538618041249662
0.01538618041249662
0.08308537422752059
0.05846748556750937
0.033849596907498114
-0.003077236082504875
-0.05231301340249961
-0.08923984639250257
-0.08308537422752059
-0.14463009587750708
-0.1938658731975296
-0.30464637216753854
-0.35388214948756086
-0.3846545103125543
-0.40927239897256545
-0.37850003814754446
-0.28618295567253704
-0.24925612268253405
-0.2738740113425453
-0.26156506701252585
-0.13232115154751534
-0.1015487907225221
-0.18771140103251985
-0.2061748175275213
-0.2184837618575408
-0.2431016505175243
-0.2738740113425453
-0.29233742783754685
-0.35388214948756086
-0.32310978866254003
-0.26771953917753555
-0.2369471783525424
-0.2554105948475438
-0.2800284835075273
-0.26156506701252585
-0.2431016505175243
-0.2246382340225228
-0.18771140103251985
-0.2246382340225228
-0.24925612268253405
-0.28618295567253704
-0.3415732051575415
-0.2984919000025288
-0.2431016505175243
-0.2000203453625393
-0.2431016505175243
-0.29233742783754685
-0.2369471783525424
-0.18155692886753785
-0.2369471783525424
-0.24925612268253405
-0.24925612268253405
-0.35388214948756086
-0.33541873299255964
-0.3415732051575415
-0.360036621652543
-0.2984919000025288
-0.2000203453625393
-0.1938658731975296
-0.26771953917753555
-0.2431016505175243
-0.15078456804251686
-0.10770326288750408
-0.009231708247514623
0.08308537422752059
0.05846748556750937
-0.07693090206251085
-0.01538618041249662
0.04000406907250786
0.02769512474251612
0.033849596907498114
-0.11385773505251384
-0.21232928969253104
-0.1938658731975296
-0.2061748175275213
-0.26156506701252585
-0.2554105948475438
-0.2369471783525424
-0.21232928969253104
-0.2369471783525424
-0.2184837618575408
-0.10770326288750408
-0.12001220721752358
-0.2431016505175243
-0.2984919000025288
-0.2431016505175243
-0.1692479845375183
-0.17540245670252808
-0.16309351237253633
-0.11385773505251384
-0.2061748175275213
-0.2369471783525424
-0.08308537422752059
0.08308537422752059
0.2554105948475438
0.3292642608275498
0.3415732051575415
0.40311792680755576
0.33541873299255964
0.1261666793825056
0.18771140103251985
0.2984919000025288
0.3108008443325483
0.3108008443325483
0.30464637216753854
0.26156506701252585
0.2369471783525424
0.04615854123751762
0.02154065257750637
0.0707764298975011
0.02769512474251612
-0.05846748556750937
-0.06462195773251911
-0.033849596907498114
0.02154065257750637
0.0707764298975011
0.11385773505251384
0.1015487907225221
0.15078456804251686
0.18771140103251985
0.1692479845375183
0.10770326288750408
-0.1015487907225221
-0.2246382340225228
-0.2738740113425453
-0.2554105948475438
-0.2184837618575408
-0.2184837618575408
-0.11385773505251384
-0.05846748556750937
0.009231708247514623
0.02769512474251612
-0.009231708247514623
-0.08923984639250257
-0.18155692886753785
-0.2246382340225228
-0.2431016505175243
-0.2184837618575408
-0.15078456804251686
-0.08308537422752059
-0.02154065257750637
-0.033849596907498114
-0.05846748556750937
-0.04000406907250786
-0.05231301340249961
-0.08923984639250257
-0.13232115154751534
-0.14463009587750708
-0.12001220721752358
-0.13232115154751534
-0.13232115154751534
-0.1261666793825056
-0.11385773505251384
-0.07693090206251085
-0.05846748556750937
-0.0707764298975011
-0.0707764298975011
-0.06462195773251911
-0.06462195773251911
-0.04000406907250786
-0.0707764298975011
-0.1261666793825056
-0.1692479845375183
-0.2431016505175243
-0.33541873299255964
-0.3415732051575415
-0.2800284835075273
-0.2800284835075273
-0.34772767732255133
-0.36619109381755277
-0.390808982477564
-0.4523537041275505
-0.4892805371175811
-0.44619923196256844
-0.33541873299255964
-0.2738740113425453
-0.11385773505251384
0.009231708247514623
-0.0707764298975011
-0.1261666793825056
-0.04615854123751762
-0.003077236082504875
0.003077236082504875
-0.04000406907250786
-0.10770326288750408
-0.2800284835075273
-0.427735815467567
-0.433890287632549
-0.42158134330255725
-0.4523537041275505
-0.4831260649525715
-0.5077439536125827
-0.5323618422725662
-0.5815976195925888
-0.6677602299025862
-0.6431423412426027
-0.538516314437576
-0.433890287632549
-0.3415732051575415
-0.45850817629256013
-0.4892805371175811
-0.5138984257775646
-0.4831260649525715
-0.40311792680755576
-0.3415732051575415
-0.3292642608275498
-0.396963454642546
-0.4154268711375475
-0.46466264845757
-0.46466264845757
-0.5200528979425745
-0.538516314437576
-0.5138984257775646
-0.46466264845757
-0.46466264845757
-0.4892805371175811
-0.49543500928256323
-0.4708171206225797
-0.427735815467567
-0.40311792680755576
-0.390808982477564
-0.37850003814754446
-0.3723455659825625
-0.37850003814754446
-0.4523537041275505
-0.46466264845757
-0.40927239897256545
-0.34772767732255133
-0.29233742783754685
-0.2431016505175243
-0.1938658731975296
-0.1384756237125251
-0.08923984639250257
-0.04000406907250786
-0.05231301340249961
-0.08923984639250257
-0.09539431855751236
-0.12001220721752358
-0.11385773505251384
-0.11385773505251384
-0.12001220721752358
-0.15693904020752658
-0.2369471783525424
-0.29233742783754685
-0.2984919000025288
-0.13232115154751534
0.08923984639250257
0.2431016505175243
0.2246382340225228
0.2184837618575408
0.14463009587750708
0.07693090206251085
0.06462195773251911
0.02154065257750637
-0.009231708247514623
0.02154065257750637
-0.009231708247514623
-0.21232928969253104
-0.2431016505175243
-0.1938658731975296
-0.13232115154751534
-0.2246382340225228
-0.2369471783525424
-0.2554105948475438
-0.2738740113425453
-0.18155692886753785
-0.12001220721752358
-0.05231301340249961
-0.04615854123751762
-0.033849596907498114
0.08308537422752059
0.2184837618575408
0.2184837618575408
0.1938658731975296
0.2246382340225228
0.24925612268253405
0.2184837618575408
0.15078456804251686
0.15693904020752658
0.15693904020752658
0.11385773505251384
0.04000406907250786
-0.02769512474251612
-0.009231708247514623
0.009231708247514623
0.01538618041249662
-0.009231708247514623
-0.02769512474251612
-0.08308537422752059
-0.1015487907225221
0.01538618041249662
0.14463009587750708
0.18771140103251985
0.09539431855751236
0.08308537422752059
0.06462195773251911
-0.02769512474251612
-0.08923984639250257
-0.0707764298975011
-0.1938658731975296
-0.35388214948756086
-0.4154268711375475
-0.40927239897256545
-0.5323618422725662
-0.6616057577376044
-0.7477683680476023
-0.901630172172624
-0.8462399226876194
-0.396963454642546
-0.1384756237125251
0.01538618041249662
0.02154065257750637
0.01538618041249662
0.04000406907250786
0.13232115154751534
0.18771140103251985
0.1938658731975296
0.24925612268253405
0.28618295567253704
0.35388214948756086
0.2738740113425453
0.2184837618575408
0.2184837618575408
0.08308537422752059
-0.05846748556750937
-0.1261666793825056
-0.2800284835075273
-0.44619923196256844
-0.4831260649525715
-0.5323618422725662
-0.6000610360875902
-0.6369878690775933
-0.6000610360875902
-0.5077439536125827
-0.4523537041275505
-0.42158134330255725
-0.42158134330255725
-0.4154268711375475
-0.396963454642546
-0.42158134330255725
-0.427735815467567
-0.26771953917753555
-0.10770326288750408
-0.2000203453625393
-0.2061748175275213
-0.18155692886753785
-0.1015487907225221
0.009231708247514623
0.02154065257750637
0.11385773505251384
0.1938658731975296
0.2369471783525424
0.24925612268253405
0.12001220721752358
-0.02769512474251612
-0.033849596907498114
0.18771140103251985
0.32310978866254003
0.2431016505175243
0.18771140103251985
0.17540245670252808
0.26156506701252585
0.2554105948475438
0.14463009587750708
0.05231301340249961
0.08308537422752059
0.11385773505251384
0.0707764298975011
0.05231301340249961
0.033849596907498114
