-0.26771953917753555
-0.15078456804251686
-0.17540245670252808
-0.23079270618753256
0.06462195773251911
0.3723455659825625
0.003077236082504875
-0.05231301340249961
-0.08923984639250257
-0.1261666793825056
-0.15078456804251686
-0.15693904020752658
-0.1692479845375183
-0.09539431855751236
-0.2246382340225228
-0.1938658731975296
-0.17540245670252808
-0.1692479845375183
-0.1692479845375183
-0.40311792680755576
-0.6000610360875902
-0.24925612268253405
-0.32310978866254003
-0.2800284835075273
-0.26156506701252585
-0.23079270618753256
-0.2061748175275213
-0.18771140103251985
-0.1938658731975296
-0.1261666793825056
-0.2000203453625393
-0.18155692886753785
-0.2061748175275213
-0.2000203453625393
-0.16309351237253633
-0.14463009587750708
-0.10770326288750408
-0.09539431855751236
-0.2184837618575408
-0.14463009587750708
-0.11385773505251384
-0.10770326288750408
-0.14463009587750708
-0.15693904020752658
-0.1261666793825056
-0.10770326288750408
-0.2184837618575408
-0.2184837618575408
-0.2554105948475438
-0.12001220721752358
-0.2431016505175243
-0.2184837618575408
-0.18771140103251985
-0.1938658731975296
-0.3108008443325483
-0.2431016505175243
-0.21232928969253104
-0.21232928969253104
-0.3415732051575415
-0.895475700007614
0.16309351237253633
0.18771140103251985
-0.1692479845375183
-0.15693904020752658
-0.1692479845375183
-0.18155692886753785
-0.14463009587750708
-0.1384756237125251
-0.09539431855751236
-0.07693090206251085
-0.16309351237253633
-0.09539431855751236
-0.07693090206251085
-0.05846748556750937
-0.08308537422752059
-0.09539431855751236
-0.02769512474251612
-0.04615854123751762
-0.10770326288750408
-0.009231708247514623
-0.02769512474251612
-0.08923984639250257
-0.1261666793825056
-0.12001220721752358
-0.07693090206251085
-0.1384756237125251
-0.21232928969253104
-0.1692479845375183
-0.18155692886753785
-0.17540245670252808
-0.18771140103251985
-0.15693904020752658
-0.1261666793825056
-0.14463009587750708
-0.2431016505175243
-0.24925612268253405
-0.2246382340225228
-0.2061748175275213
-0.2000203453625393
-0.15693904020752658
-0.11385773505251384
-0.13232115154751534
-0.18771140103251985
-0.21232928969253104
-0.15078456804251686
-0.15693904020752658
-0.2246382340225228
-0.24925612268253405
-0.04000406907250786
0.3415732051575415
0.05231301340249961
-0.06462195773251911
-0.1015487907225221
-0.13232115154751534
-0.13232115154751534
-0.12001220721752358
-0.07693090206251085
0.21232928969253104
0.8647033391826209
-0.35388214948756086
-0.18155692886753785
-0.1384756237125251
-0.1384756237125251
-0.2061748175275213
0.04000406907250786
-0.7477683680476023
-0.8770122835126126
-0.42158134330255725
-0.31695531649755804
-0.26771953917753555
-0.24925612268253405
-0.24925612268253405
-0.1692479845375183
-0.24925612268253405
-0.2800284835075273
-0.2246382340225228
-0.2000203453625393
-0.2184837618575408
-0.28618295567253704
-0.396963454642546
-0.2000203453625393
-0.28618295567253704
-0.3108008443325483
-0.24925612268253405
-0.2554105948475438
-0.23079270618753256
-0.1692479845375183
-0.1692479845375183
-0.10770326288750408
-0.18771140103251985
-0.2000203453625393
-0.18155692886753785
-0.15078456804251686
-0.08923984639250257
-0.23079270618753256
-0.2431016505175243
-0.16309351237253633
-0.34772767732255133
-0.2800284835075273
-0.2246382340225228
-0.1938658731975296
-0.21232928969253104
-0.2246382340225228
-0.15693904020752658
-0.1015487907225221
-0.21232928969253104
-0.16309351237253633
-0.13232115154751534
-0.003077236082504875
-0.18155692886753785
-0.1938658731975296
-0.14463009587750708
-0.07693090206251085
-0.18155692886753785
-0.2000203453625393
-0.1938658731975296
-0.2000203453625393
-0.1938658731975296
-0.18155692886753785
-0.17540245670252808
-0.2431016505175243
-0.9754838381526297
0.0707764298975011
0.1261666793825056
-0.2000203453625393
-0.2061748175275213
-0.1692479845375183
-0.15078456804251686
-0.0707764298975011
-0.21232928969253104
-0.2431016505175243
-0.2431016505175243
-0.24925612268253405
-0.23079270618753256
-0.2184837618575408
-0.2061748175275213
-0.1015487907225221
-0.26156506701252585
-0.05846748556750937
-0.07693090206251085
-0.15078456804251686
-0.1261666793825056
-0.1015487907225221
-0.0707764298975011
-0.02769512474251612
-0.16309351237253633
-0.14463009587750708
-0.15078456804251686
-0.1261666793825056
-0.06462195773251911
-0.07693090206251085
-0.14463009587750708
-0.1015487907225221
-0.2246382340225228
-0.2000203453625393
-0.21232928969253104
-0.1692479845375183
-0.08308537422752059
-0.12001220721752358
-0.1015487907225221
-0.02154065257750637
-0.18155692886753785
-0.13232115154751534
-0.14463009587750708
-0.12001220721752358
-0.08923984639250257
-0.1261666793825056
-0.1261666793825056
-0.10770326288750408
-0.2984919000025288
-0.16309351237253633
-0.16309351237253633
-0.2184837618575408
-0.18155692886753785
-0.15078456804251686
-0.1261666793825056
-0.05846748556750937
-0.21232928969253104
-0.21232928969253104
0.1938658731975296
0.9139391165026156
-0.36619109381755277
-0.1015487907225221
-0.003077236082504875
-0.538516314437576
-0.5939065639225805
-0.2246382340225228
-0.15078456804251686
-0.18155692886753785
-0.14463009587750708
-0.13232115154751534
-0.11385773505251384
-0.08923984639250257
-0.2061748175275213
-0.15693904020752658
-0.17540245670252808
-0.2000203453625393
-0.08308537422752059
-0.09539431855751236
-0.1692479845375183
-0.1384756237125251
-0.18771140103251985
-0.14463009587750708
-0.15078456804251686
-0.15078456804251686
-0.1692479845375183
-0.1692479845375183
-0.10770326288750408
-0.17540245670252808
-0.30464637216753854
-0.2369471783525424
-0.2431016505175243
-0.09539431855751236
0.11385773505251384
-0.05231301340249961
-0.0707764298975011
-0.09539431855751236
-0.23079270618753256
-0.24925612268253405
-0.21232928969253104
-0.23079270618753256
-0.24925612268253405
-0.2184837618575408
-0.16309351237253633
-0.2061748175275213
-0.2369471783525424
-0.2061748175275213
-0.17540245670252808
-0.3723455659825625
-0.26156506701252585
-0.1692479845375183
-0.11385773505251384
-0.08923984639250257
-0.15693904020752658
-0.15078456804251686
-0.11385773505251384
-0.10770326288750408
-0.13232115154751534
-0.12001220721752358
-0.09539431855751236
-0.16309351237253633
-0.1692479845375183
-0.2800284835075273
-0.8523943948526291
0.18155692886753785
0.14463009587750708
-0.15693904020752658
0.1938658731975296
0.6123699804175823
-0.3292642608275498
-0.1692479845375183
-0.15078456804251686
-0.18155692886753785
-0.1261666793825056
-0.11385773505251384
-0.26156506701252585
-0.8154675618626261
-0.40927239897256545
-0.3415732051575415
-0.2984919000025288
-0.2369471783525424
-0.23079270618753256
-0.21232928969253104
-0.11385773505251384
-0.18771140103251985
-0.18155692886753785
-0.15693904020752658
-0.13232115154751534
-0.12001220721752358
-0.11385773505251384
-0.0707764298975011
0.04615854123751762
-0.08308537422752059
-0.18771140103251985
-0.11385773505251384
-0.06462195773251911
-0.06462195773251911
-0.07693090206251085
-0.05846748556750937
0.02769512474251612
-0.12001220721752358
-0.15693904020752658
-0.17540245670252808
-0.15693904020752658
-0.16309351237253633
-0.1261666793825056
-0.0707764298975011
0.3415732051575415
0.2061748175275213
0.08308537422752059
0.0707764298975011
0.02769512474251612
0.02154065257750637
0.033849596907498114
0.05846748556750937
0.15078456804251686
-0.05231301340249961
-0.04615854123751762
-0.02154065257750637
-0.04000406907250786
-0.08923984639250257
0.16309351237253633
0.2984919000025288
-0.8339309783576276
-0.9139391165026156
-0.49543500928256323
-0.30464637216753854
-0.23079270618753256
-0.2000203453625393
-0.2246382340225228
-0.2061748175275213
-0.11385773505251384
-0.23079270618753256
-0.1692479845375183
-0.17540245670252808
-0.2246382340225228
-0.2061748175275213
-0.14463009587750708
-0.14463009587750708
-0.1015487907225221
-0.2246382340225228
-0.17540245670252808
-0.16309351237253633
-0.14463009587750708
-0.14463009587750708
-0.14463009587750708
-0.09539431855751236
-0.05231301340249961
-0.2800284835075273
-0.2431016505175243
-0.2431016505175243
-0.1692479845375183
0.05846748556750937
-0.10770326288750408
-0.15078456804251686
-0.09539431855751236
-0.30464637216753854
-0.2369471783525424
-0.23079270618753256
-0.2061748175275213
-0.18155692886753785
-0.16309351237253633
-0.09539431855751236
-0.02769512474251612
-0.17540245670252808
-0.14463009587750708
-0.16309351237253633
-0.35388214948756086
-0.26156506701252585
-0.2061748175275213
-0.14463009587750708
-0.13232115154751534
-0.24925612268253405
-0.21232928969253104
-0.18155692886753785
-0.1692479845375183
-0.13232115154751534
-0.13232115154751534
-0.05846748556750937
-0.04615854123751762
-0.1938658731975296
-0.009231708247514623
0.11385773505251384
-0.04615854123751762
-0.2184837618575408
-0.7600773123775938
0.2738740113425453
0.3292642608275498
-0.01538618041249662
-0.04615854123751762
-0.009231708247514623
-0.02154065257750637
-0.0707764298975011
-0.05231301340249961
-0.02769512474251612
-0.07693090206251085
-0.1938658731975296
-0.33541873299255964
-0.2800284835075273
-0.17540245670252808
-0.15693904020752658
-0.15078456804251686
-0.11385773505251384
-0.1384756237125251
-0.15693904020752658
-0.13232115154751534
-0.15693904020752658
-0.15078456804251686
-0.18771140103251985
-0.26156506701252585
-0.2184837618575408
-0.1692479845375183
-0.26156506701252585
-0.3108008443325483
-0.2800284835075273
-0.2984919000025288
-0.24925612268253405
-0.28618295567253704
-0.2738740113425453
-0.26156506701252585
-0.3723455659825625
-0.33541873299255964
-0.28618295567253704
-0.28618295567253704
-0.37850003814754446
-0.3846545103125543
-0.2554105948475438
-0.2984919000025288
-0.35388214948756086
-0.31695531649755804
-0.28618295567253704
-0.3108008443325483
-0.2184837618575408
-0.24925612268253405
-0.18771140103251985
-0.2184837618575408
-0.2184837618575408
-0.23079270618753256
-0.2984919000025288
-0.2800284835075273
-0.26771953917753555
-0.15693904020752658
-0.0707764298975011
0.13232115154751534
0.7785407288726233
-0.40927239897256545
-0.2431016505175243
-0.2000203453625393
-0.17540245670252808
-0.2061748175275213
-0.3108008443325483
-0.8093130896976164
-0.5815976195925888
-0.40927239897256545
-0.360036621652543
-0.33541873299255964
-0.36619109381755277
-0.36619109381755277
-0.23079270618753256
-0.33541873299255964
-0.3108008443325483
-0.24925612268253405
-0.2738740113425453
-0.29233742783754685
-0.2738740113425453
-0.2738740113425453
-0.1938658731975296
-0.2984919000025288
-0.2984919000025288
-0.3292642608275498
-0.2738740113425453
0.24925612268253405
0.09539431855751236
-0.14463009587750708
-0.1015487907225221
-0.30464637216753854
-0.28618295567253704
-0.2554105948475438
-0.24925612268253405
-0.26156506701252585
-0.2738740113425453
-0.2554105948475438
-0.14463009587750708
-0.32310978866254003
-0.34772767732255133
-0.3723455659825625
-0.8647033391826209
-0.6862236463975879
-0.37850003814754446
-0.2554105948475438
-0.14463009587750708
-0.21232928969253104
-0.17540245670252808
-0.17540245670252808
-0.2000203453625393
-0.21232928969253104
-0.24925612268253405
-0.2554105948475438
-0.13232115154751534
-0.3292642608275498
-0.2431016505175243
-0.1015487907225221
-0.15693904020752658
-0.17540245670252808
-0.17540245670252808
-0.15078456804251686
-0.2369471783525424
-0.9385570051626267
0.12001220721752358
0.15693904020752658
-0.08923984639250257
-0.12001220721752358
-0.10770326288750408
-0.1261666793825056
-0.08308537422752059
-0.2554105948475438
-0.2431016505175243
-0.2246382340225228
-0.1938658731975296
-0.18771140103251985
-0.17540245670252808
-0.15693904020752658
-0.06462195773251911
-0.1938658731975296
-0.1384756237125251
-0.06462195773251911
-0.1015487907225221
-0.16309351237253633
-0.2061748175275213
-0.23079270618753256
-0.17540245670252808
-0.3108008443325483
-0.2800284835075273
-0.26156506701252585
-0.26771953917753555
-0.2554105948475438
-0.23079270618753256
-0.2000203453625393
-0.18155692886753785
-0.3108008443325483
-0.30464637216753854
-0.28618295567253704
-0.2738740113425453
-0.29233742783754685
-0.32310978866254003
-0.26156506701252585
-0.1692479845375183
-0.360036621652543
-0.31695531649755804
-0.2738740113425453
-0.31695531649755804
-0.360036621652543
-0.30464637216753854
-0.24925612268253405
-0.2000203453625393
-0.3108008443325483
-0.28618295567253704
-0.2738740113425453
-0.2738740113425453
-0.29233742783754685
-0.23079270618753256
-0.2184837618575408
-0.1938658731975296
-0.26156506701252585
-0.2369471783525424
0.0707764298975011
0.7539228402126119
-0.40927239897256545
-0.2554105948475438
-0.2000203453625393
-0.6369878690775933
-0.6677602299025862
-0.360036621652543
-0.3292642608275498
-0.29233742783754685
-0.14463009587750708
-0.26771953917753555
-0.2061748175275213
-0.1938658731975296
-0.2431016505175243
-0.16309351237253633
-0.1384756237125251
-0.21232928969253104
-0.23079270618753256
-0.1384756237125251
0.0707764298975011
0.35388214948756086
-0.8400854505226096
0.40311792680755576
0.11385773505251384
-0.003077236082504875
-0.09539431855751236
-0.12001220721752358
-0.14463009587750708
-0.6431423412426027
-0.5939065639225805
-0.2984919000025288
-0.18771140103251985
-0.18771140103251985
-0.18155692886753785
-0.17540245670252808
-0.14463009587750708
-0.21232928969253104
-0.26156506701252585
-0.2431016505175243
-0.12001220721752358
-0.2184837618575408
-0.24925612268253405
-0.24925612268253405
-0.2000203453625393
-0.23079270618753256
-0.2369471783525424
-0.2061748175275213
-0.21232928969253104
-0.1938658731975296
-0.21232928969253104
-0.2246382340225228
-0.16309351237253633
-0.24925612268253405
-0.2554105948475438
-0.2246382340225228
-0.2246382340225228
-0.21232928969253104
-0.18771140103251985
-0.1692479845375183
0.2800284835075273
-0.17540245670252808
-0.5446707866025856
-0.26156506701252585
-0.18771140103251985
-0.15078456804251686
-0.17540245670252808
-0.23079270618753256
-0.09539431855751236
-0.15078456804251686
0.11385773505251384
0.06462195773251911
-0.08923984639250257
-0.1261666793825056
-0.1384756237125251
-0.15693904020752658
-0.08923984639250257
-0.2246382340225228
-0.2369471783525424
-0.21232928969253104
-0.15693904020752658
-0.16309351237253633
-0.1938658731975296
-0.2431016505175243
-0.8339309783576276
-0.2554105948475438
0.08308537422752059
-0.08923984639250257
-0.1692479845375183
-0.14463009587750708
-0.1692479845375183
-0.17540245670252808
-0.09539431855751236
-0.21232928969253104
-0.2061748175275213
-0.1938658731975296
-0.18155692886753785
-0.15693904020752658
-0.1692479845375183
-0.17540245670252808
-0.10770326288750408
-0.24925612268253405
-0.2554105948475438
-0.16309351237253633
-0.14463009587750708
-0.18155692886753785
-0.1692479845375183
-0.1384756237125251
-0.08923984639250257
-0.2246382340225228
-0.1692479845375183
-0.1384756237125251
-0.15693904020752658
-0.1384756237125251
0.02154065257750637
0.26156506701252585
0.15078456804251686
-0.1015487907225221
-0.09539431855751236
-0.09539431855751236
-0.1384756237125251
-0.15078456804251686
0.1261666793825056
0.5939065639225805
-0.45850817629256013
-0.6923781185625978
-0.3846545103125543
-0.26156506701252585
-0.23079270618753256
-0.24925612268253405
-0.5077439536125827
-0.360036621652543
-0.15078456804251686
-0.2738740113425453
-0.2184837618575408
-0.17540245670252808
-0.1692479845375183
-0.15693904020752658
-0.14463009587750708
-0.07693090206251085
-0.09539431855751236
-0.2369471783525424
-0.18771140103251985
-0.1384756237125251
-0.02154065257750637
-0.18771140103251985
-0.18155692886753785
-0.12001220721752358
-0.05846748556750937
-0.18155692886753785
-0.15078456804251686
-0.11385773505251384
-0.12001220721752358
-0.15078456804251686
-0.15693904020752658
-0.12001220721752358
-0.09539431855751236
-0.2554105948475438
-0.2184837618575408
-0.05846748556750937
-0.1015487907225221
-0.1384756237125251
-0.11385773505251384
-0.04615854123751762
0.02154065257750637
-0.09539431855751236
-0.04615854123751762
-0.08923984639250257
-0.16309351237253633
-0.1261666793825056
-0.06462195773251911
-0.033849596907498114
-0.06462195773251911
-0.18771140103251985
-0.08308537422752059
-0.16309351237253633
-0.12001220721752358
-0.08308537422752059
-0.0707764298975011
-0.01538618041249662
-0.009231708247514623
-0.11385773505251384
-0.009231708247514623
-0.01538618041249662
-0.04615854123751762
-0.10770326288750408
-0.7416138958825924
0.26156506701252585
0.35388214948756086
0.04615854123751762
-0.08308537422752059
-0.09539431855751236
-0.06462195773251911
-0.04000406907250786
-0.0707764298975011
-0.01538618041249662
-0.02154065257750637
-0.11385773505251384
-0.0707764298975011
-0.05231301340249961
-0.06462195773251911
-0.0707764298975011
-0.09539431855751236
-0.033849596907498114
-0.04615854123751762
-0.18771140103251985
-0.11385773505251384
-0.1015487907225221
-0.07693090206251085
-0.0707764298975011
-0.08308537422752059
0.02769512474251612
-0.003077236082504875
-0.09539431855751236
-0.04000406907250786
-0.02769512474251612
-0.04615854123751762
-0.033849596907498114
0.05231301340249961
0.16309351237253633
-0.04615854123751762
-0.08308537422752059
-0.02154065257750637
0.02769512474251612
0.02154065257750637
0.02154065257750637
0.05231301340249961
0.033849596907498114
-0.02769512474251612
-0.05846748556750937
-0.04000406907250786
-0.07693090206251085
-0.1261666793825056
-0.1261666793825056
-0.14463009587750708
-0.09539431855751236
-0.13232115154751534
-0.14463009587750708
-0.14463009587750708
-0.1938658731975296
-0.1938658731975296
-0.18155692886753785
-0.17540245670252808
-0.09539431855751236
0.12001220721752358
0.7908496732026148
-0.44619923196256844
-0.26156506701252585
-0.1938658731975296
-0.21232928969253104
-0.2061748175275213
-0.2738740113425453
-0.8093130896976164
-0.5446707866025856
-0.34772767732255133
-0.2984919000025288
-0.2984919000025288
-0.2800284835075273
-0.24925612268253405
-0.2000203453625393
-0.2431016505175243
-0.24925612268253405
-0.28618295567253704
-0.12001220721752358
-0.009231708247514623
-0.1261666793825056
-0.1692479845375183
-0.09539431855751236
-0.2000203453625393
-0.18155692886753785
-0.13232115154751534
-0.17540245670252808
-0.2000203453625393
-0.1384756237125251
-0.15078456804251686
-0.033849596907498114
-0.2061748175275213
-0.1938658731975296
-0.003077236082504875
0.13232115154751534
-0.04615854123751762
-0.08308537422752059
-0.07693090206251085
0.02154065257750637
-0.1384756237125251
-0.13232115154751534
-0.1261666793825056
-0.13232115154751534
-0.13232115154751534
-0.13232115154751534
-0.11385773505251384
-0.01538618041249662
-0.24925612268253405
-0.390808982477564
-0.5262073701075842
-0.35388214948756086
-0.28618295567253704
-0.2369471783525424
-0.18771140103251985
-0.08308537422752059
-0.17540245670252808
-0.1384756237125251
-0.11385773505251384
-0.15078456804251686
-0.21232928969253104
-0.2246382340225228
-0.2431016505175243
-0.30464637216753854
-0.9447114773276367
0.11385773505251384
0.16309351237253633
-0.11385773505251384
-0.17540245670252808
-0.15078456804251686
-0.10770326288750408
-0.08923984639250257
-0.2000203453625393
-0.1938658731975296
-0.2000203453625393
-0.17540245670252808
-0.12001220721752358
-0.14463009587750708
-0.18155692886753785
-0.08923984639250257
-0.2554105948475438
-0.2246382340225228
-0.17540245670252808
-0.1938658731975296
-0.21232928969253104
-0.17540245670252808
-0.08923984639250257
-0.003077236082504875
-0.21232928969253104
-0.15078456804251686
-0.1261666793825056
-0.11385773505251384
-0.1384756237125251
-0.14463009587750708
-0.02154065257750637
0.8647033391826209
-0.13232115154751534
-0.28618295567253704
-0.1692479845375183
-0.2000203453625393
-0.14463009587750708
-0.10770326288750408
-0.1015487907225221
-0.5262073701075842
-0.6677602299025862
-0.3415732051575415
-0.26771953917753555
-0.24925612268253405
-0.2431016505175243
-0.1938658731975296
-0.15078456804251686
-0.15693904020752658
-0.29233742783754685
-0.2184837618575408
-0.2184837618575408
-0.2061748175275213
-0.18155692886753785
-0.16309351237253633
-0.1384756237125251
-0.14463009587750708
-0.26771953917753555
-0.2246382340225228
0.1261666793825056
0.889321227842632
-0.1015487907225221
-0.02769512474251612
-0.12001220721752358
-0.6185244525825918
-0.6554512855725947
-0.36619109381755277
-0.28618295567253704
-0.26156506701252585
-0.2738740113425453
-0.2431016505175243
-0.21232928969253104
-0.3108008443325483
-0.3415732051575415
-0.3723455659825625
-0.35388214948756086
-0.5323618422725662
-0.32310978866254003
-0.23079270618753256
-0.18155692886753785
-0.1692479845375183
-0.2431016505175243
-0.2061748175275213
-0.2061748175275213
-0.2061748175275213
-0.1938658731975296
-0.18155692886753785
-0.09539431855751236
-0.12001220721752358
-0.2000203453625393
-0.15693904020752658
-0.360036621652543
-0.2554105948475438
-0.14463009587750708
-0.18771140103251985
-0.17540245670252808
-0.15078456804251686
-0.2246382340225228
-0.21232928969253104
-0.1692479845375183
-0.12001220721752358
-0.15078456804251686
-0.18155692886753785
-0.06462195773251911
-0.18155692886753785
-0.02154065257750637
0.06462195773251911
-0.12001220721752358
-0.16309351237253633
-0.1938658731975296
-0.2000203453625393
0.2738740113425453
-0.1938658731975296
-0.6185244525825918
-0.36619109381755277
-0.31695531649755804
-0.2984919000025288
-0.2738740113425453
-0.26156506701252585
-0.2061748175275213
-0.21232928969253104
-0.26156506701252585
-0.396963454642546
-0.9570204216576284
0.10770326288750408
0.1384756237125251
-0.10770326288750408
-0.11385773505251384
-0.2184837618575408
-0.1692479845375183
-0.17540245670252808
-0.2184837618575408
-0.2061748175275213
-0.1938658731975296
-0.17540245670252808
0.23079270618753256
0.2246382340225228
-0.04000406907250786
-0.08923984639250257
-0.1384756237125251
-0.15693904020752658
-0.15078456804251686
-0.1384756237125251
-0.033849596907498114
-0.1692479845375183
-0.17540245670252808
-0.1384756237125251
-0.1384756237125251
-0.14463009587750708
-0.16309351237253633
-0.34772767732255133
-0.47697159278756174
-0.42158134330255725
-0.29233742783754685
-0.24925612268253405
-0.1938658731975296
-0.18155692886753785
-0.18155692886753785
-0.1261666793825056
-0.04615854123751762
-0.2246382340225228
-0.18771140103251985
-0.16309351237253633
-0.1938658731975296
-0.18155692886753785
-0.11385773505251384
-0.18771140103251985
-0.08923984639250257
-0.2369471783525424
-0.2554105948475438
-0.23079270618753256
-0.23079270618753256
-0.23079270618753256
-0.23079270618753256
-0.23079270618753256
-0.15078456804251686
-0.2431016505175243
-0.16309351237253633
-0.16309351237253633
-0.2000203453625393
-0.1692479845375183
0.15078456804251686
0.8093130896976164
-0.6246789247476012
-0.8093130896976164
-0.4523537041275505
-0.35388214948756086
-0.32310978866254003
-0.29233742783754685
-0.2431016505175243
-0.2246382340225228
-0.18771140103251985
-0.2800284835075273
-0.2369471783525424
-0.1938658731975296
-0.18155692886753785
-0.1938658731975296
-0.21232928969253104
-0.21232928969253104
-0.13232115154751534
-0.24925612268253405
-0.2369471783525424
-0.2554105948475438
-0.2738740113425453
-0.21232928969253104
-0.21232928969253104
-0.21232928969253104
-0.16309351237253633
-0.2800284835075273
-0.21232928969253104
-0.17540245670252808
-0.18155692886753785
-0.17540245670252808
-0.18155692886753785
-0.13232115154751534
-0.07693090206251085
-0.21232928969253104
-0.18771140103251985
-0.17540245670252808
-0.16309351237253633
-0.12001220721752358
-0.15078456804251686
-0.18155692886753785
-0.1384756237125251
-0.1938658731975296
-0.1015487907225221
-0.1384756237125251
-0.1384756237125251
-0.12001220721752358
-0.09539431855751236
-0.09539431855751236
-0.13232115154751534
-0.2184837618575408
-0.2000203453625393
-0.2061748175275213
-0.1692479845375183
-0.18771140103251985
-0.2184837618575408
-0.1692479845375183
-0.02154065257750637
0.1692479845375183
0.01538618041249662
-0.0707764298975011
-0.08308537422752059
-0.26156506701252585
-0.8523943948526291
0.2431016505175243
0.29233742783754685
-0.11385773505251384
-0.1015487907225221
-0.08308537422752059
-0.04615854123751762
-0.1692479845375183
-0.15693904020752658
-0.23079270618753256
-0.47697159278756174
-0.34772767732255133
-0.2369471783525424
-0.15693904020752658
-0.1692479845375183
-0.2061748175275213
-0.15693904020752658
-0.08308537422752059
-0.1261666793825056
-0.2061748175275213
-0.15078456804251686
-0.1692479845375183
-0.2184837618575408
-0.2184837618575408
-0.18771140103251985
-0.18771140103251985
-0.23079270618753256
-0.2554105948475438
-0.21232928969253104
-0.16309351237253633
-0.15078456804251686
-0.1261666793825056
-0.07693090206251085
-0.033849596907498114
-0.1261666793825056
-0.1692479845375183
-0.11385773505251384
-0.16309351237253633
-0.18155692886753785
0.0707764298975011
0.13232115154751534
-0.033849596907498114
-0.14463009587750708
-0.16309351237253633
-0.14463009587750708
-0.16309351237253633
-0.15078456804251686
-0.1261666793825056
-0.12001220721752358
-0.06462195773251911
-0.21232928969253104
-0.2000203453625393
-0.16309351237253633
-0.17540245670252808
-0.2061748175275213
-0.13232115154751534
-0.11385773505251384
-0.02154065257750637
0.18155692886753785
0.6554512855725947
-0.28618295567253704
-0.15078456804251686
-0.17540245670252808
-0.18155692886753785
-0.1938658731975296
-0.26156506701252585
-0.8154675618626261
-0.5446707866025856
-0.34772767732255133
-0.40927239897256545
-0.5200528979425745
-0.3292642608275498
-0.26771953917753555
-0.12001220721752358
-0.26156506701252585
-0.2554105948475438
-0.2369471783525424
-0.2431016505175243
-0.2554105948475438
-0.2184837618575408
-0.2369471783525424
-0.1938658731975296
-0.2800284835075273
-0.26156506701252585
-0.1692479845375183
-0.28618295567253704
-0.2800284835075273
-0.2184837618575408
-0.2061748175275213
-0.1261666793825056
-0.29233742783754685
-0.2554105948475438
-0.18771140103251985
-0.1384756237125251
-0.12001220721752358
-0.14463009587750708
-0.16309351237253633
-0.07693090206251085
-0.2061748175275213
-0.10770326288750408
-0.1938658731975296
-0.1261666793825056
-0.15693904020752658
-0.18771140103251985
-0.14463009587750708
0.575443147427579
-0.427735815467567
-0.2369471783525424
0.32310978866254003
0.003077236082504875
-0.05846748556750937
-0.1015487907225221
-0.12001220721752358
-0.2984919000025288
-0.7846952010376053
-0.4831260649525715
-0.2800284835075273
-0.21232928969253104
-0.15693904020752658
-0.13232115154751534
-0.07693090206251085
-0.009231708247514623
-0.10770326288750408
-0.05846748556750937
-0.05846748556750937
-0.08923984639250257
-0.1261666793825056
-0.15693904020752658
-0.11385773505251384
-0.09539431855751236
-0.30464637216753854
-0.2184837618575408
-0.1938658731975296
-0.15078456804251686
-0.13232115154751534
-0.08923984639250257
-0.08923984639250257
-0.10770326288750408
-0.16309351237253633
-0.15078456804251686
-0.2369471783525424
-0.21232928969253104
-0.2184837618575408
-0.17540245670252808
-0.1261666793825056
-0.12001220721752358
-0.2738740113425453
-0.23079270618753256
-0.2246382340225228
-0.2184837618575408
-0.18771140103251985
-0.17540245670252808
-0.14463009587750708
-0.1384756237125251
-0.2184837618575408
-0.17540245670252808
-0.18155692886753785
-0.1938658731975296
-0.1261666793825056
-0.13232115154751534
-0.13232115154751534
-0.08923984639250257
-0.2431016505175243
-0.2000203453625393
-0.2061748175275213
-0.2061748175275213
-0.2246382340225228
-0.17540245670252808
-0.5323618422725662
-0.6739147020675963
0.3723455659825625
0.01538618041249662
-0.14463009587750708
-0.009231708247514623
-0.02154065257750637
-0.09539431855751236
-0.1015487907225221
-0.11385773505251384
-0.17540245670252808
-0.17540245670252808
0.13232115154751534
0.8031586175326066
-0.3846545103125543
-0.2246382340225228
-0.1692479845375183
-0.5877520917575707
-0.5446707866025856
-0.2554105948475438
-0.08308537422752059
-0.2000203453625393
-0.14463009587750708
-0.08308537422752059
-0.003077236082504875
-0.07693090206251085
-0.15693904020752658
-0.12001220721752358
-0.1938658731975296
-0.2246382340225228
-0.23079270618753256
-0.2431016505175243
-0.1692479845375183
-0.21232928969253104
-0.2800284835075273
-0.1692479845375183
-0.30464637216753854
-0.26771953917753555
-0.24925612268253405
-0.17540245670252808
-0.18155692886753785
-0.2984919000025288
-0.3108008443325483
-0.26156506701252585
-0.23079270618753256
-0.23079270618753256
-0.24925612268253405
-0.23079270618753256
-0.18771140103251985
-0.2061748175275213
-0.15078456804251686
-0.13232115154751534
-0.1938658731975296
-0.24925612268253405
-0.2184837618575408
-0.23079270618753256
0.26156506701252585
-0.17540245670252808
-0.6616057577376044
-0.3846545103125543
-0.30464637216753854
-0.2431016505175243
-0.2246382340225228
-0.23079270618753256
-0.11385773505251384
-0.2431016505175243
-0.3723455659825625
-0.2554105948475438
-0.2554105948475438
-0.26156506701252585
-0.26156506701252585
-0.2369471783525424
-0.21232928969253104
-0.2984919000025288
-0.2246382340225228
-0.36619109381755277
-0.9570204216576284
0.11385773505251384
0.1692479845375183
-0.06462195773251911
0.04615854123751762
-0.18771140103251985
-0.18155692886753785
-0.13232115154751534
-0.15078456804251686
-0.1692479845375183
-0.2000203453625393
-0.18155692886753785
-0.12001220721752358
-0.31695531649755804
-0.2800284835075273
-0.2061748175275213
-0.18155692886753785
-0.2184837618575408
-0.2000203453625393
-0.1938658731975296
-0.11385773505251384
-0.2061748175275213
-0.16309351237253633
-0.15078456804251686
-0.15078456804251686
-0.12001220721752358
-0.08923984639250257
-0.10770326288750408
-0.09539431855751236
-0.18771140103251985
-0.1692479845375183
-0.15078456804251686
-0.18155692886753785
-0.17540245670252808
-0.15693904020752658
-0.17540245670252808
-0.15693904020752658
-0.2738740113425453
-0.2431016505175243
-0.2738740113425453
-0.2800284835075273
-0.29233742783754685
-0.31695531649755804
-0.2800284835075273
-0.21232928969253104
-0.3292642608275498
-0.2800284835075273
-0.2738740113425453
-0.15693904020752658
0.0707764298975011
-0.0707764298975011
-0.12001220721752358
-0.04000406907250786
-0.18771140103251985
-0.16309351237253633
-0.13232115154751534
-0.16309351237253633
-0.21232928969253104
0.0707764298975011
0.5815976195925888
-1.3447521680526875
-1.9417359680577726
-1.3509066402176972
-1.1724269474326645
-1.0924188092876486
-0.7416138958825924
-0.5446707866025856
-0.427735815467567
-0.36619109381755277
-0.47697159278756174
-0.390808982477564
-0.3415732051575415
-0.32310978866254003
-0.29233742783754685
-0.2984919000025288
-0.30464637216753854
-0.2184837618575408
-0.31695531649755804
-0.24925612268253405
-0.2184837618575408
-0.21232928969253104
-0.2000203453625393
-0.2061748175275213
-0.16309351237253633
-0.1261666793825056
-0.28618295567253704
-0.2246382340225228
-0.24925612268253405
-0.29233742783754685
-0.28618295567253704
-0.2738740113425453
-0.2431016505175243
-0.21232928969253104
-0.29233742783754685
-0.360036621652543
-0.30464637216753854
-0.28618295567253704
-0.28618295567253704
-0.28618295567253704
-0.2061748175275213
-0.2061748175275213
-0.26771953917753555
-0.26156506701252585
-0.3108008443325483
-0.28618295567253704
-0.26771953917753555
-0.23079270618753256
-0.15078456804251686
-0.02769512474251612
-0.1261666793825056
-0.15078456804251686
-0.15078456804251686
-0.14463009587750708
-0.1384756237125251
-0.15078456804251686
-0.1015487907225221
-0.10770326288750408
-0.2554105948475438
-0.2246382340225228
-0.21232928969253104
-0.2246382340225228
-0.45850817629256013
-1.215508252587677
0.2184837618575408
0.24925612268253405
-0.09539431855751236
-0.06462195773251911
0.02154065257750637
-0.2738740113425453
-0.23079270618753256
-0.23079270618753256
-0.16309351237253633
-0.1692479845375183
-0.24925612268253405
-0.18771140103251985
-0.14463009587750708
-0.16309351237253633
-0.1384756237125251
-0.15693904020752658
-0.06462195773251911
-0.12001220721752358
-0.1261666793825056
-0.09539431855751236
-0.09539431855751236
-0.08308537422752059
-0.05846748556750937
-0.10770326288750408
-0.08923984639250257
-0.14463009587750708
-0.23079270618753256
-0.18771140103251985
-0.2061748175275213
-0.18771140103251985
-0.21232928969253104
-0.2061748175275213
-0.12001220721752358
-0.13232115154751534
-0.13232115154751534
-0.1015487907225221
-0.12001220721752358
-0.1261666793825056
-0.14463009587750708
-0.17540245670252808
-0.09539431855751236
-0.4523537041275505
-0.2738740113425453
-0.18771140103251985
-0.2246382340225228
-0.21232928969253104
0.033849596907498114
-0.15078456804251686
-0.15078456804251686
-0.21232928969253104
-0.2246382340225228
-0.2431016505175243
-0.23079270618753256
-0.2184837618575408
-0.2000203453625393
-0.21232928969253104
0.26771953917753555
0.8462399226876194
0.2369471783525424
-0.6369878690775933
-0.32310978866254003
-0.2246382340225228
-0.08308537422752059
-0.08308537422752059
-0.15693904020752658
-0.6492968134075847
-0.3723455659825625
-0.2061748175275213
-0.13232115154751534
-0.13232115154751534
-0.15693904020752658
-0.13232115154751534
-0.07693090206251085
-0.2246382340225228
-0.05846748556750937
-0.01538618041249662
-0.12001220721752358
-0.13232115154751534
-0.13232115154751534
-0.1692479845375183
-0.07693090206251085
-0.18771140103251985
-0.1384756237125251
-0.07693090206251085
-0.10770326288750408
-0.1384756237125251
-0.09539431855751236
-0.09539431855751236
-0.07693090206251085
-0.2184837618575408
-0.1938658731975296
-0.17540245670252808
-0.15078456804251686
-0.15693904020752658
-0.14463009587750708
-0.11385773505251384
-0.05231301340249961
-0.23079270618753256
-0.18771140103251985
-0.18771140103251985
-0.15078456804251686
-0.16309351237253633
-0.15693904020752658
-0.15693904020752658
-0.01538618041249662
-0.0707764298975011
-0.15078456804251686
-0.18771140103251985
-0.18155692886753785
-0.16309351237253633
-0.16309351237253633
-0.15078456804251686
-0.0707764298975011
-0.23079270618753256
-0.1938658731975296
-0.1938658731975296
-0.21232928969253104
-0.1938658731975296
-0.17540245670252808
-0.15693904020752658
-0.36619109381755277
-1.0062561989776508
0.11385773505251384
0.16309351237253633
-0.07693090206251085
-0.14463009587750708
-0.15078456804251686
-0.12001220721752358
-0.07693090206251085
-0.2000203453625393
-0.15078456804251686
-0.15078456804251686
-0.1384756237125251
-0.15078456804251686
-0.09539431855751236
-0.05846748556750937
-0.05846748556750937
-0.2431016505175243
-0.14463009587750708
-0.18155692886753785
-0.16309351237253633
-0.12001220721752358
-0.1261666793825056
-0.09539431855751236
-0.05231301340249961
-0.1692479845375183
-0.11385773505251384
-0.1692479845375183
-0.21232928969253104
-0.15693904020752658
-0.15078456804251686
-0.14463009587750708
-0.18155692886753785
-0.29233742783754685
-0.2369471783525424
-0.15693904020752658
-0.14463009587750708
-0.18771140103251985
-0.16309351237253633
-0.10770326288750408
-0.07693090206251085
-0.2061748175275213
-0.2246382340225228
-0.23079270618753256
-0.1692479845375183
-0.1384756237125251
-0.13232115154751534
-0.04000406907250786
-0.05231301340249961
-0.15078456804251686
-0.09539431855751236
-0.05231301340249961
-0.06462195773251911
-0.10770326288750408
-0.08923984639250257
-0.08308537422752059
-0.09539431855751236
-0.18155692886753785
-0.1692479845375183
0.11385773505251384
0.8339309783576276
-0.37850003814754446
-0.2061748175275213
-0.13232115154751534
-0.575443147427579
-0.538516314437576
-0.2369471783525424
-0.15693904020752658
-0.1261666793825056
-0.1261666793825056
-0.11385773505251384
-0.09539431855751236
-0.18155692886753785
-0.13232115154751534
-0.10770326288750408
-0.18155692886753785
-0.14463009587750708
-0.08923984639250257
-0.05231301340249961
-0.01538618041249662
-0.07693090206251085
-0.1384756237125251
-0.12001220721752358
-0.1015487907225221
-0.0707764298975011
-0.04615854123751762
-0.07693090206251085
-0.033849596907498114
0.01538618041249662
0.17540245670252808
0.003077236082504875
-0.08308537422752059
-0.11385773505251384
-0.13232115154751534
-0.1384756237125251
0.3846545103125543
-0.08923984639250257
-0.4892805371175811
-0.21232928969253104
-0.1384756237125251
-0.09539431855751236
-0.08308537422752059
-0.1261666793825056
-0.08308537422752059
-0.2000203453625393
-0.2000203453625393
-0.15693904020752658
-0.14463009587750708
-0.17540245670252808
-0.14463009587750708
-0.14463009587750708
-0.07693090206251085
-0.26156506701252585
-0.26771953917753555
-0.23079270618753256
-0.2431016505175243
-0.2184837618575408
-0.1938658731975296
-0.18771140103251985
-0.06462195773251911
-0.2000203453625393
-0.17540245670252808
-0.32310978866254003
-0.8523943948526291
0.18771140103251985
0.2431016505175243
-0.003077236082504875
0.04000406907250786
-0.1692479845375183
-0.13232115154751534
-0.1015487907225221
-0.15078456804251686
-0.15693904020752658
-0.16309351237253633
-0.34772767732255133
-0.13232115154751534
-0.21232928969253104
-0.18155692886753785
-0.1384756237125251
-0.1261666793825056
-0.1384756237125251
-0.15078456804251686
-0.11385773505251384
-0.0707764298975011
-0.2246382340225228
-0.1015487907225221
0.0707764298975011
0.14463009587750708
0.3846545103125543
0.6492968134075847
0.6185244525825918
0.5262073701075842
0.2800284835075273
0.2184837618575408
0.18155692886753785
0.14463009587750708
0.1015487907225221
0.08923984639250257
0.07693090206251085
0.1261666793825056
0.009231708247514623
0.05231301340249961
0.0707764298975011
0.08923984639250257
0.1015487907225221
0.07693090206251085
0.01538618041249662
0.0707764298975011
-0.08923984639250257
-0.08923984639250257
-0.06462195773251911
-0.08308537422752059
-0.08923984639250257
-0.08923984639250257
-0.04615854123751762
0.01538618041249662
-0.18771140103251985
-0.11385773505251384
-0.04615854123751762
-0.12001220721752358
-0.08923984639250257
0.2246382340225228
0.7785407288726233
-0.49543500928256323
-0.5508252587675677
-0.2184837618575408
-0.08923984639250257
-0.06462195773251911
-0.1261666793825056
-0.08923984639250257
-0.08308537422752059
-0.07693090206251085
-0.13232115154751534
-0.0707764298975011
-0.15693904020752658
-0.08923984639250257
-0.01538618041249662
0.04000406907250786
0.05231301340249961
0.04615854123751762
-0.0707764298975011
-0.05231301340249961
-0.07693090206251085
-0.09539431855751236
-0.08308537422752059
-0.1015487907225221
-0.11385773505251384
-0.01538618041249662
-0.05231301340249961
-0.033849596907498114
-0.033849596907498114
-0.01538618041249662
-0.02769512474251612
-0.003077236082504875
0.04615854123751762
0.02154065257750637
-0.1015487907225221
-0.06462195773251911
-0.04615854123751762
-0.033849596907498114
-0.0707764298975011
-0.09539431855751236
-0.02154065257750637
-0.08308537422752059
-0.15693904020752658
-0.08923984639250257
-0.06462195773251911
-0.09539431855751236
-0.11385773505251384
-0.13232115154751534
-0.08923984639250257
-0.06462195773251911
-0.1261666793825056
-0.07693090206251085
-0.08923984639250257
-0.1015487907225221
-0.0707764298975011
0.003077236082504875
0.1261666793825056
0.05231301340249961
-0.0707764298975011
-0.02154065257750637
-0.033849596907498114
-0.05231301340249961
-0.2000203453625393
-0.7477683680476023
0.34772767732255133
0.32310978866254003
-0.02769512474251612
-0.02769512474251612
-0.02154065257750637
-0.08308537422752059
-0.05231301340249961
-0.10770326288750408
0.10770326288750408
0.8031586175326066
-0.3846545103125543
-0.2369471783525424
-0.18771140103251985
-0.2246382340225228
-0.2369471783525424
-0.21232928969253104
-0.26156506701252585
-0.7539228402126119
-0.5815976195925888
-0.3846545103125543
-0.2738740113425453
-0.10770326288750408
-0.18155692886753785
-0.14463009587750708
0.42158134330255725
0.003077236082504875
-0.35388214948756086
-0.11385773505251384
-0.07693090206251085
-0.05231301340249961
-0.04000406907250786
-0.09539431855751236
-0.07693090206251085
-0.1692479845375183
-0.18771140103251985
-0.1938658731975296
-0.12001220721752358
-0.15078456804251686
-0.2369471783525424
-0.2246382340225228
-0.13232115154751534
-0.21232928969253104
-0.23079270618753256
-0.2738740113425453
-0.26156506701252585
-0.2061748175275213
-0.15693904020752658
-0.16309351237253633
-0.09539431855751236
-0.18771140103251985
-0.2000203453625393
-0.17540245670252808
-0.18771140103251985
-0.10770326288750408
-0.08308537422752059
-0.1015487907225221
0.003077236082504875
0.1938658731975296
0.7600773123775938
-0.1384756237125251
-0.02154065257750637
-0.033849596907498114
-0.02154065257750637
0.02769512474251612
-0.1384756237125251
-0.7046870628925892
-0.33541873299255964
-0.1938658731975296
-0.18155692886753785
-0.16309351237253633
-0.16309351237253633
-0.18155692886753785
-0.05846748556750937
-0.2369471783525424
-0.2184837618575408
-0.15693904020752658
-0.12001220721752358
-0.1261666793825056
-0.1261666793825056
-0.1015487907225221
-0.04000406907250786
-0.390808982477564
-0.34772767732255133
-0.16309351237253633
-0.11385773505251384
-0.11385773505251384
-0.1261666793825056
-0.13232115154751534
-0.0707764298975011
-0.1692479845375183
-0.08923984639250257
-0.08308537422752059
-0.11385773505251384
-0.13232115154751534
-0.11385773505251384
-0.04615854123751762
0.04000406907250786
-0.26156506701252585
-0.23079270618753256
-0.2431016505175243
-0.30464637216753854
-0.2738740113425453
-0.26771953917753555
-0.2000203453625393
-0.1261666793825056
-0.26771953917753555
-0.16309351237253633
-0.08308537422752059
-0.09539431855751236
-0.1384756237125251
-0.003077236082504875
0.18155692886753785
-0.02154065257750637
-0.18155692886753785
-0.18771140103251985
-0.24925612268253405
-0.2800284835075273
-0.32310978866254003
-0.36619109381755277
-0.390808982477564
-0.5569797309325777
-1.3201342793926762
-0.2061748175275213
-0.17540245670252808
-0.47697159278756174
-0.5446707866025856
-0.6185244525825918
-0.5015894814475731
-0.360036621652543
-0.4892805371175811
-0.427735815467567
-0.36619109381755277
-0.35388214948756086
-0.3292642608275498
-0.32310978866254003
-0.3108008443325483
-0.2554105948475438
-0.396963454642546
-0.31695531649755804
-0.34772767732255133
-0.1692479845375183
0.009231708247514623
-0.18155692886753785
-0.1938658731975296
-0.2184837618575408
-0.26771953917753555
-0.24925612268253405
-0.26771953917753555
-0.2800284835075273
-0.3108008443325483
-0.2738740113425453
-0.21232928969253104
-0.18771140103251985
-0.34772767732255133
-0.2800284835075273
-0.3108008443325483
-0.4708171206225797
-0.36619109381755277
-0.30464637216753854
-0.2246382340225228
-0.21232928969253104
-0.35388214948756086
-0.32310978866254003
-0.2984919000025288
-0.2738740113425453
-0.2738740113425453
-0.2800284835075273
-0.2184837618575408
-0.2554105948475438
-0.3723455659825625
-0.3723455659825625
-0.396963454642546
-0.3846545103125543
-0.3415732051575415
-0.360036621652543
-0.360036621652543
-0.37850003814754446
-0.44619923196256844
-0.4400447597975588
-0.13232115154751534
0.433890287632549
-0.5877520917575707
-0.4154268711375475
-0.433890287632549
-0.9754838381526297
-0.7354594237176102
-0.5877520917575707
-0.575443147427579
-0.5631342030975872
-0.5446707866025856
-0.5569797309325777
-0.5138984257775646
-0.5323618422725662
-0.5815976195925888
-0.5569797309325777
-0.5323618422725662
-0.47697159278756174
-0.4523537041275505
-0.44619923196256844
-0.44619923196256844
-0.5015894814475731
-0.47697159278756174
-0.4523537041275505
-0.5015894814475731
-0.47697159278756174
-0.4892805371175811
-0.42158134330255725
-0.2184837618575408
-0.2431016505175243
-0.24925612268253405
-0.14463009587750708
-0.15693904020752658
-0.2554105948475438
-0.2000203453625393
-0.09539431855751236
0.02154065257750637
-0.11385773505251384
-0.12001220721752358
-0.10770326288750408
-0.08308537422752059
-0.02154065257750637
0.01538618041249662
0.033849596907498114
0.02769512474251612
-0.1692479845375183
-0.1261666793825056
-0.07693090206251085
-0.1015487907225221
-0.18771140103251985
-0.08923984639250257
-0.1384756237125251
-0.17540245670252808
-0.3292642608275498
-0.32310978866254003
-0.26771953917753555
-0.2738740113425453
-0.29233742783754685
-0.2431016505175243
-0.2061748175275213
-0.15693904020752658
-0.30464637216753854
-0.24925612268253405
-0.35388214948756086
-0.9139391165026156
0.13232115154751534
0.1692479845375183
-0.15693904020752658
-0.15078456804251686
-0.31695531649755804
-0.29233742783754685
-0.31695531649755804
-0.31695531649755804
-0.30464637216753854
-0.3108008443325483
-0.2738740113425453
-0.2000203453625393
-0.360036621652543
-0.29233742783754685
-0.3108008443325483
-0.24925612268253405
-0.1938658731975296
-0.2431016505175243
-0.26156506701252585
-0.2246382340225228
-0.29233742783754685
-0.29233742783754685
-0.31695531649755804
-0.28618295567253704
-0.2554105948475438
-0.2738740113425453
-0.24925612268253405
-0.2184837618575408
-0.32310978866254003
-0.3292642608275498
-0.24925612268253405
-0.15078456804251686
-0.15078456804251686
-0.14463009587750708
-0.1384756237125251
-0.05231301340249961
-0.21232928969253104
-0.2184837618575408
-0.2431016505175243
-0.23079270618753256
-0.23079270618753256
-0.2246382340225228
-0.18155692886753785
-0.16309351237253633
-0.3108008443325483
-0.2431016505175243
-0.360036621652543
-0.3292642608275498
-0.29233742783754685
-0.2554105948475438
-0.1938658731975296
-0.16309351237253633
-0.28618295567253704
-0.2184837618575408
-0.15693904020752658
-0.17540245670252808
-0.21232928969253104
0.14463009587750708
0.8277765061926179
-0.7723862567076134
-0.6862236463975879
-0.2246382340225228
-0.2000203453625393
-0.21232928969253104
-0.2246382340225228
-0.18155692886753785
-0.13232115154751534
-0.07693090206251085
-0.2061748175275213
-0.15693904020752658
-0.1261666793825056
-0.13232115154751534
-0.10770326288750408
-0.12001220721752358
-0.1384756237125251
-0.08308537422752059
-0.2431016505175243
-0.2369471783525424
-0.2061748175275213
-0.1692479845375183
-0.2000203453625393
-0.1692479845375183
-0.05846748556750937
0.42158134330255725
-1.0678009206276373
0.29233742783754685
0.15078456804251686
-0.16309351237253633
-0.2431016505175243
-0.2431016505175243
-0.1692479845375183
-0.7108415350575992
-0.7416138958825924
-0.4154268711375475
-0.32310978866254003
-0.26771953917753555
-0.2246382340225228
-0.21232928969253104
-0.18771140103251985
-0.1384756237125251
-0.21232928969253104
-0.18771140103251985
-0.13232115154751534
-0.13232115154751534
-0.1692479845375183
-0.1015487907225221
-0.033849596907498114
-0.07693090206251085
-0.2000203453625393
-0.12001220721752358
-0.16309351237253633
-0.2369471783525424
-0.18155692886753785
-0.21232928969253104
-0.21232928969253104
-0.26771953917753555
-0.3108008443325483
-0.2984919000025288
-0.28618295567253704
-0.23079270618753256
-0.2061748175275213
-0.28618295567253704
-0.1692479845375183
-0.23079270618753256
-0.29233742783754685
-0.2369471783525424
-0.2184837618575408
-0.2000203453625393
-0.1938658731975296
-0.1938658731975296
-0.1384756237125251
-0.16309351237253633
-0.17540245670252808
-0.2431016505175243
-0.13232115154751534
-0.13232115154751534
-0.21232928969253104
-0.2000203453625393
0.3292642608275498
-0.10770326288750408
-0.5446707866025856
-0.2800284835075273
-0.26771953917753555
-0.2369471783525424
-0.2369471783525424
-0.2738740113425453
-0.8400854505226096
-0.17540245670252808
0.1692479845375183
-0.15078456804251686
-0.15693904020752658
-0.18771140103251985
-0.18771140103251985
-0.1692479845375183
-0.07693090206251085
-0.2061748175275213
-0.2000203453625393
-0.15693904020752658
-0.13232115154751534
-0.1692479845375183
-0.15078456804251686
-0.15078456804251686
-0.04000406907250786
-0.17540245670252808
-0.14463009587750708
-0.08308537422752059
-0.1384756237125251
-0.1384756237125251
-0.10770326288750408
-0.13232115154751534
-0.12001220721752358
-0.18771140103251985
-0.2000203453625393
-0.18771140103251985
-0.18771140103251985
-0.18155692886753785
-0.2061748175275213
-0.2431016505175243
-0.15693904020752658
0.05231301340249961
0.5508252587675677
-0.427735815467567
-0.2369471783525424
-0.2554105948475438
-0.2369471783525424
-0.2000203453625393
-0.3723455659825625
-0.8585488670176111
-0.5200528979425745
-0.33541873299255964
-0.28618295567253704
-0.2554105948475438
-0.26156506701252585
-0.2369471783525424
-0.033849596907498114
-0.2369471783525424
-0.23079270618753256
-0.18771140103251985
-0.1692479845375183
-0.18155692886753785
-0.17540245670252808
-0.1692479845375183
-0.12001220721752358
-0.18155692886753785
-0.14463009587750708
-0.1938658731975296
-0.24925612268253405
-0.2061748175275213
-0.21232928969253104
-0.21232928969253104
-0.30464637216753854
-0.3108008443325483
-0.23079270618753256
-0.26771953917753555
-0.23079270618753256
-0.2061748175275213
-0.15078456804251686
-0.1015487907225221
-0.04615854123751762
-0.15078456804251686
-0.1261666793825056
-0.13232115154751534
-0.11385773505251384
-0.1261666793825056
0.1015487907225221
0.02154065257750637
-0.08308537422752059
-0.17540245670252808
-0.1015487907225221
-0.01538618041249662
-0.02154065257750637
-0.01538618041249662
0.02769512474251612
0.02769512474251612
0.09539431855751236
0.003077236082504875
0.05846748556750937
0.07693090206251085
0.11385773505251384
0.2554105948475438
0.2061748175275213
0.2984919000025288
0.26156506701252585
-0.34772767732255133
0.7600773123775938
0.8031586175326066
0.575443147427579
0.49543500928256323
0.4892805371175811
0.49543500928256323
0.5077439536125827
0.390808982477564
0.3723455659825625
0.34772767732255133
0.37850003814754446
0.31695531649755804
0.2554105948475438
0.2184837618575408
0.1384756237125251
0.009231708247514623
-0.003077236082504875
-0.05846748556750937
-0.08308537422752059
-0.15693904020752658
-0.1938658731975296
-0.14463009587750708
-0.15693904020752658
-0.24925612268253405
-0.2184837618575408
-0.18771140103251985
-0.26771953917753555
-0.2061748175275213
-0.18771140103251985
-0.1015487907225221
-0.0707764298975011
-0.18155692886753785
-0.08308537422752059
-0.08923984639250257
-0.11385773505251384
-0.08308537422752059
-0.07693090206251085
-0.04615854123751762
-0.11385773505251384
-0.23079270618753256
-0.17540245670252808
-0.2246382340225228
-0.26771953917753555
-0.29233742783754685
-0.32310978866254003
-0.2984919000025288
-0.33541873299255964
-0.40927239897256545
-0.3846545103125543
-0.40311792680755576
-0.433890287632549
-0.427735815467567
-0.46466264845757
-0.360036621652543
-0.32310978866254003
-0.28618295567253704
-0.34772767732255133
0.01538618041249662
0.7293049515526008
-0.40927239897256545
-0.2431016505175243
-0.23079270618753256
-0.6923781185625978
-0.5508252587675677
-0.35388214948756086
-0.2800284835075273
-0.24925612268253405
-0.26771953917753555
-0.28618295567253704
-0.21232928969253104
-0.26156506701252585
-0.3415732051575415
-0.30464637216753854
-0.2984919000025288
-0.30464637216753854
-0.26156506701252585
-0.26771953917753555
-0.1938658731975296
-0.23079270618753256
-0.2431016505175243
-0.1261666793825056
-0.10770326288750408
-0.09539431855751236
-0.033849596907498114
-0.02769512474251612
-0.003077236082504875
-0.02154065257750637
0.003077236082504875
0.04000406907250786
0.04615854123751762
0.009231708247514623
-0.003077236082504875
-0.01538618041249662
0.04000406907250786
-0.14463009587750708
-0.17540245670252808
-0.1692479845375183
-0.18771140103251985
-0.2246382340225228
-0.07693090206251085
-0.08308537422752059
-0.0707764298975011
-0.15078456804251686
-0.12001220721752358
-0.08308537422752059
-0.01538618041249662
-0.05231301340249961
-0.07693090206251085
-0.05846748556750937
0.01538618041249662
-0.0707764298975011
-0.08308537422752059
-0.1015487907225221
-0.08923984639250257
-0.08923984639250257
-0.12001220721752358
-0.16309351237253633
-0.02154065257750637
-0.1384756237125251
-0.1692479845375183
-0.31695531649755804
-0.901630172172624
0.10770326288750408
0.16309351237253633
-0.07693090206251085
-0.033849596907498114
-0.23079270618753256
-0.1938658731975296
-0.18771140103251985
-0.1692479845375183
-0.1692479845375183
-0.16309351237253633
-0.13232115154751534
-0.01538618041249662
-0.18155692886753785
-0.14463009587750708
-0.13232115154751534
-0.15693904020752658
-0.13232115154751534
-0.11385773505251384
-0.1261666793825056
-0.02154065257750637
-0.1938658731975296
-0.16309351237253633
-0.0707764298975011
-0.04000406907250786
-0.13232115154751534
-0.12001220721752358
-0.12001220721752358
-0.04000406907250786
-0.1938658731975296
-0.17540245670252808
-0.1692479845375183
-0.17540245670252808
-0.15693904020752658
-0.1261666793825056
-0.09539431855751236
0.7908496732026148
-0.04000406907250786
-0.17540245670252808
-0.11385773505251384
-0.02769512474251612
-0.033849596907498114
-0.05231301340249961
0.009231708247514623
-0.33541873299255964
-0.6616057577376044
-0.32310978866254003
-0.2246382340225228
-0.23079270618753256
-0.21232928969253104
-0.16309351237253633
-0.14463009587750708
-0.10770326288750408
-0.21232928969253104
-0.1692479845375183
-0.13232115154751534
-0.11385773505251384
-0.11385773505251384
0.21232928969253104
0.9262480608326351
-0.7169960072226089
-0.6800691742326057
-0.2800284835075273
-0.2000203453625393
-0.17540245670252808
-0.16309351237253633
-0.21232928969253104
-0.1384756237125251
0.02769512474251612
-0.11385773505251384
-0.14463009587750708
-0.14463009587750708
-0.10770326288750408
-0.1261666793825056
-0.10770326288750408
-0.05231301340249961
-0.05846748556750937
-0.1384756237125251
-0.13232115154751534
-0.15078456804251686
-0.15078456804251686
-0.16309351237253633
-0.12001220721752358
-0.18771140103251985
-0.2369471783525424
-0.21232928969253104
-0.16309351237253633
-0.1261666793825056
-0.1261666793825056
-0.10770326288750408
-0.0707764298975011
-0.04615854123751762
-0.1015487907225221
-0.15693904020752658
-0.08308537422752059
-0.1015487907225221
-0.2061748175275213
-0.2061748175275213
-0.2369471783525424
-0.33541873299255964
-0.427735815467567
-0.5508252587675677
-0.5262073701075842
-1.073955392792647
-1.4124513618677115
-1.0431830319676536
-0.6800691742326057
-0.46466264845757
-0.3846545103125543
-0.40927239897256545
-0.33541873299255964
-0.3415732051575415
-0.30464637216753854
-0.32310978866254003
-0.3415732051575415
-0.2369471783525424
-0.26156506701252585
-0.31695531649755804
-0.2738740113425453
-0.24925612268253405
-0.23079270618753256
-0.360036621652543
-0.9508659494926462
0.1261666793825056
0.1015487907225221
-0.18771140103251985
-0.2800284835075273
-0.18155692886753785
-0.15693904020752658
-0.2000203453625393
-0.23079270618753256
-0.1384756237125251
-0.2184837618575408
-0.2554105948475438
-0.2246382340225228
-0.26156506701252585
-0.23079270618753256
-0.21232928969253104
-0.2246382340225228
-0.17540245670252808
-0.2554105948475438
-0.2554105948475438
-0.1384756237125251
-0.26771953917753555
-0.2554105948475438
-0.2554105948475438
-0.2184837618575408
-0.1261666793825056
-0.23079270618753256
-0.2431016505175243
-0.2184837618575408
-0.21232928969253104
-0.21232928969253104
-0.2000203453625393
-0.1692479845375183
-0.17540245670252808
-0.32310978866254003
-0.15693904020752658
-0.24925612268253405
-0.26771953917753555
-0.26771953917753555
-0.2431016505175243
-0.2000203453625393
-0.13232115154751534
-0.28618295567253704
-0.26156506701252585
-0.23079270618753256
-0.23079270618753256
-0.2369471783525424
-0.2431016505175243
-0.26156506701252585
-0.17540245670252808
-0.2000203453625393
-0.2738740113425453
-0.26156506701252585
-0.2738740113425453
-0.2246382340225228
-0.2184837618575408
-0.2246382340225228
-0.1692479845375183
0.04000406907250786
0.6369878690775933
-0.3415732051575415
-0.17540245670252808
-0.15078456804251686
-0.15078456804251686
-0.16309351237253633
-0.2984919000025288
-0.7108415350575992
-0.396963454642546
-0.2984919000025288
-0.2246382340225228
-0.21232928969253104
-0.1938658731975296
-0.13232115154751534
-0.08923984639250257
-0.2554105948475438
-0.1938658731975296
-0.18771140103251985
-0.17540245670252808
-0.16309351237253633
-0.14463009587750708
-0.1015487907225221
-0.033849596907498114
-0.21232928969253104
-0.16309351237253633
-0.11385773505251384
-0.09539431855751236
-0.15693904020752658
-0.1692479845375183
-0.13232115154751534
-0.1015487907225221
-0.18771140103251985
-0.08923984639250257
-0.04615854123751762
-0.06462195773251911
-0.04000406907250786
0.16309351237253633
0.05846748556750937
0.02154065257750637
-0.21232928969253104
-0.18771140103251985
-0.1261666793825056
-0.14463009587750708
-0.15693904020752658
-0.15693904020752658
-0.13232115154751534
-0.07693090206251085
-0.2554105948475438
-0.2061748175275213
-0.21232928969253104
-0.2246382340225228
-0.31695531649755804
-0.24925612268253405
-0.17540245670252808
-0.15078456804251686
-0.3415732051575415
-0.28618295567253704
-0.24925612268253405
-0.24925612268253405
-0.2369471783525424
-0.2246382340225228
-0.17540245670252808
-0.30464637216753854
-1.0124106711426328
0.08923984639250257
0.1384756237125251
-0.033849596907498114
-0.10770326288750408
-0.1384756237125251
-0.11385773505251384
-0.11385773505251384
-0.18771140103251985
-0.13232115154751534
-0.09539431855751236
-0.10770326288750408
-0.1015487907225221
-0.1015487907225221
-0.04615854123751762
-0.04000406907250786
-0.2000203453625393
-0.2246382340225228
-0.18771140103251985
-0.1384756237125251
-0.18155692886753785
-0.21232928969253104
-0.05231301340249961
-0.11385773505251384
-0.2431016505175243
-0.15693904020752658
-0.15078456804251686
-0.18155692886753785
-0.2000203453625393
-0.21232928969253104
-0.1384756237125251
-0.18155692886753785
-0.32310978866254003
-0.33541873299255964
-0.30464637216753854
-0.28618295567253704
-0.24925612268253405
-0.17540245670252808
-0.17540245670252808
-0.2984919000025288
-0.18771140103251985
-0.1261666793825056
-0.1015487907225221
-0.13232115154751534
-0.14463009587750708
-0.1384756237125251
-0.1261666793825056
-0.0707764298975011
-0.23079270618753256
-0.21232928969253104
-0.17540245670252808
-0.1692479845375183
-0.17540245670252808
-0.18771140103251985
-0.15693904020752658
-0.2184837618575408
-0.2800284835075273
-0.24925612268253405
0.0707764298975011
0.6123699804175823
-0.37850003814754446
-0.17540245670252808
0.2554105948475438
-0.6492968134075847
-0.8216220340276081
-0.34772767732255133
-0.2000203453625393
-0.13232115154751534
-0.14463009587750708
-0.1692479845375183
-0.02769512474251612
-0.14463009587750708
-0.1692479845375183
-0.13232115154751534
-0.1015487907225221
-0.11385773505251384
-0.08923984639250257
-0.033849596907498114
0.01538618041249662
-0.009231708247514623
-0.04615854123751762
-0.0707764298975011
-0.06462195773251911
-0.04000406907250786
-0.04000406907250786
-0.003077236082504875
0.1015487907225221
-0.05846748556750937
-0.08923984639250257
-0.08308537422752059
-0.15693904020752658
-0.15693904020752658
-0.10770326288750408
-0.1015487907225221
-0.01538618041249662
-0.15693904020752658
-0.1384756237125251
-0.09539431855751236
-0.08923984639250257
-0.04000406907250786
-0.01538618041249662
0.003077236082504875
0.11385773505251384
-0.07693090206251085
-0.07693090206251085
-0.05846748556750937
-0.033849596907498114
0.02154065257750637
-0.009231708247514623
-0.04000406907250786
0.6123699804175823
-0.003077236082504875
-0.2061748175275213
0.5015894814475731
0.15078456804251686
0.02154065257750637
-0.02769512474251612
-0.08308537422752059
-0.3108008443325483
-0.6677602299025862
-0.32310978866254003
-0.13232115154751534
-0.12001220721752358
-0.1938658731975296
-0.05231301340249961
0.003077236082504875
0.033849596907498114
-0.16309351237253633
-0.13232115154751534
-0.04615854123751762
0.05231301340249961
0.13232115154751534
0.1261666793825056
0.17540245670252808
0.2431016505175243
0.15693904020752658
0.23079270618753256
0.2246382340225228
0.1938658731975296
0.29233742783754685
0.26156506701252585
0.2246382340225228
0.29233742783754685
0.10770326288750408
0.06462195773251911
0.02769512474251612
0.02154065257750637
-0.01538618041249662
-0.009231708247514623
0.02154065257750637
0.12001220721752358
0.13232115154751534
0.2184837618575408
0.12001220721752358
0.07693090206251085
0.02769512474251612
0.02769512474251612
0.04615854123751762
0.07693090206251085
-0.01538618041249662
0.04615854123751762
0.05846748556750937
0.02769512474251612
0.05231301340249961
0.04000406907250786
0.04615854123751762
0.04615854123751762
-0.15078456804251686
-0.10770326288750408
-0.06462195773251911
-0.04000406907250786
-0.02154065257750637
-0.04615854123751762
-0.390808982477564
-0.6308333969125834
0.396963454642546
0.10770326288750408
-0.0707764298975011
-0.11385773505251384
-0.12001220721752358
0.2000203453625393
0.9693293659876481
-0.7231504793875909
-0.6677602299025862
-0.2554105948475438
-0.11385773505251384
-0.1015487907225221
-0.1384756237125251
-0.12001220721752358
-0.11385773505251384
-0.13232115154751534
-0.1938658731975296
-0.18771140103251985
-0.18155692886753785
-0.18771140103251985
-0.18771140103251985
-0.10770326288750408
-0.08923984639250257
-0.1384756237125251
-0.2184837618575408
-0.2246382340225228
-0.18155692886753785
-0.16309351237253633
-0.15078456804251686
-0.08923984639250257
-0.01538618041249662
-0.05846748556750937
-0.11385773505251384
-0.033849596907498114
-0.009231708247514623
-0.01538618041249662
0.06462195773251911
-0.033849596907498114
0.04615854123751762
0.01538618041249662
-0.06462195773251911
-0.02769512474251612
-0.04615854123751762
-0.08923984639250257
-0.1015487907225221
-0.12001220721752358
-0.07693090206251085
-0.16309351237253633
-0.18155692886753785
-0.05846748556750937
0.6123699804175823
0.7600773123775938
0.396963454642546
0.3846545103125543
0.3846545103125543
0.2554105948475438
0.17540245670252808
0.1938658731975296
0.1261666793825056
0.1384756237125251
0.17540245670252808
0.18771140103251985
0.2184837618575408
0.17540245670252808
0.15078456804251686
0.18771140103251985
0.3415732051575415
0.2738740113425453
0.06462195773251911
-0.4892805371175811
0.6308333969125834
0.5200528979425745
0.24925612268253405
0.26771953917753555
0.24925612268253405
0.26771953917753555
0.2800284835075273
0.2554105948475438
0.3108008443325483
0.1938658731975296
0.23079270618753256
0.34772767732255133
0.2554105948475438
0.2061748175275213
0.18771140103251985
0.2061748175275213
0.28618295567253704
0.18155692886753785
0.16309351237253633
0.15078456804251686
0.16309351237253633
0.17540245670252808
0.1938658731975296
0.18771140103251985
0.29233742783754685
0.14463009587750708
0.02769512474251612
-0.009231708247514623
0.05846748556750937
0.04000406907250786
0.009231708247514623
-0.04000406907250786
-0.003077236082504875
-0.24925612268253405
-0.36619109381755277
-0.6923781185625978
-1.6586302484677409
-1.25243508557768
-0.7970041453676248
-0.5692886752625692
-0.33541873299255964
-0.37850003814754446
-0.33541873299255964
-0.3292642608275498
-0.28618295567253704
-0.2431016505175243
-0.2431016505175243
-0.26771953917753555
-0.18771140103251985
-0.35388214948756086
-0.31695531649755804
-0.2184837618575408
-0.26771953917753555
-0.30464637216753854
-0.2800284835075273
-0.033849596907498114
0.49543500928256323
0.3108008443325483
0.8647033391826209
-0.30464637216753854
-0.15078456804251686
-0.11385773505251384
-0.15693904020752658
-0.1692479845375183
-0.42158134330255725
-0.7908496732026148
-0.46466264845757
-0.31695531649755804
-0.2431016505175243
-0.23079270618753256
-0.4400447597975588
-0.7046870628925892
-0.3292642608275498
-0.2984919000025288
-0.24925612268253405
-0.2246382340225228
-0.21232928969253104
-0.18771140103251985
-0.18155692886753785
-0.1938658731975296
-0.10770326288750408
-0.21232928969253104
-0.2061748175275213
-0.23079270618753256
-0.2369471783525424
-0.15693904020752658
-0.18771140103251985
-0.10770326288750408
-0.05231301340249961
-0.2246382340225228
-0.17540245670252808
-0.18155692886753785
-0.2000203453625393
-0.17540245670252808
-0.1015487907225221
-0.08923984639250257
-0.09539431855751236
-0.1692479845375183
-0.13232115154751534
-0.15693904020752658
-0.06462195773251911
-0.2431016505175243
-0.2000203453625393
-0.14463009587750708
-0.12001220721752358
-0.26156506701252585
-0.2431016505175243
-0.18155692886753785
-0.2061748175275213
-0.2246382340225228
-0.24925612268253405
-0.2369471783525424
-0.1384756237125251
-0.2431016505175243
-0.30464637216753854
-0.23079270618753256
-0.2369471783525424
-0.2984919000025288
-0.2800284835075273
-0.2369471783525424
-0.34772767732255133
-1.0124106711426328
0.10770326288750408
0.12001220721752358
-0.12001220721752358
-0.06462195773251911
-0.08923984639250257
-0.07693090206251085
-0.0707764298975011
-0.09539431855751236
-0.05846748556750937
-0.15693904020752658
-0.14463009587750708
-0.1384756237125251
-0.13232115154751534
-0.08923984639250257
-0.12001220721752358
-0.21232928969253104
-0.1384756237125251
-0.23079270618753256
-0.23079270618753256
-0.1938658731975296
-0.18155692886753785
-0.12001220721752358
-0.10770326288750408
-0.12001220721752358
-0.1692479845375183
-0.14463009587750708
-0.11385773505251384
-0.12001220721752358
-0.10770326288750408
-0.05846748556750937
-0.08308537422752059
-0.06462195773251911
-0.033849596907498114
-0.0707764298975011
-0.08308537422752059
-0.1015487907225221
-0.1261666793825056
-0.09539431855751236
-0.2800284835075273
-0.28618295567253704
-0.0707764298975011
-0.009231708247514623
-0.02769512474251612
-0.11385773505251384
-0.14463009587750708
-0.1015487907225221
-0.16309351237253633
-0.1692479845375183
-0.15078456804251686
-0.1261666793825056
-0.1261666793825056
-0.1692479845375183
-0.13232115154751534
0.0707764298975011
-0.11385773505251384
-0.1692479845375183
-0.18771140103251985
0.1384756237125251
0.6369878690775933
-0.3108008443325483
-0.12001220721752358
0.14463009587750708
-0.26771953917753555
-0.9139391165026156
0.33541873299255964
0.009231708247514623
-0.1015487907225221
-0.0707764298975011
0.003077236082504875
-0.08923984639250257
-0.6800691742326057
-0.433890287632549
-0.2369471783525424
-0.15693904020752658
-0.10770326288750408
-0.13232115154751534
-0.1261666793825056
-0.05231301340249961
-0.15078456804251686
-0.10770326288750408
-0.07693090206251085
-0.08308537422752059
-0.11385773505251384
-0.1015487907225221
-0.08923984639250257
0.02154065257750637
-0.14463009587750708
-0.08308537422752059
-0.09539431855751236
-0.13232115154751534
-0.08923984639250257
-0.05231301340249961
-0.05231301340249961
0.06462195773251911
-0.0707764298975011
-0.04615854123751762
0.1261666793825056
-0.06462195773251911
-0.2800284835075273
-0.1692479845375183
-0.09539431855751236
0.003077236082504875
-0.2369471783525424
-0.18771140103251985
-0.1692479845375183
-0.17540245670252808
-0.15693904020752658
-0.16309351237253633
-0.15693904020752658
-0.05846748556750937
-0.2369471783525424
-0.2184837618575408
-0.13232115154751534
-0.0707764298975011
-0.14463009587750708
-0.1692479845375183
-0.13232115154751534
-0.1384756237125251
-0.26771953917753555
-0.2554105948475438
-0.2554105948475438
-0.33541873299255964
-0.2800284835075273
-0.2184837618575408
-0.3723455659825625
-0.8339309783576276
0.1938658731975296
0.26771953917753555
-0.0707764298975011
-0.16309351237253633
-0.1938658731975296
-0.2000203453625393
-0.18155692886753785
-0.08923984639250257
-0.2431016505175243
-0.2246382340225228
-0.2061748175275213
-0.23079270618753256
-0.23079270618753256
-0.29233742783754685
-0.28618295567253704
-0.21232928969253104
-0.18155692886753785
-0.26771953917753555
-0.2554105948475438
-0.21232928969253104
-0.17540245670252808
-0.2184837618575408
-0.1938658731975296
-0.1015487907225221
-0.2431016505175243
-0.1938658731975296
-0.1384756237125251
-0.15078456804251686
-0.21232928969253104
-0.2000203453625393
-0.11385773505251384
-0.0707764298975011
-0.29233742783754685
-0.2061748175275213
-0.1938658731975296
-0.17540245670252808
-0.18155692886753785
-0.15693904020752658
-0.12001220721752358
-0.08923984639250257
-0.1938658731975296
-0.18155692886753785
-0.05231301340249961
-0.12001220721752358
-0.23079270618753256
-0.18155692886753785
-0.18771140103251985
-0.2369471783525424
-0.26156506701252585
-0.24925612268253405
-0.1938658731975296
-0.17540245670252808
-0.1692479845375183
0.15078456804251686
0.6431423412426027
-0.8216220340276081
-0.6369878690775933
-0.31695531649755804
-0.23079270618753256
-0.26156506701252585
-0.17540245670252808
-0.07693090206251085
-0.06462195773251911
-0.13232115154751534
-0.18155692886753785
-0.14463009587750708
-0.15693904020752658
-0.18155692886753785
-0.2061748175275213
-0.2061748175275213
-0.12001220721752358
-0.1261666793825056
-0.2061748175275213
-0.13232115154751534
-0.11385773505251384
-0.01538618041249662
-0.06462195773251911
-0.1938658731975296
-0.06462195773251911
-0.09539431855751236
-0.2000203453625393
-0.15078456804251686
-0.14463009587750708
-0.15693904020752658
-0.18155692886753785
-0.18771140103251985
-0.16309351237253633
-0.2061748175275213
-0.2184837618575408
-0.21232928969253104
-0.17540245670252808
-0.10770326288750408
-0.15693904020752658
-0.18771140103251985
-0.09539431855751236
-0.12001220721752358
-0.15693904020752658
-0.12001220721752358
-0.17540245670252808
-0.17540245670252808
-0.17540245670252808
-0.1692479845375183
0.3415732051575415
-0.09539431855751236
-0.5877520917575707
-0.2738740113425453
-0.30464637216753854
-0.24925612268253405
-0.21232928969253104
-0.2184837618575408
-0.15078456804251686
-0.2554105948475438
-0.2369471783525424
-0.2061748175275213
-0.2431016505175243
-0.2431016505175243
-0.3415732051575415
-0.9077846443376336
0.18155692886753785
0.06462195773251911
-0.09539431855751236
-0.2184837618575408
-0.2184837618575408
-0.2000203453625393
-0.17540245670252808
-0.17540245670252808
-0.0707764298975011
-0.18155692886753785
-0.18771140103251985
-0.18771140103251985
-0.1384756237125251
-0.1384756237125251
-0.15693904020752658
-0.1384756237125251
-0.08923984639250257
-0.12001220721752358
-0.17540245670252808
-0.17540245670252808
-0.1261666793825056
-0.12001220721752358
-0.18155692886753785
-0.1938658731975296
-0.08308537422752059
-0.21232928969253104
-0.2000203453625393
-0.1384756237125251
-0.10770326288750408
-0.13232115154751534
-0.1938658731975296
-0.16309351237253633
0.2984919000025288
0.24925612268253405
-0.02769512474251612
-0.08923984639250257
-0.10770326288750408
-0.08923984639250257
-0.11385773505251384
-0.11385773505251384
-0.01538618041249662
-0.15693904020752658
-0.14463009587750708
-0.16309351237253633
-0.1261666793825056
-0.12001220721752358
-0.14463009587750708
-0.4831260649525715
-0.45850817629256013
-0.3415732051575415
-0.2246382340225228
-0.2061748175275213
-0.2000203453625393
-0.1938658731975296
-0.18155692886753785
-0.1692479845375183
-0.1384756237125251
0.09539431855751236
0.8093130896976164
-0.396963454642546
-0.2554105948475438
-0.15078456804251686
-0.08923984639250257
-0.2000203453625393
-0.433890287632549
-0.6923781185625978
-0.3846545103125543
-0.2554105948475438
-0.21232928969253104
-0.18155692886753785
-0.17540245670252808
-0.11385773505251384
-0.06462195773251911
-0.2000203453625393
-0.18155692886753785
-0.1938658731975296
-0.1384756237125251
-0.06462195773251911
-0.06462195773251911
-0.05846748556750937
-0.07693090206251085
-0.21232928969253104
-0.1384756237125251
-0.18155692886753785
-0.2000203453625393
-0.17540245670252808
-0.18155692886753785
-0.14463009587750708
-0.12001220721752358
-0.23079270618753256
-0.21232928969253104
-0.2061748175275213
-0.18771140103251985
-0.17540245670252808
-0.1384756237125251
-0.13232115154751534
-0.14463009587750708
-0.21232928969253104
-0.14463009587750708
-0.13232115154751534
-0.13232115154751534
-0.16309351237253633
-0.11385773505251384
-0.08923984639250257
-0.10770326288750408
-0.2431016505175243
-0.1692479845375183
-0.14463009587750708
-0.15078456804251686
-0.13232115154751534
-0.11385773505251384
-0.09539431855751236
-0.009231708247514623
-0.08923984639250257
-0.15078456804251686
-0.1384756237125251
-0.1261666793825056
-0.14463009587750708
-0.1384756237125251
-0.08308537422752059
-0.26156506701252585
-0.7723862567076134
0.575443147427579
0.3723455659825625
0.02154065257750637
-0.05846748556750937
-0.08923984639250257
-0.033849596907498114
-0.0707764298975011
-0.1938658731975296
-0.13232115154751534
-0.11385773505251384
-0.1261666793825056
-0.12001220721752358
-0.10770326288750408
0.1692479845375183
0.8462399226876194
-0.396963454642546
-0.2246382340225228
-0.1384756237125251
-0.07693090206251085
-0.08308537422752059
-0.10770326288750408
-0.08923984639250257
-0.6308333969125834
-0.4831260649525715
-0.2369471783525424
-0.2000203453625393
-0.14463009587750708
-0.16309351237253633
-0.1692479845375183
0.06462195773251911
0.18771140103251985
-0.04000406907250786
-0.13232115154751534
-0.13232115154751534
-0.1384756237125251
-0.14463009587750708
-0.13232115154751534
-0.1015487907225221
-0.18155692886753785
-0.2184837618575408
-0.15693904020752658
-0.13232115154751534
-0.1261666793825056
-0.1261666793825056
-0.42158134330255725
-0.6000610360875902
-0.427735815467567
-0.31695531649755804
-0.2431016505175243
-0.18155692886753785
-0.18155692886753785
-0.16309351237253633
-0.1938658731975296
-0.08308537422752059
-0.16309351237253633
-0.1938658731975296
-0.18771140103251985
0.15693904020752658
0.6923781185625978
-0.2000203453625393
-0.08923984639250257
-0.18155692886753785
-0.7169960072226089
-0.3723455659825625
-0.23079270618753256
-0.23079270618753256
-0.17540245670252808
-0.15693904020752658
-0.18155692886753785
-0.07693090206251085
-0.18155692886753785
-0.2000203453625393
-0.21232928969253104
-0.15078456804251686
-0.13232115154751534
-0.24925612268253405
-0.12001220721752358
-0.02154065257750637
-0.2000203453625393
-0.18771140103251985
-0.1692479845375183
-0.18155692886753785
-0.18155692886753785
-0.1938658731975296
-0.15693904020752658
-0.05231301340249961
-0.24925612268253405
-0.24925612268253405
-0.18155692886753785
-0.0707764298975011
-0.11385773505251384
-0.18155692886753785
-0.15693904020752658
-0.08308537422752059
-0.1938658731975296
-0.2000203453625393
-0.1938658731975296
-0.17540245670252808
-0.15693904020752658
-0.15693904020752658
-0.16309351237253633
-0.12001220721752358
-0.26771953917753555
-0.13232115154751534
-0.14463009587750708
-0.2554105948475438
-0.2061748175275213
-0.15693904020752658
-0.1384756237125251
-0.11385773505251384
-0.15078456804251686
-0.15078456804251686
-0.1692479845375183
-0.16309351237253633
-0.2061748175275213
-0.1692479845375183
-0.15078456804251686
-0.08923984639250257
-0.1938658731975296
-0.1015487907225221
-0.31695531649755804
-0.8400854505226096
0.2246382340225228
0.2184837618575408
-0.05231301340249961
-0.033849596907498114
-0.14463009587750708
-0.15693904020752658
-0.16309351237253633
-0.16309351237253633
-0.1692479845375183
-0.15078456804251686
-0.1384756237125251
-0.1015487907225221
-0.36619109381755277
-0.24925612268253405
-0.1692479845375183
-0.1938658731975296
-0.1938658731975296
-0.18155692886753785
-0.1692479845375183
-0.15078456804251686
-0.21232928969253104
-0.18155692886753785
-0.21232928969253104
-0.1384756237125251
-0.15693904020752658
-0.15693904020752658
-0.033849596907498114
0.02154065257750637
-0.2000203453625393
-0.2061748175275213
-0.17540245670252808
-0.1692479845375183
-0.16309351237253633
-0.15078456804251686
-0.15693904020752658
-0.14463009587750708
-0.23079270618753256
-0.1938658731975296
-0.2061748175275213
-0.23079270618753256
-0.2246382340225228
-0.09539431855751236
-0.12001220721752358
-0.16309351237253633
-0.2061748175275213
-0.15693904020752658
-0.1692479845375183
-0.18771140103251985
-0.17540245670252808
-0.15078456804251686
-0.08923984639250257
-0.11385773505251384
-0.2000203453625393
-0.16309351237253633
-0.1938658731975296
-0.2000203453625393
0.1261666793825056
0.7046870628925892
0.901630172172624
-0.7046870628925892
-0.538516314437576
-0.26156506701252585
-0.18771140103251985
-0.16309351237253633
-0.15078456804251686
-0.15693904020752658
-0.05846748556750937
-0.11385773505251384
-0.2554105948475438
-0.2061748175275213
-0.18771140103251985
-0.5015894814475731
-0.6739147020675963
-0.36619109381755277
-0.2184837618575408
-0.2000203453625393
-0.2738740113425453
-0.26771953917753555
-0.18771140103251985
-0.1384756237125251
-0.15693904020752658
-0.15693904020752658
-0.10770326288750408
-0.18771140103251985
-0.23079270618753256
-0.18155692886753785
-0.14463009587750708
-0.31695531649755804
-0.26156506701252585
-0.2431016505175243
-0.1692479845375183
-0.2431016505175243
-0.2554105948475438
-0.2184837618575408
-0.1938658731975296
-0.15693904020752658
-0.1692479845375183
-0.2184837618575408
0.3292642608275498
-0.11385773505251384
-0.5631342030975872
-0.18155692886753785
-0.2369471783525424
-0.21232928969253104
-0.2000203453625393
-0.2184837618575408
-0.13232115154751534
-0.2184837618575408
-0.24925612268253405
-0.23079270618753256
-0.21232928969253104
-0.2000203453625393
-0.1938658731975296
-0.1692479845375183
-0.0707764298975011
-0.18155692886753785
-0.18771140103251985
-0.17540245670252808
-0.16309351237253633
-0.17540245670252808
-0.33541873299255964
-0.895475700007614
0.2431016505175243
0.11385773505251384
-0.13232115154751534
-0.15078456804251686
-0.1692479845375183
-0.2000203453625393
-0.16309351237253633
-0.21232928969253104
-0.13232115154751534
-0.2738740113425453
-0.31695531649755804
-0.2431016505175243
-0.2369471783525424
-0.1938658731975296
-0.18771140103251985
-0.1938658731975296
-0.10770326288750408
-0.17540245670252808
-0.2000203453625393
-0.2061748175275213
-0.16309351237253633
-0.1692479845375183
-0.21232928969253104
-0.1384756237125251
-0.04000406907250786
-0.2369471783525424
-0.2000203453625393
-0.18155692886753785
-0.15693904020752658
-0.1384756237125251
-0.13232115154751534
-0.18155692886753785
-0.14463009587750708
-0.2369471783525424
-0.21232928969253104
-0.16309351237253633
-0.17540245670252808
-0.24925612268253405
-0.06462195773251911
0.28618295567253704
0.10770326288750408
-0.13232115154751534
-0.15693904020752658
-0.15693904020752658
-0.16309351237253633
-0.18155692886753785
-0.16309351237253633
-0.1384756237125251
-0.09539431855751236
-0.26771953917753555
-0.2184837618575408
-0.17540245670252808
-0.18771140103251985
-0.28618295567253704
-0.4708171206225797
-0.2984919000025288
-0.1692479845375183
0.07693090206251085
0.7846952010376053
-0.4523537041275505
-0.24925612268253405
-0.1692479845375183
-0.14463009587750708
-0.1261666793825056
-0.4400447597975588
-0.7046870628925892
-0.36619109381755277
-0.2738740113425453
-0.21232928969253104
-0.2554105948475438
-0.26156506701252585
-0.18771140103251985
-0.18771140103251985
-0.2738740113425453
-0.2246382340225228
-0.17540245670252808
-0.18155692886753785
-0.2369471783525424
-0.1692479845375183
-0.15078456804251686
-0.15078456804251686
-0.26771953917753555
-0.23079270618753256
-0.21232928969253104
-0.2369471783525424
-0.2061748175275213
-0.18155692886753785
-0.1261666793825056
0.5631342030975872
-0.9508659494926462
0.2184837618575408
0.1692479845375183
-0.04615854123751762
-0.11385773505251384
-0.12001220721752358
-0.1384756237125251
-0.6000610360875902
-0.6554512855725947
-0.2369471783525424
-0.2554105948475438
-0.23079270618753256
-0.2246382340225228
-0.2369471783525424
-0.18771140103251985
-0.1692479845375183
-0.2369471783525424
-0.21232928969253104
-0.21232928969253104
-0.1938658731975296
-0.2061748175275213
-0.18771140103251985
-0.15078456804251686
-0.13232115154751534
-0.1261666793825056
-0.12001220721752358
-0.15693904020752658
-0.14463009587750708
-0.15078456804251686
-0.15693904020752658
-0.1384756237125251
-0.1692479845375183
-0.2184837618575408
-0.2000203453625393
-0.18155692886753785
-0.18771140103251985
-0.2184837618575408
-0.18771140103251985
-0.15693904020752658
-0.2984919000025288
-0.32310978866254003
-0.2184837618575408
-0.2184837618575408
-0.18771140103251985
-0.2184837618575408
-0.2738740113425453
-0.21232928969253104
-0.24925612268253405
-0.2431016505175243
-0.18771140103251985
-0.1938658731975296
-0.2369471783525424
-0.2246382340225228
-0.18155692886753785
-0.1015487907225221
-0.17540245670252808
-0.23079270618753256
-0.2246382340225228
-0.2369471783525424
-0.23079270618753256
-0.2184837618575408
-0.2554105948475438
-0.3723455659825625
-0.2431016505175243
-0.05846748556750937
-0.15693904020752658
-0.18771140103251985
-0.2000203453625393
-0.16309351237253633
-0.09539431855751236
-0.07693090206251085
-0.17540245670252808
-0.2000203453625393
-0.16309351237253633
-0.1692479845375183
-0.2000203453625393
-0.17540245670252808
-0.2000203453625393
-0.18155692886753785
-0.2800284835075273
-0.2369471783525424
-0.21232928969253104
-0.26771953917753555
-0.17540245670252808
-0.2184837618575408
-0.2554105948475438
-0.13232115154751534
-0.2246382340225228
-0.24925612268253405
-0.2184837618575408
0.16309351237253633
0.8093130896976164
-0.427735815467567
-0.23079270618753256
-0.2984919000025288
-0.8277765061926179
-0.4831260649525715
-0.3292642608275498
-0.18771140103251985
-0.009231708247514623
-0.12001220721752358
-0.17540245670252808
-0.08923984639250257
-0.2246382340225228
-0.21232928969253104
-0.1938658731975296
-0.2000203453625393
-0.1938658731975296
-0.18155692886753785
-0.1692479845375183
-0.08308537422752059
-0.28618295567253704
-0.2800284835075273
-0.29233742783754685
-0.30464637216753854
-0.26156506701252585
-0.2184837618575408
-0.2061748175275213
-0.12001220721752358
-0.21232928969253104
-0.18155692886753785
-0.1938658731975296
-0.1692479845375183
-0.16309351237253633
-0.1692479845375183
-0.17540245670252808
-0.14463009587750708
-0.26156506701252585
-0.2369471783525424
-0.2000203453625393
-0.1692479845375183
-0.2184837618575408
-0.21232928969253104
-0.18155692886753785
-0.08923984639250257
-0.2554105948475438
-0.2369471783525424
-0.2246382340225228
-0.2061748175275213
-0.18771140103251985
-0.16309351237253633
-0.17540245670252808
-0.033849596907498114
-0.2184837618575408
-0.2184837618575408
-0.1692479845375183
-0.14463009587750708
-0.15693904020752658
-0.2246382340225228
-0.18771140103251985
-0.1015487907225221
-0.23079270618753256
-0.18771140103251985
-0.34772767732255133
-0.9385570051626267
0.08308537422752059
0.11385773505251384
-0.08923984639250257
-0.09539431855751236
-0.29233742783754685
-0.23079270618753256
-0.16309351237253633
-0.1384756237125251
-0.2184837618575408
-0.23079270618753256
-0.13232115154751534
-0.11385773505251384
-0.2431016505175243
-0.1938658731975296
-0.13232115154751534
-0.14463009587750708
-0.2061748175275213
-0.14463009587750708
-0.06462195773251911
-0.13232115154751534
-0.2184837618575408
-0.2000203453625393
-0.16309351237253633
-0.16309351237253633
-0.18155692886753785
-0.1938658731975296
-0.17540245670252808
-0.1692479845375183
-0.2431016505175243
-0.2061748175275213
-0.2000203453625393
-0.2061748175275213
-0.21232928969253104
-0.18155692886753785
-0.15693904020752658
-0.1261666793825056
-0.1938658731975296
-0.21232928969253104
-0.2000203453625393
-0.2000203453625393
-0.18771140103251985
-0.2000203453625393
-0.18155692886753785
-0.18771140103251985
-0.2431016505175243
-0.23079270618753256
-0.2431016505175243
-0.1692479845375183
-0.13232115154751534
-0.21232928969253104
-0.13232115154751534
-0.18155692886753785
-0.26771953917753555
-0.2000203453625393
-0.1692479845375183
-0.16309351237253633
-0.1692479845375183
0.1015487907225221
0.5939065639225805
-0.8770122835126126
-0.6185244525825918
-0.3292642608275498
-0.1692479845375183
-0.09539431855751236
-0.18155692886753785
-0.16309351237253633
-0.11385773505251384
-0.16309351237253633
-0.2246382340225228
-0.2061748175275213
-0.2000203453625393
-0.1692479845375183
-0.16309351237253633
-0.17540245670252808
-0.1692479845375183
-0.18155692886753785
-0.2431016505175243
-0.2061748175275213
-0.2000203453625393
-0.21232928969253104
-0.18155692886753785
-0.2061748175275213
-0.1384756237125251
-0.18155692886753785
-0.2061748175275213
-0.18771140103251985
-0.2000203453625393
-0.17540245670252808
-0.17540245670252808
-0.17540245670252808
-0.12001220721752358
-0.2431016505175243
-0.033849596907498114
0.427735815467567
0.11385773505251384
-0.02769512474251612
-0.07693090206251085
-0.13232115154751534
-0.05231301340249961
-0.18155692886753785
-0.2061748175275213
-0.2000203453625393
-0.16309351237253633
-0.2184837618575408
-0.18771140103251985
-0.18771140103251985
-0.13232115154751534
-0.4892805371175811
-0.8277765061926179
-0.4892805371175811
-0.3415732051575415
-0.26156506701252585
-0.24925612268253405
-0.26771953917753555
-0.2061748175275213
-0.26156506701252585
-0.2738740113425453
-0.2800284835075273
-0.2800284835075273
-0.26771953917753555
-0.35388214948756086
-0.9262480608326351
0.3292642608275498
0.3723455659825625
-0.04000406907250786
-0.1015487907225221
-0.15078456804251686
-0.15693904020752658
-0.15078456804251686
-0.15078456804251686
-0.0707764298975011
-0.2246382340225228
-0.23079270618753256
-0.2246382340225228
-0.2000203453625393
-0.2246382340225228
-0.24925612268253405
-0.2369471783525424
-0.13232115154751534
-0.2738740113425453
-0.2369471783525424
-0.2061748175275213
-0.2061748175275213
-0.18771140103251985
-0.18155692886753785
-0.1938658731975296
-0.13232115154751534
-0.2369471783525424
-0.1938658731975296
-0.1938658731975296
-0.21232928969253104
-0.2246382340225228
-0.396963454642546
-0.390808982477564
-0.1938658731975296
-0.2738740113425453
-0.2738740113425453
-0.2369471783525424
-0.16309351237253633
-0.16309351237253633
-0.2000203453625393
-0.17540245670252808
0.6923781185625978
-0.009231708247514623
-0.26771953917753555
-0.17540245670252808
-0.1261666793825056
0.003077236082504875
-0.11385773505251384
-0.06462195773251911
-0.3723455659825625
-0.7846952010376053
-0.40927239897256545
-0.2554105948475438
-0.2369471783525424
-0.2431016505175243
-0.21232928969253104
-0.2061748175275213
-0.1384756237125251
0.033849596907498114
0.7477683680476023
-0.427735815467567
-0.21232928969253104
-0.2738740113425453
-0.2369471783525424
-0.2000203453625393
-0.5692886752625692
-0.7231504793875909
-0.37850003814754446
-0.28618295567253704
-0.24925612268253405
-0.26156506701252585
-0.23079270618753256
-0.2061748175275213
-0.1938658731975296
-0.2738740113425453
-0.23079270618753256
-0.11385773505251384
-0.18771140103251985
-0.2000203453625393
-0.17540245670252808
-0.15693904020752658
-0.1692479845375183
-0.28618295567253704
-0.2246382340225228
-0.23079270618753256
-0.21232928969253104
-0.2000203453625393
-0.17540245670252808
-0.11385773505251384
-0.1384756237125251
-0.28618295567253704
-0.46466264845757
-0.36619109381755277
-0.2738740113425453
-0.2061748175275213
-0.2246382340225228
-0.18155692886753785
-0.15693904020752658
-0.23079270618753256
-0.2369471783525424
-0.2554105948475438
-0.2246382340225228
-0.2000203453625393
-0.23079270618753256
-0.24925612268253405
-0.13232115154751534
-0.1384756237125251
-0.18155692886753785
-0.18155692886753785
-0.18771140103251985
-0.18771140103251985
-0.17540245670252808
-0.1692479845375183
-0.2246382340225228
-0.24925612268253405
-0.21232928969253104
-0.2184837618575408
-0.2369471783525424
-0.2184837618575408
-0.28618295567253704
-0.1692479845375183
-0.3108008443325483
-1.000101726812641
0.08923984639250257
0.15078456804251686
-0.10770326288750408
-0.1261666793825056
-0.17540245670252808
-0.1692479845375183
-0.2061748175275213
-0.2800284835075273
-0.18771140103251985
-0.15078456804251686
-0.18155692886753785
-0.2184837618575408
-0.04615854123751762
-0.08923984639250257
-0.21232928969253104
-0.2184837618575408
-0.23079270618753256
-0.26156506701252585
-0.2000203453625393
-0.21232928969253104
-0.2738740113425453
0.2800284835075273
-0.1384756237125251
-0.5508252587675677
-0.2738740113425453
-0.2554105948475438
-0.2554105948475438
-0.2000203453625393
-0.1938658731975296
-0.1015487907225221
-0.2000203453625393
-0.2369471783525424
-0.2246382340225228
-0.2000203453625393
-0.16309351237253633
-0.18155692886753785
-0.1938658731975296
-0.11385773505251384
-0.21232928969253104
-0.18155692886753785
-0.23079270618753256
-0.26771953917753555
-0.18771140103251985
-0.1692479845375183
-0.1938658731975296
-0.12001220721752358
-0.24925612268253405
-0.26156506701252585
-0.2246382340225228
-0.2184837618575408
-0.1692479845375183
-0.17540245670252808
-0.23079270618753256
-0.1384756237125251
-0.28618295567253704
-0.26156506701252585
-0.2431016505175243
0.08308537422752059
0.6062155082525723
-0.396963454642546
-0.2554105948475438
-0.396963454642546
-0.7970041453676248
-0.5015894814475731
-0.4154268711375475
-0.34772767732255133
-0.34772767732255133
-0.3292642608275498
-0.31695531649755804
-0.2738740113425453
-0.4154268711375475
-0.3723455659825625
-0.3292642608275498
-0.3292642608275498
-0.36619109381755277
-0.36619109381755277
-0.3415732051575415
-0.32310978866254003
-0.49543500928256323
-0.47697159278756174
-0.46466264845757
-0.47697159278756174
-0.4831260649525715
-0.5015894814475731
-0.47697159278756174
-0.390808982477564
-0.5692886752625692
-0.47697159278756174
-0.5446707866025856
-0.575443147427579
-0.5815976195925888
-0.5508252587675677
-0.5138984257775646
-0.4708171206225797
-0.6431423412426027
-0.6062155082525723
-0.5815976195925888
-0.5815976195925888
-0.6123699804175823
-0.5508252587675677
-0.5138984257775646
-0.427735815467567
-0.6739147020675963
-0.6800691742326057
-0.6369878690775933
-0.5877520917575707
-0.6000610360875902
-0.6062155082525723
-0.6246789247476012
-0.6185244525825918
-0.8216220340276081
-0.7539228402126119
-0.7293049515526008
-0.7354594237176102
-0.7416138958825924
-0.7416138958825924
-0.6123699804175823
-0.46466264845757
-0.6554512855725947
-0.5569797309325777
-0.6800691742326057
-1.2708985020726815
-0.2000203453625393
-0.15078456804251686
-0.3415732051575415
-0.3723455659825625
-0.46466264845757
-0.40311792680755576
-0.4892805371175811
-0.44619923196256844
-0.45850817629256013
-0.40311792680755576
-0.35388214948756086
-0.396963454642546
-0.5262073701075842
-0.5262073701075842
-0.5323618422725662
-0.5262073701075842
-0.5323618422725662
-0.5569797309325777
-0.5508252587675677
-0.5323618422725662
-0.5939065639225805
-0.538516314437576
-0.5323618422725662
-0.5200528979425745
-0.45850817629256013
-0.4831260649525715
-0.427735815467567
-0.390808982477564
-0.5077439536125827
-0.44619923196256844
-0.3846545103125543
-0.40311792680755576
-0.46466264845757
-0.433890287632549
-0.3846545103125543
-0.396963454642546
-0.49543500928256323
-0.46466264845757
-0.4708171206225797
-0.37850003814754446
-0.4708171206225797
-0.4708171206225797
-0.42158134330255725
-0.3846545103125543
-0.49543500928256323
-0.5015894814475731
-0.44619923196256844
-0.396963454642546
-0.390808982477564
-0.433890287632549
-0.37850003814754446
-0.390808982477564
-0.49543500928256323
-0.49543500928256323
-0.360036621652543
-0.33541873299255964
-0.390808982477564
-0.07693090206251085
0.396963454642546
-1.0678009206276373
-0.7846952010376053
-0.5323618422725662
-0.4708171206225797
-0.44619923196256844
-0.4400447597975588
-0.40927239897256545
-0.33541873299255964
-0.390808982477564
-0.390808982477564
-0.36619109381755277
-0.360036621652543
-0.34772767732255133
-0.3415732051575415
-0.3292642608275498
-0.26771953917753555
-0.28618295567253704
-0.3292642608275498
-0.37850003814754446
-0.3723455659825625
-0.35388214948756086
-0.34772767732255133
-0.3108008443325483
-0.26771953917753555
-0.390808982477564
-0.31695531649755804
-0.390808982477564
-0.36619109381755277
-0.40927239897256545
-0.360036621652543
-0.3292642608275498
-0.2246382340225228
-0.3292642608275498
-0.2800284835075273
-0.2369471783525424
-0.29233742783754685
-0.30464637216753854
-0.29233742783754685
-0.29233742783754685
-0.2000203453625393
-0.31695531649755804
-0.3292642608275498
-0.26771953917753555
-0.2738740113425453
-0.2554105948475438
-0.2369471783525424
-0.28618295567253704
-0.2369471783525424
-0.2431016505175243
-0.2431016505175243
-0.30464637216753854
-0.30464637216753854
-0.26156506701252585
-0.2431016505175243
-0.21232928969253104
0.3292642608275498
-0.2369471783525424
-0.6000610360875902
0.2738740113425453
-0.033849596907498114
-0.1261666793825056
-0.13232115154751534
-0.1692479845375183
-0.37850003814754446
-0.7600773123775938
-0.4523537041275505
-0.26156506701252585
-0.2000203453625393
-0.24925612268253405
-0.2184837618575408
-0.033849596907498114
-0.05846748556750937
-0.2061748175275213
-0.1938658731975296
-0.21232928969253104
-0.2000203453625393
-0.1692479845375183
-0.16309351237253633
-0.18771140103251985
-0.033849596907498114
-0.21232928969253104
-0.18771140103251985
-0.18771140103251985
-0.2800284835075273
-0.2000203453625393
-0.12001220721752358
-0.14463009587750708
-0.11385773505251384
-0.2431016505175243
-0.2000203453625393
-0.18155692886753785
-0.1384756237125251
-0.15078456804251686
-0.1938658731975296
-0.18155692886753785
-0.06462195773251911
-0.2554105948475438
-0.2369471783525424
-0.18771140103251985
0.003077236082504875
0.31695531649755804
0.04615854123751762
-0.02769512474251612
-0.009231708247514623
-0.18155692886753785
-0.14463009587750708
-0.13232115154751534
-0.13232115154751534
-0.1015487907225221
-0.10770326288750408
-0.07693090206251085
0.02769512474251612
-0.18155692886753785
-0.1015487907225221
-0.05846748556750937
0.05846748556750937
-0.02154065257750637
-0.07693090206251085
-0.3108008443325483
-0.7108415350575992
0.6554512855725947
1.0431830319676536
-0.15078456804251686
0.02154065257750637
0.04615854123751762
0.033849596907498114
0.02769512474251612
-0.360036621652543
-0.575443147427579
-0.575443147427579
-0.7662317845426038
-0.4154268711375475
-0.2984919000025288
-0.2369471783525424
-0.18155692886753785
-0.18155692886753785
-0.26771953917753555
-0.2369471783525424
-0.1938658731975296
-0.18771140103251985
-0.2000203453625393
-0.17540245670252808
-0.1384756237125251
-0.14463009587750708
-0.11385773505251384
-0.11385773505251384
-0.1261666793825056
-0.1261666793825056
-0.09539431855751236
-0.14463009587750708
-0.13232115154751534
-0.14463009587750708
-0.2000203453625393
-0.2061748175275213
-0.2061748175275213
-0.1692479845375183
-0.18771140103251985
-0.21232928969253104
-0.15693904020752658
-0.08923984639250257
-0.1938658731975296
-0.16309351237253633
-0.13232115154751534
-0.1384756237125251
-0.16309351237253633
-0.09539431855751236
-0.04615854123751762
-0.1261666793825056
-0.2369471783525424
-0.1261666793825056
-0.12001220721752358
-0.15078456804251686
-0.16309351237253633
-0.10770326288750408
-0.04615854123751762
-0.1261666793825056
-0.1692479845375183
-0.11385773505251384
-0.12001220721752358
-0.10770326288750408
-0.1261666793825056
-0.14463009587750708
-0.06462195773251911
-0.29233742783754685
-0.9077846443376336
0.1692479845375183
0.21232928969253104
-0.04615854123751762
-0.07693090206251085
-0.08923984639250257
-0.15693904020752658
-0.16309351237253633
-0.16309351237253633
-0.13232115154751534
-0.1015487907225221
-0.1384756237125251
-0.12001220721752358
-0.13232115154751534
0.35388214948756086
-0.12001220721752358
-0.5569797309325777
-0.2800284835075273
-0.26771953917753555
-0.2000203453625393
-0.08308537422752059
-0.13232115154751534
-0.05846748556750937
-0.15693904020752658
-0.1938658731975296
-0.1938658731975296
-0.14463009587750708
-0.15078456804251686
-0.18155692886753785
-0.18771140103251985
-0.0707764298975011
-0.1938658731975296
-0.2000203453625393
-0.2061748175275213
-0.2184837618575408
-0.08308537422752059
-0.1384756237125251
-0.1938658731975296
-0.12001220721752358
-0.2246382340225228
-0.2246382340225228
-0.24925612268253405
-0.2246382340225228
-0.2061748175275213
-0.2246382340225228
-0.23079270618753256
-0.09539431855751236
-0.2554105948475438
-0.2984919000025288
-0.31695531649755804
-0.42158134330255725
-0.36619109381755277
-0.35388214948756086
-0.33541873299255964
-0.24925612268253405
-0.36619109381755277
-0.35388214948756086
-0.427735815467567
-0.07693090206251085
0.7046870628925892
-0.5692886752625692
-0.36619109381755277
-0.49543500928256323
-0.9200935886676254
-0.47697159278756174
-0.3846545103125543
-0.433890287632549
-0.3415732051575415
-0.28618295567253704
-0.32310978866254003
-0.23079270618753256
-0.34772767732255133
-0.32310978866254003
-0.32310978866254003
-0.31695531649755804
-0.3108008443325483
-0.29233742783754685
-0.2369471783525424
-0.18155692886753785
-0.2800284835075273
-0.1938658731975296
-0.21232928969253104
-0.18155692886753785
-0.2246382340225228
-0.1938658731975296
-0.18771140103251985
-0.15693904020752658
-0.2984919000025288
-0.24925612268253405
-0.1938658731975296
-0.18155692886753785
-0.21232928969253104
-0.2061748175275213
-0.18771140103251985
0.1261666793825056
0.2184837618575408
-0.06462195773251911
-0.21232928969253104
-0.24925612268253405
-0.28618295567253704
-0.3108008443325483
-0.32310978866254003
-0.30464637216753854
-0.37850003814754446
-0.34772767732255133
-0.3292642608275498
-0.33541873299255964
-0.31695531649755804
-0.3846545103125543
-0.7354594237176102
-0.9200935886676254
-0.7231504793875909
-0.5692886752625692
-0.5569797309325777
-0.45850817629256013
-0.433890287632549
-0.42158134330255725
-0.360036621652543
-0.390808982477564
-0.4831260649525715
-0.4400447597975588
-0.538516314437576
-1.0862643371226666
-0.01538618041249662
-0.01538618041249662
-0.2246382340225228
-0.29233742783754685
-0.46466264845757
-0.433890287632549
-0.433890287632549
-0.4523537041275505
-0.45850817629256013
-0.4892805371175811
-0.433890287632549
-0.3846545103125543
-0.5015894814475731
-0.5200528979425745
-0.5015894814475731
-0.4523537041275505
-0.37850003814754446
-0.5692886752625692
-0.433890287632549
-0.3846545103125543
-0.5138984257775646
-0.5262073701075842
-0.5508252587675677
-0.5508252587675677
-0.5446707866025856
-0.49543500928256323
-0.40927239897256545
-0.433890287632549
-0.6185244525825918
-0.5815976195925888
-0.5015894814475731
-0.45850817629256013
-0.538516314437576
-0.5015894814475731
-0.4708171206225797
-0.4400447597975588
-0.5446707866025856
-0.5446707866025856
-0.5631342030975872
-0.5815976195925888
-0.5877520917575707
-0.5569797309325777
-0.5015894814475731
-0.5508252587675677
-0.6677602299025862
-0.575443147427579
-0.7231504793875909
-0.8400854505226096
-0.7169960072226089
-0.6369878690775933
-0.6185244525825918
-0.7108415350575992
-0.6923781185625978
-0.6492968134075847
-0.6739147020675963
-0.6554512855725947
-0.5877520917575707
-0.2554105948475438
0.2369471783525424
-1.2708985020726815
-0.8831667556776225
-0.2738740113425453
-0.427735815467567
-0.5815976195925888
-0.6062155082525723
-0.5939065639225805
0.1692479845375183
-0.10770326288750408
-1.5663131659927332
-0.2000203453625393
-0.36619109381755277
-0.5015894814475731
-0.6739147020675963
-0.6923781185625978
-0.7846952010376053
-1.3693700567126987
-1.326288751557686
-0.9939472546476313
-0.8462399226876194
-0.8031586175326066
-0.7970041453676248
-0.8154675618626261
-0.6985325907276074
-0.7723862567076134
-0.8216220340276081
-0.7354594237176102
-0.7231504793875909
-0.7477683680476023
-0.6862236463975879
-0.575443147427579
-0.42158134330255725
-0.36619109381755277
-0.36619109381755277
-0.3723455659825625
-0.34772767732255133
-0.31695531649755804
-0.3108008443325483
-0.2800284835075273
-0.2554105948475438
-0.37850003814754446
-0.34772767732255133
-0.3415732051575415
-0.3108008443325483
-0.2984919000025288
-0.2984919000025288
-0.16309351237253633
-0.15078456804251686
-0.31695531649755804
-0.24925612268253405
-0.2431016505175243
-0.28618295567253704
-0.2738740113425453
-0.35388214948756086
-0.3415732051575415
-0.2061748175275213
-0.31695531649755804
-0.2738740113425453
-0.2061748175275213
-0.21232928969253104
-0.2369471783525424
-0.11385773505251384
-0.1938658731975296
-0.07693090206251085
-0.14463009587750708
-0.1015487907225221
-0.0707764298975011
-0.2061748175275213
-0.26156506701252585
-0.1938658731975296
-0.3292642608275498
-0.8770122835126126
0.033849596907498114
0.033849596907498114
-0.17540245670252808
-0.15693904020752658
-0.09539431855751236
-0.1384756237125251
-0.24925612268253405
-0.0707764298975011
-0.16309351237253633
-0.18155692886753785
-0.14463009587750708
-0.1384756237125251
-0.2000203453625393
-0.2369471783525424
-0.2984919000025288
-0.26156506701252585
-0.36619109381755277
-0.37850003814754446
-0.40311792680755576
-0.31695531649755804
-0.3846545103125543
-0.396963454642546
-0.34772767732255133
-0.30464637216753854
-0.4154268711375475
-0.360036621652543
-0.36619109381755277
-0.35388214948756086
-0.32310978866254003
-0.2984919000025288
-0.2984919000025288
-0.2184837618575408
-0.33541873299255964
-0.30464637216753854
-0.26771953917753555
-0.31695531649755804
-0.2369471783525424
-0.17540245670252808
-0.15078456804251686
-0.18771140103251985
-0.28618295567253704
-0.26156506701252585
-0.29233742783754685
-0.31695531649755804
-0.2984919000025288
-0.29233742783754685
-0.26156506701252585
-0.2246382340225228
-0.05846748556750937
0.5323618422725662
-0.46466264845757
-0.2984919000025288
-0.24925612268253405
-0.2738740113425453
-0.3108008443325483
-0.7108415350575992
-0.8216220340276081
-0.5262073701075842
-0.4523537041275505
-0.396963454642546
-0.3723455659825625
-0.33541873299255964
-0.2984919000025288
-0.2984919000025288
-0.396963454642546
-0.3108008443325483
-0.31695531649755804
-0.33541873299255964
-0.31695531649755804
-0.36619109381755277
-0.31695531649755804
-0.34772767732255133
-0.4523537041275505
-0.4154268711375475
-0.4154268711375475
-0.4523537041275505
-0.44619923196256844
-0.4708171206225797
-0.433890287632549
-0.4892805371175811
-0.538516314437576
-0.5138984257775646
-0.5323618422725662
-0.5138984257775646
-0.5323618422725662
-0.5508252587675677
-0.4708171206225797
-0.5138984257775646
-0.5815976195925888
-0.575443147427579
-0.6492968134075847
-0.6308333969125834
-0.6185244525825918
-0.5815976195925888
-0.6492968134075847
-0.6862236463975879
-0.6492968134075847
-0.6369878690775933
-0.6123699804175823
-0.6308333969125834
-0.6616057577376044
-0.6246789247476012
-0.538516314437576
-0.5323618422725662
-0.5569797309325777
-0.5077439536125827
-0.42158134330255725
-0.42158134330255725
-0.15078456804251686
0.2738740113425453
-0.01538618041249662
-0.35388214948756086
-0.9939472546476313
0.07693090206251085
0.09539431855751236
-0.1384756237125251
-0.2061748175275213
-0.18155692886753785
-0.08308537422752059
-0.15078456804251686
-0.16309351237253633
-0.13232115154751534
-0.1692479845375183
-0.29233742783754685
-0.5508252587675677
-0.33541873299255964
-0.18155692886753785
-0.24925612268253405
-0.2061748175275213
-0.15693904020752658
-0.08923984639250257
-0.1015487907225221
-0.08923984639250257
-0.05846748556750937
0.04615854123751762
-0.06462195773251911
-0.05231301340249961
-0.033849596907498114
0.0707764298975011
0.02769512474251612
0.01538618041249662
0.033849596907498114
0.1261666793825056
-0.003077236082504875
-0.003077236082504875
0.05231301340249961
0.02769512474251612
-0.02769512474251612
-0.003077236082504875
0.02154065257750637
0.16309351237253633
0.02154065257750637
0.009231708247514623
0.0707764298975011
-0.05231301340249961
0.0707764298975011
0.36619109381755277
0.49543500928256323
0.6246789247476012
0.6800691742326057
0.6431423412426027
0.5323618422725662
0.4708171206225797
0.396963454642546
0.32310978866254003
0.2800284835075273
0.32310978866254003
0.12001220721752358
0.18771140103251985
0.1938658731975296
0.5138984257775646
1.184735891762656
-0.04615854123751762
0.10770326288750408
-0.04000406907250786
-0.47697159278756174
-0.06462195773251911
0.08308537422752059
0.10770326288750408
0.1261666793825056
0.13232115154751534
0.1261666793825056
0.1938658731975296
0.05231301340249961
-0.009231708247514623
0.04615854123751762
0.04615854123751762
0.02154065257750637
0.05231301340249961
0.06462195773251911
0.12001220721752358
-0.02154065257750637
-0.02769512474251612
-0.08923984639250257
-0.16309351237253633
-0.2000203453625393
-0.2800284835075273
-0.28618295567253704
-0.1938658731975296
-0.427735815467567
-0.4154268711375475
-0.4523537041275505
-0.49543500928256323
-0.4831260649525715
-0.4892805371175811
-0.5015894814475731
-0.47697159278756174
-0.6492968134075847
-0.6677602299025862
-0.6985325907276074
-0.7354594237176102
-0.8093130896976164
-0.7970041453676248
-0.6800691742326057
-0.6246789247476012
-0.7846952010376053
-0.7416138958825924
-0.6308333969125834
-0.6185244525825918
-0.6246789247476012
-0.5939065639225805
-0.5200528979425745
-0.45850817629256013
-0.5631342030975872
-0.5077439536125827
-0.47697159278756174
-0.5262073701075842
-0.5077439536125827
-0.6062155082525723
-0.6185244525825918
-0.5446707866025856
-0.6123699804175823
-0.5815976195925888
-0.6862236463975879
-1.2339716690826785
-0.17540245670252808
-0.14463009587750708
-0.3846545103125543
-0.4154268711375475
-0.46466264845757
-0.40311792680755576
-0.390808982477564
-0.31695531649755804
-0.09539431855751236
-0.2369471783525424
-0.26156506701252585
-0.2800284835075273
-0.3723455659825625
-0.2984919000025288
-0.26156506701252585
-0.26771953917753555
-0.28618295567253704
-0.26156506701252585
-0.02154065257750637
0.7169960072226089
-0.29233742783754685
-0.1692479845375183
-0.15693904020752658
-0.3723455659825625
-0.2800284835075273
-0.13232115154751534
-0.08308537422752059
-0.5446707866025856
-0.5015894814475731
-0.18771140103251985
-0.0707764298975011
-0.009231708247514623
-0.003077236082504875
-0.02769512474251612
0.009231708247514623
-0.06462195773251911
-0.1015487907225221
0.05231301340249961
0.009231708247514623
-0.0707764298975011
-0.06462195773251911
-0.07693090206251085
0.01538618041249662
-0.009231708247514623
-0.033849596907498114
0.009231708247514623
0.033849596907498114
0.02769512474251612
0.01538618041249662
0.04000406907250786
0.08923984639250257
0.033849596907498114
-0.02769512474251612
0.003077236082504875
-0.033849596907498114
-0.033849596907498114
-0.08308537422752059
0.18155692886753785
0.7970041453676248
-0.8523943948526291
-0.538516314437576
-0.2431016505175243
-0.16309351237253633
-0.14463009587750708
-0.10770326288750408
-0.09539431855751236
-0.04000406907250786
-0.16309351237253633
-0.2369471783525424
-0.2000203453625393
-0.18155692886753785
-0.14463009587750708
-0.1015487907225221
-0.08923984639250257
-0.0707764298975011
-0.1261666793825056
-0.10770326288750408
-0.1015487907225221
-0.10770326288750408
-0.16309351237253633
-0.18155692886753785
-0.15693904020752658
0.3108008443325483
0.2061748175275213
-0.09539431855751236
-0.11385773505251384
-0.11385773505251384
-0.09539431855751236
-0.09539431855751236
-0.06462195773251911
0.07693090206251085
-0.13232115154751534
-0.12001220721752358
-0.07693090206251085
-0.07693090206251085
-0.10770326288750408
-0.1384756237125251
-0.5323618422725662
-0.4708171206225797
-0.3723455659825625
-0.2800284835075273
-0.3108008443325483
-0.26771953917753555
-0.2431016505175243
-0.26771953917753555
-0.1692479845375183
-0.05231301340249961
-0.2984919000025288
-0.26156506701252585
-0.21232928969253104
-0.18771140103251985
-0.1261666793825056
-0.033849596907498114
-0.12001220721752358
-0.04615854123751762
-0.1692479845375183
-0.12001220721752358
-0.15693904020752658
-0.15078456804251686
-0.1015487907225221
-0.2554105948475438
-0.8400854505226096
0.24925612268253405
0.15693904020752658
-0.08308537422752059
-0.15693904020752658
-0.10770326288750408
0.14463009587750708
0.01538618041249662
-0.08923984639250257
-0.02769512474251612
-0.21232928969253104
-0.2061748175275213
-0.18155692886753785
-0.17540245670252808
-0.1938658731975296
-0.18155692886753785
-0.1692479845375183
-0.13232115154751534
-0.2369471783525424
-0.2246382340225228
-0.15693904020752658
0.033849596907498114
-0.05846748556750937
-0.1692479845375183
-0.15078456804251686
-0.12001220721752358
-0.24925612268253405
-0.2184837618575408
-0.2061748175275213
-0.2000203453625393
-0.1938658731975296
-0.1938658731975296
-0.14463009587750708
-0.09539431855751236
-0.30464637216753854
-0.33541873299255964
-0.575443147427579
-0.40311792680755576
-0.2554105948475438
-0.2369471783525424
-0.16309351237253633
-0.12001220721752358
-0.29233742783754685
-0.2431016505175243
-0.2061748175275213
-0.2061748175275213
-0.26771953917753555
-0.2061748175275213
-0.18155692886753785
-0.2061748175275213
-0.35388214948756086
-0.3292642608275498
-0.2800284835075273
-0.2369471783525424
-0.23079270618753256
-0.26156506701252585
-0.1938658731975296
-0.18771140103251985
0.08308537422752059
0.8154675618626261
-0.40927239897256545
-0.24925612268253405
-0.2061748175275213
-0.1938658731975296
-0.2061748175275213
-0.6123699804175823
-0.6985325907276074
-0.42158134330255725
-0.35388214948756086
-0.31695531649755804
-0.29233742783754685
-0.2800284835075273
-0.2369471783525424
-0.2554105948475438
-0.30464637216753854
-0.2554105948475438
-0.2984919000025288
-0.2369471783525424
-0.2184837618575408
-0.2246382340225228
-0.05846748556750937
-0.07693090206251085
-0.16309351237253633
-0.18155692886753785
-0.1938658731975296
-0.1938658731975296
-0.18771140103251985
-0.26771953917753555
-0.18771140103251985
-0.1692479845375183
-0.2738740113425453
-0.26156506701252585
-0.2184837618575408
-0.18771140103251985
-0.14463009587750708
-0.06462195773251911
0.009231708247514623
-0.06462195773251911
-0.04000406907250786
0.01538618041249662
0.009231708247514623
0.009231708247514623
0.02154065257750637
0.033849596907498114
0.08923984639250257
0.06462195773251911
-0.003077236082504875
-0.01538618041249662
0.003077236082504875
0.009231708247514623
0.07693090206251085
-0.04615854123751762
0.5015894814475731
0.1015487907225221
-0.31695531649755804
-0.02769512474251612
0.033849596907498114
0.07693090206251085
0.07693090206251085
0.09539431855751236
0.2061748175275213
-0.009231708247514623
-0.6000610360875902
0.4523537041275505
0.5446707866025856
0.21232928969253104
0.05846748556750937
0.1692479845375183
0.26771953917753555
0.21232928969253104
0.1938658731975296
0.1938658731975296
0.2000203453625393
0.18771140103251985
0.15078456804251686
0.12001220721752358
0.18771140103251985
0.04615854123751762
-0.01538618041249662
0.003077236082504875
0.16309351237253633
0.05846748556750937
-0.04615854123751762
-0.07693090206251085
-0.009231708247514623
-0.1384756237125251
-0.1015487907225221
-0.13232115154751534
-0.1692479845375183
-0.2061748175275213
-0.2061748175275213
-0.21232928969253104
-0.17540245670252808
-0.3292642608275498
-0.2984919000025288
-0.26771953917753555
-0.32310978866254003
-0.3292642608275498
-0.32310978866254003
-0.29233742783754685
-0.1692479845375183
-0.360036621652543
-0.28618295567253704
-0.28618295567253704
-0.26156506701252585
-0.3108008443325483
-0.2800284835075273
-0.26771953917753555
-0.2369471783525424
-0.3108008443325483
-0.28618295567253704
-0.36619109381755277
-0.34772767732255133
-0.31695531649755804
-0.31695531649755804
-0.3292642608275498
-0.24925612268253405
-0.3846545103125543
-0.3292642608275498
-0.33541873299255964
0.009231708247514623
0.5631342030975872
-0.40927239897256545
-0.28618295567253704
-0.40311792680755576
-0.47697159278756174
-0.28618295567253704
-0.26156506701252585
-0.2554105948475438
-0.23079270618753256
-0.2000203453625393
-0.15693904020752658
-0.07693090206251085
-0.23079270618753256
-0.18771140103251985
-0.15693904020752658
-0.1384756237125251
-0.1261666793825056
-0.14463009587750708
-0.10770326288750408
0.003077236082504875
-0.15693904020752658
-0.14463009587750708
-0.1384756237125251
-0.13232115154751534
-0.13232115154751534
-0.1384756237125251
-0.11385773505251384
-0.08308537422752059
-0.18155692886753785
-0.13232115154751534
-0.15078456804251686
-0.15078456804251686
-0.17540245670252808
-0.3292642608275498
-0.4708171206225797
0.360036621652543
-1.0185651433076426
0.2000203453625393
0.15078456804251686
-0.06462195773251911
-0.1015487907225221
-0.10770326288750408
-0.11385773505251384
-0.5631342030975872
-0.6431423412426027
-0.2984919000025288
-0.2061748175275213
-0.18155692886753785
-0.09539431855751236
-0.08308537422752059
-0.05231301340249961
-0.04000406907250786
-0.10770326288750408
-0.0707764298975011
-0.033849596907498114
-0.04615854123751762
-0.0707764298975011
-0.04615854123751762
-0.003077236082504875
0.003077236082504875
-0.10770326288750408
-0.1261666793825056
-0.08308537422752059
0.009231708247514623
-0.10770326288750408
-0.1015487907225221
-0.02769512474251612
-0.033849596907498114
-0.14463009587750708
-0.11385773505251384
-0.08923984639250257
-0.05846748556750937
-0.04000406907250786
-0.0707764298975011
-0.06462195773251911
-0.04000406907250786
-0.17540245670252808
-0.1015487907225221
-0.1015487907225221
-0.14463009587750708
-0.09539431855751236
-0.11385773505251384
-0.10770326288750408
-0.08923984639250257
-0.10770326288750408
-0.06462195773251911
-0.07693090206251085
-0.0707764298975011
-0.02769512474251612
-0.02769512474251612
-0.003077236082504875
-0.02769512474251612
-0.06462195773251911
0.033849596907498114
0.003077236082504875
0.003077236082504875
0.01538618041249662
-0.02769512474251612
-0.5631342030975872
-0.01538618041249662
0.5077439536125827
0.1261666793825056
0.05846748556750937
0.02154065257750637
0.01538618041249662
-0.02154065257750637
0.40927239897256545
-0.04615854123751762
-0.427735815467567
-0.17540245670252808
-0.09539431855751236
-0.1261666793825056
-0.12001220721752358
-0.14463009587750708
-0.1261666793825056
-0.2000203453625393
-0.2184837618575408
-0.18771140103251985
-0.2369471783525424
-0.21232928969253104
-0.1938658731975296
0.1261666793825056
0.7785407288726233
-0.9262480608326351
-0.5323618422725662
-0.2246382340225228
-0.15693904020752658
-0.14463009587750708
-0.15693904020752658
-0.10770326288750408
-0.009231708247514623
-0.15693904020752658
-0.15693904020752658
-0.14463009587750708
-0.1692479845375183
-0.17540245670252808
-0.2184837618575408
-0.1015487907225221
-0.02769512474251612
-0.26156506701252585
-0.2246382340225228
-0.1938658731975296
-0.18771140103251985
-0.18771140103251985
-0.1938658731975296
-0.1938658731975296
-0.11385773505251384
-0.2800284835075273
-0.2554105948475438
-0.23079270618753256
-0.21232928969253104
-0.21232928969253104
-0.08308537422752059
0.2061748175275213
0.05231301340249961
-0.2061748175275213
-0.2184837618575408
-0.2184837618575408
-0.2061748175275213
-0.2246382340225228
-0.21232928969253104
-0.1692479845375183
-0.1015487907225221
-0.23079270618753256
-0.18155692886753785
-0.15078456804251686
-0.1692479845375183
-0.26771953917753555
-0.4831260649525715
-0.28618295567253704
-0.10770326288750408
-0.17540245670252808
-0.15078456804251686
-0.15693904020752658
-0.18155692886753785
-0.11385773505251384
-0.13232115154751534
-0.15693904020752658
-0.04615854123751762
-0.18771140103251985
-0.15078456804251686
-0.1384756237125251
-0.10770326288750408
-0.13232115154751534
-0.2369471783525424
-0.8154675618626261
0.24925612268253405
0.12001220721752358
-0.13232115154751534
-0.15078456804251686
-0.1692479845375183
-0.18771140103251985
-0.2184837618575408
-0.14463009587750708
-0.0707764298975011
-0.2000203453625393
-0.1384756237125251
0.04000406907250786
-0.02154065257750637
-0.13232115154751534
-0.09539431855751236
-0.08923984639250257
-0.06462195773251911
-0.15693904020752658
-0.16309351237253633
-0.17540245670252808
-0.14463009587750708
-0.1261666793825056
-0.10770326288750408
-0.1015487907225221
-0.11385773505251384
-0.16309351237253633
-0.12001220721752358
-0.17540245670252808
-0.16309351237253633
-0.18771140103251985
-0.15078456804251686
-0.14463009587750708
-0.08308537422752059
-0.1938658731975296
-0.18155692886753785
-0.14463009587750708
-0.11385773505251384
-0.07693090206251085
-0.08923984639250257
-0.09539431855751236
-0.05846748556750937
-0.2000203453625393
-0.2246382340225228
-0.09539431855751236
-0.05846748556750937
-0.07693090206251085
-0.0707764298975011
0.003077236082504875
0.02154065257750637
-0.10770326288750408
-0.06462195773251911
-0.04615854123751762
-0.05231301340249961
-0.003077236082504875
-0.08308537422752059
-0.003077236082504875
0.5077439536125827
0.6985325907276074
1.1231911701126696
-0.2369471783525424
-0.09539431855751236
-0.05231301340249961
-0.05846748556750937
-0.08923984639250257
-0.575443147427579
-0.5200528979425745
-0.2738740113425453
-0.2000203453625393
-0.1384756237125251
-0.11385773505251384
-0.14463009587750708
-0.5446707866025856
-0.47697159278756174
-0.3415732051575415
-0.2738740113425453
-0.2431016505175243
-0.26156506701252585
-0.2800284835075273
-0.2431016505175243
-0.16309351237253633
-0.13232115154751534
-0.14463009587750708
-0.15078456804251686
-0.0707764298975011
-0.05231301340249961
0.033849596907498114
0.04000406907250786
-0.02154065257750637
-0.02769512474251612
-0.033849596907498114
0.04615854123751762
0.08308537422752059
0.05846748556750937
0.04000406907250786
0.08308537422752059
0.15078456804251686
0.1015487907225221
0.07693090206251085
0.05846748556750937
0.04000406907250786
0.1015487907225221
0.13232115154751534
0.02769512474251612
0.1261666793825056
0.02154065257750637
0.003077236082504875
0.033849596907498114
0.02769512474251612
0.01538618041249662
-0.02769512474251612
-0.0707764298975011
0.009231708247514623
-0.13232115154751534
-0.18155692886753785
-0.18155692886753785
-0.05846748556750937
0.15693904020752658
-0.01538618041249662
-0.09539431855751236
-0.009231708247514623
-0.2738740113425453
-0.8216220340276081
0.24925612268253405
0.31695531649755804
0.08308537422752059
0.02769512474251612
-0.009231708247514623
0.08923984639250257
-0.06462195773251911
-0.08923984639250257
-0.18155692886753785
-0.34772767732255133
-0.2184837618575408
-0.1692479845375183
-0.11385773505251384
-0.033849596907498114
-0.16309351237253633
-0.1384756237125251
-0.15693904020752658
-0.14463009587750708
-0.17540245670252808
-0.2000203453625393
-0.1692479845375183
-0.06462195773251911
-0.32310978866254003
-0.2431016505175243
-0.18771140103251985
-0.1938658731975296
-0.15078456804251686
-0.15078456804251686
-0.10770326288750408
-0.033849596907498114
-0.15693904020752658
-0.15693904020752658
-0.18771140103251985
-0.18155692886753785
-0.2184837618575408
-0.2984919000025288
-0.30464637216753854
-0.2431016505175243
-0.37850003814754446
-0.3723455659825625
-0.40927239897256545
-0.390808982477564
-0.396963454642546
-0.42158134330255725
-0.396963454642546
0.5077439536125827
0.02154065257750637
-0.4831260649525715
-0.35388214948756086
-0.31695531649755804
-0.29233742783754685
-0.2984919000025288
-0.2800284835075273
-0.5446707866025856
-0.9139391165026156
-0.5631342030975872
-0.4400447597975588
-0.08308537422752059
0.6000610360875902
-0.6308333969125834
-0.49543500928256323
-0.7293049515526008
-1.0062561989776508
-0.6739147020675963
-0.5631342030975872
-0.5692886752625692
-0.5692886752625692
-0.4892805371175811
-0.40927239897256545
-0.34772767732255133
-0.36619109381755277
-0.32310978866254003
-0.2800284835075273
-0.23079270618753256
-0.1692479845375183
-0.1692479845375183
-0.15693904020752658
-0.1015487907225221
-0.2061748175275213
-0.1015487907225221
-0.09539431855751236
-0.16309351237253633
-0.10770326288750408
-0.05231301340249961
-0.033849596907498114
-0.02769512474251612
-0.11385773505251384
-0.07693090206251085
-0.06462195773251911
0.033849596907498114
0.08308537422752059
0.1015487907225221
0.1692479845375183
0.23079270618753256
0.16309351237253633
0.2246382340225228
0.26156506701252585
0.28618295567253704
0.33541873299255964
0.2984919000025288
0.31695531649755804
0.3108008443325483
0.1938658731975296
0.1938658731975296
0.13232115154751534
0.05231301340249961
-0.033849596907498114
-0.08923984639250257
-0.08308537422752059
-0.12001220721752358
-0.28618295567253704
-0.2984919000025288
-0.23079270618753256
0.009231708247514623
-0.09539431855751236
-0.17540245670252808
-0.1384756237125251
-0.14463009587750708
-0.2184837618575408
-0.18771140103251985
-0.29233742783754685
-0.8277765061926179
0.2061748175275213
0.2369471783525424
0.033849596907498114
-0.07693090206251085
-0.1938658731975296
-0.26156506701252585
-0.5200528979425745
-0.360036621652543
-0.26771953917753555
-0.21232928969253104
-0.2061748175275213
-0.29233742783754685
-0.2554105948475438
-0.24925612268253405
-0.31695531649755804
-0.31695531649755804
-0.33541873299255964
-0.34772767732255133
-0.30464637216753854
-0.3723455659825625
-0.3292642608275498
-0.2369471783525424
-0.23079270618753256
-0.23079270618753256
-0.2554105948475438
-0.21232928969253104
-0.1261666793825056
-0.12001220721752358
-0.1384756237125251
-0.12001220721752358
-0.11385773505251384
-0.08923984639250257
-0.09539431855751236
-0.10770326288750408
-0.05846748556750937
-0.033849596907498114
-0.2184837618575408
-0.18771140103251985
-0.1692479845375183
-0.15078456804251686
-0.15693904020752658
-0.14463009587750708
-0.05846748556750937
-0.15693904020752658
-0.15693904020752658
-0.1015487907225221
-0.02154065257750637
-0.02154065257750637
-0.009231708247514623
0.033849596907498114
0.2554105948475438
0.1261666793825056
0.04615854123751762
0.04615854123751762
0.01538618041249662
0.02154065257750637
0.003077236082504875
0.3292642608275498
0.6923781185625978
-0.7539228402126119
-0.30464637216753854
-0.11385773505251384
-0.08923984639250257
-0.11385773505251384
-0.11385773505251384
