-1.504768444342719
-1.4863050278477177
-1.4924595000126994
-1.5232318608377204
-1.5416952773327224
-1.5293863330027024
-1.5540042216627135
-1.578622110322725
-1.510922916507701
-1.6093944711477182
-1.5663131659927332
-1.4432237226927047
-1.6586302484677409
-1.7755652196027594
-1.6032399989827366
-1.578622110322725
-1.4801505556827075
-1.6093944711477182
-1.5847765824877347
-1.5663131659927332
-1.5478497494977315
-1.5540042216627135
-1.5478497494977315
-1.5540042216627135
-1.7386383866127564
-1.9171180793977614
-0.9877927824826491
-1.39398794537271
-1.437069250527695
-1.467841611352716
-1.5540042216627135
-1.5416952773327224
-1.4863050278477177
-1.6032399989827366
-1.5416952773327224
-1.5540042216627135
-1.5355408051677124
-1.5478497494977315
-1.5663131659927332
-1.4986139721777092
-1.5847765824877347
-1.677093664962742
-1.6524757763027313
-1.6217034154777374
-1.615548943312728
-1.5970855268177266
-1.5724676381577152
-1.5970855268177266
-1.5663131659927332
-1.578622110322725
-1.6278578876427194
-1.6524757763027313
-1.5970855268177266
-1.4062968897027015
-1.6217034154777374
-1.504768444342719
-1.6093944711477182
-1.6278578876427194
-1.5970855268177266
-1.6217034154777374
-1.6586302484677409
-1.6278578876427194
-1.0616464484626553
-0.3108008443325483
-1.683248137127724
-1.6586302484677409
-1.5970855268177266
-1.5724676381577152
-1.6955570814577436
-1.5416952773327224
-1.5416952773327224
-2.255614048472826
-2.3171587701228398
-1.5232318608377204
-1.4309147783627132
-1.473996083517698
-1.5293863330027024
-1.5601586938277234
-1.473996083517698
-1.4493781948577145
-1.5970855268177266
-1.5540042216627135
-1.6709391927977324
-1.5478497494977315
-1.5663131659927332
-1.5663131659927332
-1.504768444342719
-1.5478497494977315
-1.6217034154777374
-1.5478497494977315
-1.5478497494977315
-1.5355408051677124
-1.5478497494977315
-1.590931054652717
-1.4493781948577145
-1.3878334732077002
-1.590931054652717
-1.5847765824877347
-1.5478497494977315
-1.5170773886727107
-1.5170773886727107
-1.5478497494977315
-1.4062968897027015
-1.615548943312728
-1.5970855268177266
-1.5970855268177266
-1.5970855268177266
-1.5601586938277234
-1.1539635309376628
-0.42158134330255725
-1.2278171969176688
-1.4863050278477177
-1.504768444342719
-1.4801505556827075
-1.4801505556827075
-1.4432237226927047
-1.510922916507701
-1.5663131659927332
-1.504768444342719
-1.5601586938277234
-1.5293863330027024
-1.5847765824877347
-2.2063782711528033
-2.600264489712873
-1.7632562752727399
-1.7817196917677414
-2.120215660842805
-1.3816790010426905
-1.39398794537271
-1.4432237226927047
-1.4986139721777092
-1.4863050278477177
-1.4493781948577145
-1.4493781948577145
-1.5478497494977315
-1.5970855268177266
-1.5355408051677124
-1.7263294422827367
-1.6032399989827366
-1.5601586938277234
-1.5478497494977315
-1.5293863330027024
-1.5847765824877347
-1.6093944711477182
-1.5847765824877347
-1.5601586938277234
-1.5970855268177266
-1.5663131659927332
-1.5416952773327224
-1.4801505556827075
-1.4924595000126994
-1.7386383866127564
-1.6032399989827366
-1.5601586938277234
-1.5601586938277234
-1.5724676381577152
-1.5724676381577152
-1.4432237226927047
-1.6401668319727392
-1.6524757763027313
-1.5847765824877347
-1.5663131659927332
-1.5293863330027024
-1.4863050278477177
-1.4555326670226965
-1.510922916507701
-1.5847765824877347
-1.590931054652717
-1.5970855268177266
-1.5970855268177266
-1.5540042216627135
-1.6032399989827366
-1.5601586938277234
-1.5355408051677124
-1.683248137127724
-1.6217034154777374
-1.6217034154777374
-1.5601586938277234
-1.6032399989827366
-1.6709391927977324
-1.5663131659927332
-1.578622110322725
-1.6340123598077294
-1.6217034154777374
-1.0616464484626553
-0.05231301340249961
-2.015589634037779
-1.7694107474377496
-1.972508328882766
-2.7910531268278973
-1.8863457185727683
-1.1601180031026725
-0.6185244525825918
-1.3693700567126987
-1.510922916507701
-1.5540042216627135
-1.5355408051677124
-1.5970855268177266
-1.5601586938277234
-1.6032399989827366
-1.615548943312728
-1.6278578876427194
-1.5970855268177266
-1.5724676381577152
-1.615548943312728
-2.4648661020828517
-2.8095165433228986
-1.8863457185727683
-1.7447928587777384
-1.7078660257877356
-1.6709391927977324
-1.6093944711477182
-1.5416952773327224
-1.7632562752727399
-1.6647847206327224
-1.590931054652717
-1.590931054652717
-1.6032399989827366
-1.6401668319727392
-1.4493781948577145
-1.689402609292734
-1.91096360723278
-1.824800996922753
-1.7447928587777384
-1.7017115536227536
-1.6401668319727392
-1.6217034154777374
-1.5970855268177266
-1.6217034154777374
-1.677093664962742
-1.6524757763027313
-1.615548943312728
-1.6032399989827366
-1.4801505556827075
-1.7324839144477464
-1.5970855268177266
-1.6278578876427194
-1.6401668319727392
-1.6463213041377216
-1.6524757763027313
-1.6278578876427194
-1.6401668319727392
-1.6401668319727392
-1.4616871391877062
-1.6278578876427194
-1.4801505556827075
-1.4555326670226965
-1.6340123598077294
-2.064825411357801
-1.215508252587677
-1.3385976958876775
-1.3139798072276945
-1.4493781948577145
-1.4555326670226965
-1.4801505556827075
-1.4616871391877062
-1.473996083517698
-1.473996083517698
-1.473996083517698
-1.4616871391877062
-1.590931054652717
-1.9601993845527748
-1.824800996922753
-1.578622110322725
-1.4986139721777092
-1.437069250527695
-1.326288751557686
-1.289361918567683
-1.400142417537692
-1.3816790010426905
-1.3816790010426905
-1.4247603061977032
-1.400142417537692
-1.3816790010426905
-0.901630172172624
0.5200528979425745
-1.6093944711477182
-1.5724676381577152
-1.4432237226927047
-1.4309147783627132
-1.4616871391877062
-1.4863050278477177
-1.6955570814577436
-2.618727906207874
-1.824800996922753
-1.504768444342719
-1.4924595000126994
-1.4986139721777092
-1.4247603061977032
-1.6217034154777374
-1.400142417537692
-1.504768444342719
-1.510922916507701
-1.4986139721777092
-1.5170773886727107
-1.4986139721777092
-1.5416952773327224
-1.5724676381577152
-1.4493781948577145
-1.5601586938277234
-1.578622110322725
-1.5478497494977315
-1.3878334732077002
-1.5601586938277234
-1.5355408051677124
-1.4986139721777092
-0.895475700007614
-0.33541873299255964
-1.6524757763027313
-1.6401668319727392
-1.6217034154777374
-1.5663131659927332
-1.6093944711477182
-1.6217034154777374
-2.4525571577528327
-2.1325246051727973
-1.4863050278477177
-1.6524757763027313
-1.578622110322725
-1.578622110322725
-1.5478497494977315
-1.4986139721777092
-1.5232318608377204
-1.5970855268177266
-1.5355408051677124
-1.5540042216627135
-1.5478497494977315
-1.4986139721777092
-1.504768444342719
-1.4616871391877062
-1.5416952773327224
-1.677093664962742
-1.5478497494977315
-1.5663131659927332
-1.5724676381577152
-1.5478497494977315
-1.5540042216627135
-1.510922916507701
-1.5724676381577152
-1.5478497494977315
-1.5663131659927332
-1.5601586938277234
-1.5416952773327224
-1.5232318608377204
-1.5540042216627135
-1.400142417537692
-1.5724676381577152
-1.504768444342719
-1.504768444342719
-1.5232318608377204
-1.5478497494977315
-1.5293863330027024
-1.5170773886727107
-1.4801505556827075
-1.578622110322725
-1.5663131659927332
-1.504768444342719
-1.3816790010426905
-1.5232318608377204
-1.5478497494977315
-1.4986139721777092
-1.4309147783627132
-1.6217034154777374
-1.578622110322725
-1.5478497494977315
-1.5478497494977315
-1.5478497494977315
-1.5601586938277234
-1.4801505556827075
-1.689402609292734
-2.1017522443478045
-1.1724269474326645
-1.615548943312728
-1.4863050278477177
-1.4863050278477177
-1.5170773886727107
-1.4924595000126994
-1.5170773886727107
-1.5293863330027024
-1.5540042216627135
-1.5663131659927332
-1.5540042216627135
-1.5540042216627135
-1.5663131659927332
-1.473996083517698
-1.4309147783627132
-1.6463213041377216
-1.5293863330027024
-1.504768444342719
-1.5170773886727107
-1.473996083517698
-1.4555326670226965
-1.4247603061977032
-1.590931054652717
-1.5540042216627135
-1.5478497494977315
-1.5970855268177266
-1.5416952773327224
-1.5170773886727107
-1.5170773886727107
-1.6401668319727392
-1.5970855268177266
-1.5170773886727107
-1.4986139721777092
-1.4924595000126994
-1.4555326670226965
-1.4309147783627132
-1.400142417537692
-1.4186058340326935
-1.578622110322725
-1.510922916507701
-1.4863050278477177
-1.4801505556827075
-1.5540042216627135
-1.5847765824877347
-1.510922916507701
-1.4924595000126994
-1.615548943312728
-1.5663131659927332
-1.5293863330027024
-1.5355408051677124
-1.5724676381577152
-1.5416952773327224
-1.4801505556827075
-1.5970855268177266
-1.615548943312728
-1.6401668319727392
-1.9848172732127856
-1.1970448360926755
-0.40927239897256545
-1.6955570814577436
-1.966353856717784
-2.674118155692878
-1.7694107474377496
-1.5663131659927332
-1.5293863330027024
-1.5478497494977315
-1.5847765824877347
-1.590931054652717
-1.5355408051677124
-1.2339716690826785
-1.2770529742376913
-1.5355408051677124
-1.4924595000126994
-1.4863050278477177
-1.5478497494977315
-1.5416952773327224
-1.4309147783627132
-1.615548943312728
-1.5601586938277234
-1.5540042216627135
-1.5293863330027024
-1.4924595000126994
-1.5355408051677124
-1.4432237226927047
-1.5970855268177266
-1.683248137127724
-1.5847765824877347
-1.5970855268177266
-1.578622110322725
-1.5416952773327224
-1.504768444342719
-1.4801505556827075
-1.4924595000126994
-1.590931054652717
-1.5232318608377204
-1.4924595000126994
-1.4863050278477177
-1.4801505556827075
-1.6709391927977324
-1.5293863330027024
-1.5478497494977315
-1.5601586938277234
-1.5478497494977315
-1.5170773886727107
-1.5232318608377204
-1.5170773886727107
-1.504768444342719
-1.473996083517698
-1.5416952773327224
-1.504768444342719
-1.437069250527695
-1.4309147783627132
-1.5663131659927332
-1.467841611352716
-1.4062968897027015
-1.326288751557686
-1.504768444342719
-1.5170773886727107
-1.467841611352716
-1.4555326670226965
-1.677093664962742
-2.009435161872797
-1.2339716690826785
-1.2770529742376913
-1.3816790010426905
-1.4986139721777092
-1.5601586938277234
-1.4432237226927047
-1.473996083517698
-1.6647847206327224
-1.4555326670226965
-1.4062968897027015
-1.5293863330027024
-1.473996083517698
-1.4863050278477177
-1.4924595000126994
-1.504768444342719
-1.510922916507701
-1.11088222578265
-0.6739147020675963
-1.2955163907326928
-1.437069250527695
-1.4801505556827075
-1.4309147783627132
-1.4924595000126994
-1.4555326670226965
-1.4186058340326935
-1.4493781948577145
-1.467841611352716
-1.4924595000126994
-1.5232318608377204
-1.5232318608377204
-2.083288827852803
-2.360240075277825
-1.0370285598026439
-1.7324839144477464
-1.9601993845527748
-1.6032399989827366
-1.5540042216627135
-1.5540042216627135
-1.5232318608377204
-1.510922916507701
-1.3755245288776807
-1.5601586938277234
-1.5293863330027024
-1.4801505556827075
-1.3078253350626845
-1.4924595000126994
-1.5170773886727107
-1.4801505556827075
-1.4555326670226965
-1.5601586938277234
-1.504768444342719
-1.4555326670226965
-1.4432237226927047
-1.4924595000126994
-1.473996083517698
-1.4555326670226965
-1.39398794537271
-1.073955392792647
-0.2554105948475438
-1.5478497494977315
-1.578622110322725
-1.578622110322725
-1.5663131659927332
-1.6093944711477182
-2.477175046412844
-1.9601993845527748
-1.4863050278477177
-1.4924595000126994
-1.4986139721777092
-1.510922916507701
-1.4924595000126994
-1.3570611123826792
-1.4616871391877062
-1.6093944711477182
-1.4801505556827075
-1.4801505556827075
-1.473996083517698
-1.4801505556827075
-1.4801505556827075
-0.8523943948526291
-1.6278578876427194
-1.861727829912757
-1.5170773886727107
-1.4493781948577145
-1.4309147783627132
-1.4555326670226965
-1.5724676381577152
-1.4493781948577145
-1.5416952773327224
-1.5232318608377204
-1.4986139721777092
-1.4309147783627132
-1.4986139721777092
-1.510922916507701
-1.473996083517698
-0.427735815467567
-1.3324432237226955
-1.7263294422827367
-1.400142417537692
-1.3324432237226955
-1.4924595000126994
-1.4801505556827075
-1.4986139721777092
-2.3110042979578305
-2.194069326822812
-1.504768444342719
-1.4986139721777092
-1.5170773886727107
-1.504768444342719
-1.473996083517698
-1.4986139721777092
-1.5416952773327224
-1.5663131659927332
-1.3016708628976748
-1.437069250527695
-1.4309147783627132
-1.4616871391877062
-1.4555326670226965
-1.39398794537271
-1.4616871391877062
-1.590931054652717
-1.5478497494977315
-1.5355408051677124
-1.5232318608377204
-1.5416952773327224
-1.5170773886727107
-0.13232115154751534
-1.972508328882766
-2.5694921288878514
-1.6340123598077294
-1.5293863330027024
-1.5416952773327224
-1.5293863330027024
-1.4924595000126994
-1.4124513618677115
-1.6401668319727392
-1.6093944711477182
-1.5601586938277234
-1.5540042216627135
-1.5355408051677124
-1.5416952773327224
-1.4616871391877062
-1.4924595000126994
-1.6217034154777374
-1.5478497494977315
-1.5355408051677124
-1.5170773886727107
-1.5293863330027024
-1.5232318608377204
-1.473996083517698
-1.39398794537271
-1.615548943312728
-1.5601586938277234
-1.4924595000126994
-1.4555326670226965
-1.615548943312728
-1.7140204979527456
-1.5170773886727107
-1.892500190737778
-1.855573357747775
-1.2339716690826785
-1.39398794537271
-1.4124513618677115
-1.4309147783627132
-1.4555326670226965
-1.4062968897027015
-1.4616871391877062
-1.5355408051677124
-1.0924188092876486
-0.2184837618575408
-1.0862643371226666
-1.363215584547689
-1.39398794537271
-1.4555326670226965
-1.473996083517698
-1.467841611352716
-1.473996083517698
-1.504768444342719
-1.473996083517698
-0.8523943948526291
0.13232115154751534
-2.378703491772827
-3.301874316522985
-2.8279799598179
-1.8063375804277528
-1.615548943312728
-1.6278578876427194
-1.5970855268177266
-1.5601586938277234
-1.4432237226927047
-1.6217034154777374
-1.5293863330027024
-1.4863050278477177
-1.467841611352716
-1.4924595000126994
-1.4493781948577145
-1.184735891762656
-1.3324432237226955
-1.590931054652717
-1.4986139721777092
-1.4801505556827075
-1.4924595000126994
-1.4986139721777092
-1.4986139721777092
-1.400142417537692
-1.4124513618677115
-1.6278578876427194
-1.5540042216627135
-1.4924595000126994
-1.4555326670226965
-1.3755245288776807
-1.578622110322725
-1.437069250527695
-1.4493781948577145
-1.5416952773327224
-1.504768444342719
-1.5232318608377204
-1.4924595000126994
-1.467841611352716
-1.473996083517698
-1.473996083517698
-1.4493781948577145
-1.473996083517698
-1.4863050278477177
-1.5232318608377204
-1.578622110322725
-1.4863050278477177
-1.4924595000126994
-1.3447521680526875
-1.4986139721777092
-1.4986139721777092
-1.4863050278477177
-1.5232318608377204
-1.5355408051677124
-1.4924595000126994
-1.504768444342719
-1.4247603061977032
-1.4124513618677115
-1.473996083517698
-1.6278578876427194
-1.5232318608377204
-1.4924595000126994
-1.7078660257877356
-2.052516467027782
-1.289361918567683
-1.4493781948577145
-1.437069250527695
-1.473996083517698
-1.5170773886727107
-1.4863050278477177
-1.4432237226927047
-1.4986139721777092
-1.7263294422827367
-1.6955570814577436
-1.5416952773327224
-1.5663131659927332
-1.5663131659927332
-1.5601586938277234
-1.5416952773327224
-1.4924595000126994
-1.5663131659927332
-1.615548943312728
-1.5170773886727107
-1.504768444342719
-1.578622110322725
-1.221662724752659
-1.39398794537271
-1.4986139721777092
-1.4801505556827075
-1.4863050278477177
-1.5232318608377204
-1.5293863330027024
-1.5293863330027024
-1.510922916507701
-1.504768444342719
-1.3693700567126987
-1.590931054652717
-1.578622110322725
-1.5232318608377204
-1.4432237226927047
-1.6032399989827366
-1.5478497494977315
-1.5170773886727107
-1.4555326670226965
-1.5478497494977315
-1.5663131659927332
-1.5601586938277234
-1.5170773886727107
-1.4986139721777092
-1.5416952773327224
-1.5293863330027024
-1.4186058340326935
-1.5478497494977315
-1.4493781948577145
-1.6093944711477182
-1.504768444342719
-1.4493781948577145
-1.510922916507701
-1.5232318608377204
-1.4493781948577145
-1.5724676381577152
-0.9816383103176396
-0.009231708247514623
-1.892500190737778
-1.6709391927977324
-1.590931054652717
-1.6586302484677409
-2.4279392690928487
-1.89865466290276
-1.4924595000126994
-1.504768444342719
-1.5293863330027024
-1.4924595000126994
-1.510922916507701
-1.5601586938277234
-1.5478497494977315
-1.4924595000126994
-1.4924595000126994
-1.5478497494977315
-1.5293863330027024
-1.4863050278477177
-1.5416952773327224
-1.4863050278477177
-1.590931054652717
-1.5293863330027024
-1.510922916507701
-1.5232318608377204
-1.510922916507701
-1.4924595000126994
-1.4616871391877062
-1.3878334732077002
-1.590931054652717
-1.5601586938277234
-1.504768444342719
-1.4432237226927047
-1.6217034154777374
-1.5724676381577152
-1.467841611352716
-1.39398794537271
-1.6278578876427194
-1.5540042216627135
-1.5416952773327224
-1.5355408051677124
-1.5601586938277234
-1.5663131659927332
-1.5232318608377204
-1.504768444342719
-1.6217034154777374
-1.3755245288776807
-1.4986139721777092
-1.5170773886727107
-1.504768444342719
-1.5293863330027024
-1.4924595000126994
-1.5478497494977315
-1.578622110322725
-1.6401668319727392
-1.6340123598077294
-1.5663131659927332
-1.6032399989827366
-1.615548943312728
-1.5663131659927332
-1.4062968897027015
-1.578622110322725
-1.8001831082627426
-2.052516467027782
-1.2647440299076718
-1.39398794537271
-1.4432237226927047
-1.3570611123826792
-1.5724676381577152
-1.5232318608377204
-1.4863050278477177
-1.4986139721777092
-1.473996083517698
-1.4555326670226965
-1.4863050278477177
-1.6278578876427194
-1.6401668319727392
-1.5663131659927332
-1.5540042216627135
-1.5724676381577152
-1.578622110322725
-1.5724676381577152
-1.5663131659927332
-1.5355408051677124
-1.615548943312728
-1.5478497494977315
-1.5232318608377204
-1.473996083517698
-1.4247603061977032
-1.6032399989827366
-1.5478497494977315
-1.4924595000126994
-1.615548943312728
-1.5232318608377204
-1.4986139721777092
-1.5232318608377204
-1.5478497494977315
-1.4986139721777092
-1.437069250527695
-1.5293863330027024
-1.5970855268177266
-1.4863050278477177
-1.473996083517698
-1.6032399989827366
-1.5847765824877347
-1.5170773886727107
-1.11088222578265
-0.29233742783754685
-1.5724676381577152
-1.6032399989827366
-1.578622110322725
-1.5601586938277234
-1.5478497494977315
-1.4863050278477177
-1.9048091350677696
-2.175605910327811
-0.9877927824826491
-1.3016708628976748
-1.4062968897027015
-1.4986139721777092
-1.5232318608377204
-0.9631748938226381
0.13232115154751534
-1.954044912387765
-1.7078660257877356
-1.6278578876427194
-1.578622110322725
-1.5293863330027024
-1.5416952773327224
-1.972508328882766
-2.9202970422929075
-2.323313242287821
-1.590931054652717
-1.5355408051677124
-1.5355408051677124
-1.5293863330027024
-1.5416952773327224
-1.504768444342719
-1.4124513618677115
-1.5724676381577152
-1.5663131659927332
-1.6032399989827366
-1.6032399989827366
-1.5293863330027024
-1.6955570814577436
-1.578622110322725
-1.590931054652717
-1.6093944711477182
-1.6032399989827366
-1.578622110322725
-1.5847765824877347
-1.5663131659927332
-1.5416952773327224
-1.5355408051677124
-1.5293863330027024
-1.5663131659927332
-1.5663131659927332
-1.5663131659927332
-1.7201749701177547
-1.5847765824877347
-1.5540042216627135
-1.4863050278477177
-1.6586302484677409
-1.6278578876427194
-1.5601586938277234
-1.5540042216627135
-1.5355408051677124
-1.5416952773327224
-1.504768444342719
-1.4186058340326935
-1.4863050278477177
-1.4062968897027015
-1.5601586938277234
-1.5355408051677124
-1.5540042216627135
-1.5724676381577152
-1.510922916507701
-1.4863050278477177
-1.6709391927977324
-1.5970855268177266
-1.5416952773327224
-1.5355408051677124
-1.5601586938277234
-1.5478497494977315
-1.6709391927977324
-1.8432644134177558
-1.3078253350626845
-1.4309147783627132
-1.4247603061977032
-1.4309147783627132
-1.4493781948577145
-1.4616871391877062
-1.4616871391877062
-1.4924595000126994
-1.5540042216627135
-1.5601586938277234
-1.5232318608377204
-1.504768444342719
-1.6032399989827366
-1.9048091350677696
-1.6093944711477182
-1.504768444342719
-1.510922916507701
-1.5478497494977315
-1.5293863330027024
-1.5170773886727107
-1.5293863330027024
-1.5232318608377204
-1.4493781948577145
-1.5540042216627135
-1.5540042216627135
-1.5416952773327224
-1.3509066402176972
-1.5847765824877347
-1.5478497494977315
-1.504768444342719
-1.467841611352716
-1.5355408051677124
-1.5170773886727107
-1.4801505556827075
-1.473996083517698
-1.4801505556827075
-1.4493781948577145
-1.4616871391877062
-1.4124513618677115
-1.6340123598077294
-1.467841611352716
-1.6955570814577436
-1.6093944711477182
-1.5663131659927332
-1.5478497494977315
-1.5293863330027024
-1.5540042216627135
-1.6278578876427194
-1.578622110322725
-1.5478497494977315
-1.5847765824877347
-1.5724676381577152
-1.504768444342719
-1.4924595000126994
-1.590931054652717
-1.8063375804277528
-1.6032399989827366
-0.9754838381526297
-0.003077236082504875
-1.990971745377768
-1.7017115536227536
-1.8432644134177558
-2.612573434042864
-1.8371099412527454
-1.5970855268177266
-1.5540042216627135
-1.5355408051677124
-1.4924595000126994
-1.4801505556827075
-1.4986139721777092
-1.5478497494977315
-1.578622110322725
-1.5601586938277234
-1.5232318608377204
-1.5232318608377204
-1.5540042216627135
-1.578622110322725
-1.4986139721777092
-1.6217034154777374
-1.590931054652717
-1.5663131659927332
-1.473996083517698
-1.5847765824877347
-1.6647847206327224
-1.5416952773327224
-1.39398794537271
-1.590931054652717
-1.5663131659927332
-1.5293863330027024
-1.5416952773327224
-1.5478497494977315
-1.578622110322725
-1.6093944711477182
-1.5601586938277234
-1.6217034154777374
-1.4493781948577145
-1.6093944711477182
-1.6278578876427194
-1.5601586938277234
-1.5478497494977315
-1.5355408051677124
-1.5355408051677124
-1.615548943312728
-1.590931054652717
-1.5970855268177266
-1.5970855268177266
-1.5847765824877347
-1.5416952773327224
-1.5293863330027024
-1.3509066402176972
-1.5663131659927332
-1.5355408051677124
-1.510922916507701
-1.5293863330027024
-1.5232318608377204
-1.4863050278477177
-1.4062968897027015
-1.5847765824877347
-1.5724676381577152
-1.4924595000126994
-1.7386383866127564
-2.1263701330077875
-1.289361918567683
-1.2585895577426898
-1.4186058340326935
-1.5663131659927332
-1.4924595000126994
-1.578622110322725
-1.5355408051677124
-1.5232318608377204
-1.5232318608377204
-1.4863050278477177
-1.4986139721777092
-1.6278578876427194
-1.5293863330027024
-1.4986139721777092
-1.473996083517698
-1.5540042216627135
-1.7078660257877356
-1.504768444342719
-1.4309147783627132
-1.5847765824877347
-1.5663131659927332
-1.5540042216627135
-1.504768444342719
-1.5355408051677124
-1.5724676381577152
-1.4924595000126994
-1.4924595000126994
-1.5724676381577152
-1.4986139721777092
-1.5232318608377204
-1.6278578876427194
-1.5540042216627135
-1.5540042216627135
-1.504768444342719
-1.4863050278477177
-1.5170773886727107
-1.5293863330027024
-1.5724676381577152
-1.5478497494977315
-1.510922916507701
-1.5601586938277234
-1.510922916507701
-1.7386383866127564
-1.990971745377768
-1.677093664962742
-1.6093944711477182
-1.6340123598077294
-1.6032399989827366
-1.578622110322725
-1.5232318608377204
-1.6463213041377216
-1.590931054652717
-1.5601586938277234
-1.5724676381577152
-1.5663131659927332
-1.5601586938277234
-1.2093537804226673
-0.6554512855725947
-0.35388214948756086
-1.5663131659927332
-1.5724676381577152
-1.578622110322725
-1.5416952773327224
-1.4863050278477177
-1.5293863330027024
-2.372549019607845
-2.120215660842805
-1.510922916507701
-1.4555326670226965
-1.5170773886727107
-1.467841611352716
-1.6955570814577436
-1.5847765824877347
-1.5724676381577152
-1.6524757763027313
-1.590931054652717
-1.5601586938277234
-1.5540042216627135
-1.590931054652717
-1.6093944711477182
-1.5355408051677124
-1.5416952773327224
-1.6278578876427194
-1.5355408051677124
-1.3385976958876775
-1.6401668319727392
-1.6401668319727392
-1.6032399989827366
-1.4555326670226965
-1.5847765824877347
-1.615548943312728
-1.5663131659927332
-1.5416952773327224
-1.5478497494977315
-1.5540042216627135
-1.4924595000126994
-1.3755245288776807
-1.5601586938277234
-1.5663131659927332
-1.7078660257877356
-1.5847765824877347
-1.578622110322725
-1.5663131659927332
-1.5478497494977315
-1.4493781948577145
-1.5970855268177266
-1.5724676381577152
-1.5663131659927332
-1.5293863330027024
-1.5170773886727107
-1.4924595000126994
-1.3385976958876775
0.01538618041249662
-2.064825411357801
-1.5293863330027024
-1.5355408051677124
-1.510922916507701
-1.5232318608377204
-1.5416952773327224
-1.6463213041377216
-2.575646601052861
-1.990971745377768
-1.5293863330027024
-1.5540042216627135
-1.5601586938277234
-1.3139798072276945
-0.9385570051626267
-1.3509066402176972
-1.4432237226927047
-1.4986139721777092
-1.473996083517698
-1.4986139721777092
-1.5355408051677124
-1.5355408051677124
-1.5355408051677124
-1.504768444342719
-1.6647847206327224
-1.6093944711477182
-1.5601586938277234
-2.2063782711528033
-2.821825487652891
-1.89865466290276
-1.6955570814577436
-1.5416952773327224
-1.689402609292734
-1.6586302484677409
-1.6217034154777374
-1.6093944711477182
-1.6217034154777374
-1.6217034154777374
-1.5847765824877347
-1.4924595000126994
-1.6463213041377216
-1.215508252587677
-1.4986139721777092
-1.5724676381577152
-1.5601586938277234
-1.5416952773327224
-1.5540042216627135
-1.510922916507701
-1.6586302484677409
-1.578622110322725
-1.5663131659927332
-1.5355408051677124
-1.5663131659927332
-1.5970855268177266
-1.5847765824877347
-1.2585895577426898
-1.6093944711477182
-1.6278578876427194
-1.6340123598077294
-1.5724676381577152
-1.590931054652717
-1.6524757763027313
-1.6586302484677409
-2.1571424938328088
-1.5601586938277234
-1.4186058340326935
-1.4863050278477177
-0.9508659494926462
-1.1355001144426613
-4.058874392818101
-2.0586709391927913
-1.689402609292734
-1.6524757763027313
-1.6463213041377216
-1.510922916507701
-0.8585488670176111
-1.25243508557768
-1.5663131659927332
-1.6278578876427194
-1.5724676381577152
-1.7940286360977609
-1.7017115536227536
-1.683248137127724
-1.4986139721777092
-1.6093944711477182
-1.91096360723278
-1.7201749701177547
-1.6463213041377216
-1.615548943312728
-1.615548943312728
-1.6463213041377216
-1.6955570814577436
-1.689402609292734
-1.7201749701177547
-1.7447928587777384
-1.7386383866127564
-1.7817196917677414
-1.8063375804277528
-1.7755652196027594
-1.7694107474377496
-1.6647847206327224
-1.6401668319727392
-1.6401668319727392
-1.6278578876427194
-1.6278578876427194
-1.6093944711477182
-1.6032399989827366
-1.6340123598077294
-1.6647847206327224
-1.6709391927977324
-1.6217034154777374
-1.6647847206327224
-1.6093944711477182
-0.396963454642546
0.1261666793825056
-1.4186058340326935
-1.6093944711477182
-1.9848172732127856
-2.612573434042864
-1.7017115536227536
-1.5478497494977315
-1.6032399989827366
-1.5970855268177266
-1.6093944711477182
-1.467841611352716
-1.6278578876427194
-1.6093944711477182
-1.6032399989827366
-1.6278578876427194
-1.6340123598077294
-1.615548943312728
-1.5847765824877347
-1.6278578876427194
-1.5847765824877347
-1.615548943312728
-1.5478497494977315
-1.6032399989827366
-1.5847765824877347
-1.5601586938277234
-1.7509473309427481
-1.6032399989827366
-1.5293863330027024
-1.5970855268177266
-1.6093944711477182
-1.578622110322725
-1.5663131659927332
-1.6032399989827366
-1.6032399989827366
-1.5847765824877347
-1.5355408051677124
-1.590931054652717
-1.510922916507701
-1.467841611352716
-1.6401668319727392
-1.5355408051677124
-1.5478497494977315
-1.5355408051677124
-1.5478497494977315
-1.578622110322725
-1.5847765824877347
-1.5355408051677124
-1.5478497494977315
-1.5478497494977315
-1.5232318608377204
-1.4986139721777092
-1.5355408051677124
-1.7140204979527456
-1.7386383866127564
-1.5847765824877347
-1.578622110322725
-1.6032399989827366
-1.5663131659927332
-1.4863050278477177
-1.6093944711477182
-1.578622110322725
-1.7324839144477464
-2.077134355687793
-1.3385976958876775
-1.400142417537692
-1.2832074464026733
-1.2770529742376913
-1.5355408051677124
-1.5170773886727107
-1.473996083517698
-1.5355408051677124
-1.5724676381577152
-1.5478497494977315
-1.4986139721777092
-1.4432237226927047
-0.9939472546476313
0.02154065257750637
-1.8063375804277528
-1.6709391927977324
-1.467841611352716
-1.615548943312728
-1.7078660257877356
-2.5941100175478624
-1.91096360723278
-1.5355408051677124
-1.5478497494977315
-1.5663131659927332
-1.5416952773327224
-1.578622110322725
-1.5847765824877347
-1.5724676381577152
-1.5663131659927332
-1.5416952773327224
-1.5416952773327224
-1.689402609292734
-1.578622110322725
-1.5724676381577152
-1.504768444342719
-1.615548943312728
-1.578622110322725
-1.5847765824877347
-1.590931054652717
-1.5540042216627135
-1.5540042216627135
-1.5724676381577152
-1.510922916507701
-1.578622110322725
-1.4247603061977032
-1.6093944711477182
-1.5724676381577152
-1.5724676381577152
-1.5416952773327224
-1.5416952773327224
-1.5232318608377204
-1.6217034154777374
-1.5970855268177266
-1.590931054652717
-1.6032399989827366
-1.6340123598077294
-1.5416952773327224
-1.4493781948577145
-1.5663131659927332
-1.7078660257877356
-1.5601586938277234
-1.5355408051677124
-1.5724676381577152
-1.5663131659927332
-1.5478497494977315
-1.4616871391877062
-1.4309147783627132
-1.590931054652717
-1.5663131659927332
-1.5847765824877347
-1.5540042216627135
-1.5478497494977315
-1.5416952773327224
-1.4924595000126994
-1.4986139721777092
-1.6217034154777374
-2.089443300017785
-1.5416952773327224
-1.2955163907326928
-1.4986139721777092
-1.5601586938277234
-1.4986139721777092
-1.5847765824877347
-1.6032399989827366
-1.6340123598077294
-1.5232318608377204
-1.689402609292734
-1.6217034154777374
-1.6217034154777374
-1.5601586938277234
-1.6093944711477182
-1.5601586938277234
-1.6217034154777374
-1.6217034154777374
-1.590931054652717
-1.5847765824877347
-1.6032399989827366
-1.4801505556827075
-1.615548943312728
-1.437069250527695
-1.5847765824877347
-1.5847765824877347
-1.578622110322725
-1.578622110322725
-1.578622110322725
-1.5970855268177266
-1.6524757763027313
-1.6032399989827366
-1.6278578876427194
-1.6278578876427194
-1.5601586938277234
-1.5232318608377204
-1.504768444342719
-1.473996083517698
-1.7263294422827367
-1.5970855268177266
-1.5355408051677124
-1.5478497494977315
-1.5416952773327224
-1.5663131659927332
-1.5601586938277234
-1.6032399989827366
-1.6278578876427194
-1.5540042216627135
-1.5355408051677124
-1.5232318608377204
-1.5232318608377204
-1.504768444342719
-1.590931054652717
-1.5970855268177266
-1.5663131659927332
-1.510922916507701
-1.510922916507701
-1.6217034154777374
-0.8647033391826209
0.05231301340249961
-1.6278578876427194
-1.504768444342719
-2.114061188677796
-1.6401668319727392
-1.5416952773327224
-1.5355408051677124
-1.504768444342719
-1.4986139721777092
-2.150988021667799
-2.298695353627811
-1.615548943312728
-1.5601586938277234
-1.5232318608377204
-1.504768444342719
-1.5663131659927332
-1.5416952773327224
-1.4186058340326935
-1.6217034154777374
-1.6401668319727392
-2.077134355687793
-1.7447928587777384
-1.590931054652717
-1.615548943312728
-1.5847765824877347
-1.590931054652717
-1.7078660257877356
-1.6463213041377216
-1.6401668319727392
-1.6093944711477182
-1.578622110322725
-1.6093944711477182
-1.5663131659927332
-1.2093537804226673
-1.3324432237226955
-1.5170773886727107
-1.5540042216627135
-1.5416952773327224
-1.4801505556827075
-1.510922916507701
-1.4924595000126994
-1.5540042216627135
-1.578622110322725
-1.5601586938277234
-1.5847765824877347
-1.5478497494977315
-1.578622110322725
-1.4801505556827075
-1.590931054652717
-1.7509473309427481
-1.6586302484677409
-1.6093944711477182
-1.6278578876427194
-1.6032399989827366
-1.6093944711477182
-1.5601586938277234
-1.4493781948577145
-1.683248137127724
-1.5970855268177266
-1.510922916507701
-1.4924595000126994
-1.3693700567126987
-1.5540042216627135
-1.4863050278477177
-1.757101803107758
-1.9971262175427773
-1.2832074464026733
-1.4186058340326935
-1.4432237226927047
-1.4986139721777092
-1.510922916507701
-1.504768444342719
-1.5232318608377204
-1.6340123598077294
-1.5663131659927332
-1.615548943312728
-1.7201749701177547
-1.6093944711477182
-1.5663131659927332
-1.5170773886727107
-1.510922916507701
-1.5663131659927332
-1.5540042216627135
-1.5355408051677124
-1.5232318608377204
-1.5416952773327224
-1.5724676381577152
-1.5232318608377204
-1.510922916507701
-1.6647847206327224
-1.689402609292734
-1.5847765824877347
-1.5232318608377204
-1.5232318608377204
-1.5293863330027024
-1.400142417537692
-1.5847765824877347
-1.5540042216627135
-1.5601586938277234
-1.5478497494977315
-1.4924595000126994
-1.4555326670226965
-1.1231911701126696
-0.6985325907276074
-1.363215584547689
-1.4616871391877062
-1.510922916507701
-1.5478497494977315
-1.4801505556827075
-1.4986139721777092
-1.4863050278477177
-1.5232318608377204
-1.578622110322725
-1.3816790010426905
-1.5478497494977315
-1.5663131659927332
-1.9232725515627715
-2.187914854657802
-1.6401668319727392
-1.5847765824877347
-1.6709391927977324
-1.0062561989776508
-0.02154065257750637
-2.0217441062027888
-1.7694107474377496
-1.6340123598077294
-1.8063375804277528
-2.6925815721878803
-1.89865466290276
-1.510922916507701
-1.3447521680526875
-1.6463213041377216
-1.5970855268177266
-1.5293863330027024
-0.895475700007614
-1.7694107474377496
-1.9971262175427773
-1.6217034154777374
-1.5970855268177266
-1.615548943312728
-1.590931054652717
-1.5540042216627135
-1.4247603061977032
-1.5293863330027024
-1.5970855268177266
-1.689402609292734
-1.5478497494977315
-1.5170773886727107
-1.5663131659927332
-1.5663131659927332
-1.4555326670226965
-1.6524757763027313
-1.5847765824877347
-1.5724676381577152
-1.5293863330027024
-1.5478497494977315
-1.5663131659927332
-1.510922916507701
-1.4247603061977032
-1.6586302484677409
-1.5847765824877347
-1.5540042216627135
-1.4493781948577145
-1.473996083517698
-1.510922916507701
-1.4924595000126994
-1.4863050278477177
-1.6032399989827366
-1.5478497494977315
-1.5416952773327224
-1.4616871391877062
-1.510922916507701
-1.6032399989827366
-1.4986139721777092
-1.5663131659927332
-1.5601586938277234
-1.4924595000126994
-1.504768444342719
-1.5170773886727107
-1.504768444342719
-1.504768444342719
-0.8523943948526291
-1.689402609292734
-1.9601993845527748
-1.7878741639327511
-1.9971262175427773
-1.3324432237226955
-1.4801505556827075
-1.4493781948577145
-1.3385976958876775
-1.5663131659927332
-1.5478497494977315
-1.5601586938277234
-1.5970855268177266
-1.5970855268177266
-1.5724676381577152
-1.5540042216627135
-1.5232318608377204
-1.615548943312728
-1.4924595000126994
-1.6217034154777374
-1.590931054652717
-1.5601586938277234
-1.510922916507701
-1.467841611352716
-1.467841611352716
-1.578622110322725
-1.5663131659927332
-1.5540042216627135
-1.5663131659927332
-1.615548943312728
-1.590931054652717
-1.4801505556827075
-1.3570611123826792
-1.7386383866127564
-1.615548943312728
-1.5355408051677124
-1.504768444342719
-1.5293863330027024
-1.5355408051677124
-1.4493781948577145
-1.5232318608377204
-1.5970855268177266
-1.5663131659927332
-1.5170773886727107
-1.4924595000126994
-1.5355408051677124
-1.5478497494977315
-0.9939472546476313
-1.6709391927977324
-1.89865466290276
-1.5540042216627135
-1.5170773886727107
-1.510922916507701
-1.5170773886727107
-1.5293863330027024
-1.4309147783627132
-1.6093944711477182
-1.5478497494977315
-1.5170773886727107
-1.4616871391877062
-1.437069250527695
-1.6032399989827366
-0.9877927824826491
-0.15693904020752658
-1.5355408051677124
-1.5601586938277234
-1.5663131659927332
-1.5601586938277234
-1.4801505556827075
-1.4801505556827075
-1.5355408051677124
-2.3417766587828237
-2.249459576307816
-1.5601586938277234
-1.5601586938277234
-1.4801505556827075
-1.5416952773327224
-1.510922916507701
-1.4801505556827075
-1.5478497494977315
-1.6032399989827366
-1.504768444342719
-1.4986139721777092
-1.5170773886727107
-1.504768444342719
-1.4801505556827075
-1.467841611352716
-1.4432237226927047
-1.689402609292734
-1.615548943312728
-1.5416952773327224
-1.5478497494977315
-1.5601586938277234
-1.5355408051677124
-1.504768444342719
-1.5232318608377204
-1.5724676381577152
-1.5416952773327224
-1.5478497494977315
-1.578622110322725
-1.5601586938277234
-1.39398794537271
-1.437069250527695
-1.5847765824877347
-1.5970855268177266
-1.5540042216627135
-1.5416952773327224
-1.5355408051677124
-1.5663131659927332
-1.5724676381577152
-1.4924595000126994
-1.5601586938277234
-1.504768444342719
-1.4801505556827075
-1.4924595000126994
-1.4986139721777092
-1.7078660257877356
-1.5478497494977315
-1.4493781948577145
-1.6647847206327224
-1.615548943312728
-1.6093944711477182
-1.5416952773327224
-1.510922916507701
-1.5293863330027024
-1.7509473309427481
-1.9971262175427773
-1.3016708628976748
-1.3878334732077002
-1.437069250527695
-1.6401668319727392
-1.504768444342719
-1.5232318608377204
-1.2031993082576575
0.01538618041249662
-1.830955469087764
-1.7017115536227536
-1.6647847206327224
-1.683248137127724
-1.5540042216627135
-1.5170773886727107
-1.849418885582765
-2.587955545382853
-1.6709391927977324
-1.510922916507701
-1.467841611352716
-1.504768444342719
-1.5601586938277234
-1.5478497494977315
-1.4616871391877062
-1.615548943312728
-1.6032399989827366
-1.578622110322725
-1.5847765824877347
-1.5970855268177266
-1.5540042216627135
-1.6217034154777374
-1.7447928587777384
-1.7017115536227536
-1.5724676381577152
-1.5478497494977315
-1.5540042216627135
-1.5663131659927332
-1.5540042216627135
-1.4924595000126994
-1.4986139721777092
-1.6278578876427194
-1.615548943312728
-1.5847765824877347
-1.5847765824877347
-1.3385976958876775
-1.4616871391877062
-1.5540042216627135
-1.5232318608377204
-1.6709391927977324
-1.615548943312728
-1.5970855268177266
-1.590931054652717
-1.6278578876427194
-1.6463213041377216
-1.5847765824877347
-1.578622110322725
-1.6217034154777374
-1.5970855268177266
-0.9570204216576284
-0.08923984639250257
-2.009435161872797
-1.757101803107758
-1.966353856717784
-2.674118155692878
-1.8063375804277528
-1.6093944711477182
-1.6032399989827366
-1.6032399989827366
-1.6401668319727392
-1.6401668319727392
-1.5601586938277234
-1.6278578876427194
-1.5601586938277234
-1.6955570814577436
-1.5663131659927332
-1.5232318608377204
-1.504768444342719
-1.5293863330027024
-1.4616871391877062
-1.6032399989827366
-1.5847765824877347
-1.5293863330027024
-1.5601586938277234
-1.5724676381577152
-1.5293863330027024
-1.504768444342719
-1.3509066402176972
-1.7078660257877356
-1.6340123598077294
-1.6093944711477182
-1.6093944711477182
-1.590931054652717
-1.590931054652717
-1.5293863330027024
-1.5170773886727107
-1.5970855268177266
-1.5601586938277234
-1.5478497494977315
-1.5232318608377204
-1.5355408051677124
-1.7201749701177547
-1.5847765824877347
-1.510922916507701
-1.6401668319727392
-1.5724676381577152
-1.5724676381577152
-1.5601586938277234
-1.5847765824877347
-1.578622110322725
-1.578622110322725
-1.5663131659927332
-1.5847765824877347
-1.5416952773327224
-1.5970855268177266
-1.9786628010477763
-1.6709391927977324
-1.578622110322725
-1.473996083517698
-1.6032399989827366
-1.5663131659927332
-1.5478497494977315
-1.7140204979527456
-2.009435161872797
-1.2832074464026733
-1.3878334732077002
-1.326288751557686
-1.473996083517698
-1.141654586607671
-1.215508252587677
-1.4309147783627132
-1.4124513618677115
-1.4986139721777092
-1.590931054652717
-1.5540042216627135
-1.590931054652717
-1.5847765824877347
-1.6093944711477182
-1.5724676381577152
-1.5478497494977315
-1.5478497494977315
-1.4863050278477177
-1.3139798072276945
-1.510922916507701
-1.5478497494977315
-1.5663131659927332
-1.5601586938277234
-1.5355408051677124
-1.5232318608377204
-1.5416952773327224
-1.5540042216627135
-1.5724676381577152
-1.5663131659927332
-1.5847765824877347
-1.578622110322725
-1.5293863330027024
-1.578622110322725
-1.7878741639327511
-1.6524757763027313
-1.6093944711477182
-1.5970855268177266
-1.590931054652717
-1.615548943312728
-1.5847765824877347
-1.5478497494977315
-1.4247603061977032
-1.6463213041377216
-1.578622110322725
-1.4986139721777092
-1.3878334732077002
-1.2770529742376913
-1.4432237226927047
-1.4186058340326935
-1.39398794537271
-1.590931054652717
-1.4986139721777092
-1.4924595000126994
-1.4801505556827075
-1.4986139721777092
-1.510922916507701
-1.4616871391877062
-0.8708578113476306
-0.34772767732255133
-1.5970855268177266
-1.8063375804277528
-1.7509473309427481
-1.5540042216627135
-1.5232318608377204
-1.578622110322725
-2.446402685587851
-2.052516467027782
-1.5293863330027024
-1.510922916507701
-1.5293863330027024
-1.5355408051677124
-1.5540042216627135
-1.5170773886727107
-1.2647440299076718
-1.3693700567126987
-1.5416952773327224
-1.4801505556827075
-1.437069250527695
-1.467841611352716
-1.473996083517698
-1.4863050278477177
-1.5663131659927332
-1.4247603061977032
-1.4924595000126994
-1.5416952773327224
-1.5601586938277234
-1.5416952773327224
-1.5170773886727107
-1.677093664962742
-1.677093664962742
-1.590931054652717
-1.5601586938277234
-1.5540042216627135
-1.5416952773327224
-1.504768444342719
-1.4986139721777092
-1.473996083517698
-1.5293863330027024
-1.5416952773327224
-1.5232318608377204
-1.5232318608377204
-1.3385976958876775
-1.5232318608377204
-1.437069250527695
-1.4432237226927047
-1.6032399989827366
-1.5232318608377204
-1.4986139721777092
-1.510922916507701
-1.4863050278477177
-1.4924595000126994
-1.4493781948577145
-1.437069250527695
-1.5540042216627135
-1.437069250527695
-1.3570611123826792
-1.5355408051677124
-1.4863050278477177
-1.4555326670226965
-1.3385976958876775
-1.6463213041377216
-2.0340530505327803
-1.215508252587677
-1.3693700567126987
-1.3816790010426905
-1.4309147783627132
-1.4493781948577145
-1.4432237226927047
-1.3878334732077002
-1.4493781948577145
-1.6401668319727392
-1.5416952773327224
-1.4986139721777092
-1.504768444342719
-1.5170773886727107
-1.400142417537692
-1.510922916507701
-1.5170773886727107
-1.4986139721777092
-1.467841611352716
-1.4924595000126994
-1.4924595000126994
-1.4924595000126994
-1.4432237226927047
-1.6217034154777374
-1.5478497494977315
-1.5663131659927332
-1.5416952773327224
-1.4986139721777092
-1.504768444342719
-1.4986139721777092
-1.4062968897027015
-1.590931054652717
-1.504768444342719
-1.4924595000126994
-1.5170773886727107
-1.4309147783627132
-1.5355408051677124
-1.5293863330027024
-1.4924595000126994
-1.5478497494977315
-1.5170773886727107
-1.5355408051677124
-1.5232318608377204
-1.5416952773327224
-1.5416952773327224
-1.4986139721777092
-1.578622110322725
-1.689402609292734
-1.6032399989827366
-1.437069250527695
-1.683248137127724
-1.615548943312728
-1.5416952773327224
-1.5478497494977315
-1.5293863330027024
-1.5416952773327224
-1.4924595000126994
-1.510922916507701
-0.9570204216576284
-0.01538618041249662
-1.830955469087764
-1.9355814958927628
-2.575646601052861
-1.6278578876427194
-1.6340123598077294
-1.5232318608377204
-1.5293863330027024
-1.4863050278477177
-1.4555326670226965
-1.3385976958876775
-1.5847765824877347
-1.5724676381577152
-1.5416952773327224
-1.5170773886727107
-1.5355408051677124
-1.5478497494977315
-1.4616871391877062
-0.31695531649755804
-1.8371099412527454
-1.3447521680526875
-1.5478497494977315
-1.5355408051677124
-1.5478497494977315
-1.578622110322725
-1.6401668319727392
-2.520256351567857
-2.120215660842805
-1.578622110322725
-1.5478497494977315
-1.5293863330027024
-1.4924595000126994
-1.6032399989827366
-1.6340123598077294
-1.5416952773327224
-1.5724676381577152
-1.5293863330027024
-1.5355408051677124
-1.510922916507701
-1.4924595000126994
-1.5355408051677124
-1.5478497494977315
-1.473996083517698
-1.467841611352716
-1.5232318608377204
-1.4863050278477177
-1.6217034154777374
-1.5847765824877347
-1.5355408051677124
-1.467841611352716
-1.5355408051677124
-1.510922916507701
-1.5478497494977315
-1.5478497494977315
-1.5540042216627135
-1.5293863330027024
-1.5355408051677124
-1.504768444342719
-1.5970855268177266
-1.3693700567126987
-1.39398794537271
-1.4986139721777092
-1.4801505556827075
-1.4493781948577145
-1.4863050278477177
-1.4801505556827075
-1.5540042216627135
-1.4801505556827075
-1.4924595000126994
-1.510922916507701
-1.4801505556827075
-1.5355408051677124
-1.467841611352716
-1.3816790010426905
-1.7201749701177547
-1.5724676381577152
-1.4986139721777092
-1.5232318608377204
-1.5663131659927332
-1.5293863330027024
-1.4801505556827075
-1.990971745377768
-1.6217034154777374
-1.3078253350626845
-1.4247603061977032
-1.4493781948577145
-1.4432237226927047
-1.4186058340326935
-1.6647847206327224
-1.510922916507701
-1.5170773886727107
-1.5478497494977315
-1.510922916507701
-1.504768444342719
-1.5478497494977315
-1.5232318608377204
-1.39398794537271
-1.5724676381577152
-1.5232318608377204
-1.473996083517698
-1.437069250527695
-1.3385976958876775
-1.5601586938277234
-1.467841611352716
-1.3078253350626845
-1.5478497494977315
-1.504768444342719
-1.510922916507701
-1.5478497494977315
-1.4986139721777092
-1.504768444342719
-1.4986139721777092
-1.4555326670226965
-1.5170773886727107
-1.3878334732077002
-1.4247603061977032
-1.5293863330027024
-1.437069250527695
-1.437069250527695
-1.4124513618677115
-1.3816790010426905
-0.9754838381526297
0.1015487907225221
-1.8678823020777668
-1.683248137127724
-1.5847765824877347
-1.5724676381577152
-1.7078660257877356
-2.507947407237865
-1.7755652196027594
-1.4863050278477177
-1.4616871391877062
-1.4924595000126994
-1.473996083517698
-1.467841611352716
-1.4986139721777092
-1.4924595000126994
-1.473996083517698
-1.4863050278477177
-1.4924595000126994
-1.5170773886727107
-1.5170773886727107
-1.4062968897027015
-1.6463213041377216
-1.6340123598077294
-1.5478497494977315
-1.4801505556827075
-1.4493781948577145
-1.4432237226927047
-1.4432237226927047
-1.4555326670226965
-1.3816790010426905
-1.504768444342719
-1.5293863330027024
-1.5416952773327224
-1.4986139721777092
-1.2832074464026733
-1.510922916507701
-1.5847765824877347
-1.3201342793926762
-1.4432237226927047
-1.4924595000126994
-1.4555326670226965
-1.437069250527695
-1.4616871391877062
-1.5293863330027024
-1.5170773886727107
-1.504768444342719
-1.590931054652717
-1.5232318608377204
-1.3139798072276945
-1.5478497494977315
-1.5355408051677124
-1.5293863330027024
-1.4924595000126994
-1.4863050278477177
-1.510922916507701
-1.4986139721777092
-1.4863050278477177
-1.4924595000126994
-1.4924595000126994
-1.4801505556827075
-1.437069250527695
-1.473996083517698
-1.8001831082627426
-2.212532743317813
-1.289361918567683
-1.4186058340326935
-1.4062968897027015
-1.4186058340326935
-1.3447521680526875
-1.5478497494977315
-1.5663131659927332
-1.504768444342719
-1.5540042216627135
-1.5663131659927332
-1.5232318608377204
-1.473996083517698
-1.3878334732077002
-1.7078660257877356
-1.6093944711477182
-1.5416952773327224
-1.5293863330027024
-1.578622110322725
-1.5663131659927332
-1.4924595000126994
-1.4186058340326935
-1.6463213041377216
-1.5724676381577152
-1.5293863330027024
-1.510922916507701
-1.6093944711477182
-1.892500190737778
-1.5847765824877347
-1.4555326670226965
-1.6340123598077294
-1.5663131659927332
-1.5232318608377204
-1.5232318608377204
-1.578622110322725
-1.5478497494977315
-1.4493781948577145
-1.467841611352716
-1.6032399989827366
-1.5478497494977315
-1.215508252587677
-1.3755245288776807
-1.5232318608377204
-1.5232318608377204
-1.4986139721777092
-1.473996083517698
-1.4924595000126994
-1.504768444342719
-1.4986139721777092
-1.4801505556827075
-1.510922916507701
-1.5416952773327224
-1.4186058340326935
-1.504768444342719
-1.3816790010426905
-1.5724676381577152
-1.5232318608377204
-1.4801505556827075
-0.9877927824826491
-0.30464637216753854
-2.187914854657802
-2.538719768062857
-1.6340123598077294
-1.510922916507701
-1.5170773886727107
-1.4986139721777092
-1.504768444342719
-1.504768444342719
-1.683248137127724
-1.849418885582765
-1.5170773886727107
-1.4986139721777092
-1.4863050278477177
-1.4555326670226965
-1.4493781948577145
-1.4555326670226965
-1.5170773886727107
-1.6032399989827366
-1.5170773886727107
-1.5232318608377204
-1.5293863330027024
-1.400142417537692
-1.1170366979476598
-1.3816790010426905
-1.4432237226927047
-1.5663131659927332
-1.4924595000126994
-1.504768444342719
-1.5170773886727107
-1.5355408051677124
-1.5170773886727107
-1.510922916507701
-1.5540042216627135
-1.578622110322725
-1.5232318608377204
-1.4801505556827075
-1.89865466290276
-1.830955469087764
-1.590931054652717
-1.437069250527695
-1.510922916507701
-1.5663131659927332
-1.5355408051677124
-1.5293863330027024
-1.5416952773327224
-1.5416952773327224
-1.4986139721777092
-1.4062968897027015
-1.5232318608377204
-1.25243508557768
-1.1355001144426613
-1.400142417537692
-1.4432237226927047
-1.4555326670226965
-1.473996083517698
-1.4062968897027015
-1.5601586938277234
-1.5293863330027024
-1.5478497494977315
-1.5170773886727107
-1.4616871391877062
-1.6647847206327224
-2.003280689707787
-1.1601180031026725
-1.5232318608377204
-1.4555326670226965
-1.4924595000126994
-1.510922916507701
-1.5170773886727107
-1.510922916507701
-1.504768444342719
-1.504768444342719
-1.510922916507701
-1.5293863330027024
-1.5416952773327224
-1.504768444342719
-1.4924595000126994
-1.400142417537692
-1.6093944711477182
-1.5293863330027024
-1.5170773886727107
-1.5355408051677124
-1.590931054652717
-1.5601586938277234
-1.5355408051677124
-1.4924595000126994
-0.9139391165026156
-0.4892805371175811
-1.6093944711477182
-1.5663131659927332
-1.5416952773327224
-1.4801505556827075
-1.6340123598077294
-1.4801505556827075
-2.003280689707787
-2.495638462907845
-1.615548943312728
-1.4616871391877062
-1.4801505556827075
-1.5293863330027024
-1.473996083517698
-1.4432237226927047
-1.437069250527695
-1.6032399989827366
-1.5170773886727107
-1.4863050278477177
-1.6093944711477182
-1.5232318608377204
-1.510922916507701
-1.473996083517698
-1.437069250527695
-1.6093944711477182
-1.5601586938277234
-1.5478497494977315
-1.510922916507701
-1.5170773886727107
-1.5663131659927332
-1.504768444342719
-1.467841611352716
-1.578622110322725
-1.0431830319676536
-0.26771953917753555
-1.5970855268177266
-1.6093944711477182
-1.615548943312728
-1.757101803107758
-2.581801073217871
-1.8063375804277528
-1.5232318608377204
-1.5170773886727107
-1.4924595000126994
-1.504768444342719
-1.437069250527695
-1.4493781948577145
-1.5293863330027024
-1.5170773886727107
-1.4863050278477177
-1.4801505556827075
-1.4493781948577145
-1.4493781948577145
-1.4555326670226965
-1.3570611123826792
-1.5232318608377204
-1.4616871391877062
-1.4493781948577145
-1.473996083517698
-1.4124513618677115
-1.4986139721777092
-1.467841611352716
-1.4493781948577145
-1.5170773886727107
-1.4432237226927047
-1.4924595000126994
-1.504768444342719
-1.4432237226927047
-1.437069250527695
-1.400142417537692
-1.400142417537692
-1.5478497494977315
-1.4555326670226965
-1.326288751557686
-1.5170773886727107
-1.5293863330027024
-1.5170773886727107
-1.4555326670226965
-1.510922916507701
-1.578622110322725
-1.5293863330027024
-1.5663131659927332
-1.4863050278477177
-1.4555326670226965
-1.473996083517698
-1.39398794537271
-1.4432237226927047
-1.467841611352716
-1.6093944711477182
-1.4924595000126994
-1.4986139721777092
-1.510922916507701
-1.5232318608377204
-1.4309147783627132
-1.5663131659927332
-1.578622110322725
-1.7263294422827367
-2.003280689707787
-1.2462806134126705
-1.363215584547689
-1.3385976958876775
-1.39398794537271
-1.6586302484677409
-1.5416952773327224
-1.504768444342719
-1.510922916507701
-1.5170773886727107
-1.5355408051677124
-1.510922916507701
-1.4432237226927047
-1.5663131659927332
-1.5540042216627135
-1.5355408051677124
-1.5170773886727107
-1.504768444342719
-1.5724676381577152
-1.590931054652717
-1.5293863330027024
-1.6217034154777374
-1.6463213041377216
-1.6217034154777374
-1.5970855268177266
-1.5540042216627135
-1.5601586938277234
-1.5232318608377204
-1.4924595000126994
-1.5355408051677124
-1.4986139721777092
-1.3447521680526875
-1.5293863330027024
-1.5540042216627135
-1.510922916507701
-1.504768444342719
-1.578622110322725
-1.6463213041377216
-1.590931054652717
-1.6401668319727392
-1.6340123598077294
-1.5847765824877347
-1.5540042216627135
-1.4616871391877062
-1.5663131659927332
-1.4247603061977032
-1.615548943312728
-1.5355408051677124
-1.5293863330027024
-1.510922916507701
-1.5170773886727107
-1.437069250527695
-1.6463213041377216
-1.5847765824877347
-1.5355408051677124
-1.5293863330027024
-1.5601586938277234
-1.5293863330027024
-0.9877927824826491
-0.14463009587750708
-1.8432644134177558
-1.6586302484677409
-1.5724676381577152
-1.510922916507701
-1.510922916507701
-1.504768444342719
-1.467841611352716
-2.329467714452832
-2.1263701330077875
-1.5355408051677124
-1.4801505556827075
-1.4986139721777092
-1.4863050278477177
-1.437069250527695
-1.6093944711477182
-1.5293863330027024
-1.6217034154777374
-1.5601586938277234
-1.5663131659927332
-1.5416952773327224
-1.5355408051677124
-1.5478497494977315
-1.504768444342719
-1.4801505556827075
-1.4555326670226965
-1.4801505556827075
-1.467841611352716
-1.4924595000126994
-1.5355408051677124
-1.5540042216627135
-1.467841611352716
-1.5847765824877347
-1.5970855268177266
-1.5724676381577152
-1.5540042216627135
-1.510922916507701
-1.4924595000126994
-1.4863050278477177
-1.3201342793926762
-1.4863050278477177
-1.2093537804226673
-0.5200528979425745
-1.2093537804226673
-1.3878334732077002
-1.4247603061977032
-1.4432237226927047
-1.4062968897027015
-1.5478497494977315
-1.5416952773327224
-1.4863050278477177
-1.4616871391877062
-1.4432237226927047
-1.437069250527695
-1.4432237226927047
-1.8801912464077586
-2.3971669082678284
-1.689402609292734
-1.578622110322725
-1.578622110322725
-1.5724676381577152
-1.5663131659927332
-1.7263294422827367
-2.083288827852803
-1.4062968897027015
-1.4616871391877062
-1.467841611352716
-1.4493781948577145
-1.437069250527695
-1.437069250527695
-1.578622110322725
-1.5540042216627135
-1.590931054652717
-1.4986139721777092
-1.510922916507701
-1.5170773886727107
-1.5478497494977315
-1.5663131659927332
-1.4986139721777092
-1.615548943312728
-1.5847765824877347
-1.5724676381577152
-1.4801505556827075
-1.3878334732077002
-1.6217034154777374
-1.510922916507701
-1.437069250527695
-1.5663131659927332
-1.5724676381577152
-1.5601586938277234
-1.5232318608377204
-1.5170773886727107
-1.5355408051677124
-1.5540042216627135
-1.467841611352716
-1.615548943312728
-1.4863050278477177
-1.4124513618677115
-1.6401668319727392
-1.5663131659927332
-1.5232318608377204
-1.5170773886727107
-1.4555326670226965
-1.5293863330027024
-1.4801505556827075
-1.5293863330027024
-1.5416952773327224
-1.467841611352716
-1.4801505556827075
-1.5170773886727107
-1.4986139721777092
-1.7324839144477464
-1.6955570814577436
-1.5663131659927332
-1.5601586938277234
-1.5416952773327224
-1.5478497494977315
-1.5232318608377204
-1.510922916507701
-1.5293863330027024
-1.5416952773327224
-1.0062561989776508
-0.3415732051575415
-1.5970855268177266
-1.5847765824877347
-2.2063782711528033
-2.735662877342893
-1.7017115536227536
-1.467841611352716
-1.467841611352716
-1.4555326670226965
-1.4616871391877062
-1.4493781948577145
-1.326288751557686
-1.5601586938277234
-1.5663131659927332
-1.5355408051677124
-1.5170773886727107
-1.178581419597674
-1.3385976958876775
-1.5416952773327224
-1.4309147783627132
-1.6093944711477182
-1.590931054652717
-1.5663131659927332
-1.5170773886727107
-1.4986139721777092
-1.510922916507701
-1.4986139721777092
-1.3693700567126987
-1.5724676381577152
-1.5293863330027024
-1.4309147783627132
-1.5663131659927332
-1.5663131659927332
-1.5724676381577152
-1.3385976958876775
-0.4154268711375475
-2.009435161872797
-1.289361918567683
-1.5170773886727107
-1.4555326670226965
-1.437069250527695
-1.4555326670226965
-1.6401668319727392
-2.5141018794028467
-1.6709391927977324
-1.5663131659927332
-1.5232318608377204
-1.510922916507701
-1.5416952773327224
-1.5601586938277234
-1.4863050278477177
-1.6217034154777374
-1.6093944711477182
-1.5970855268177266
-1.615548943312728
-1.615548943312728
-1.5540042216627135
-1.4801505556827075
-1.3693700567126987
-1.7263294422827367
-1.467841611352716
-1.4924595000126994
-1.5540042216627135
-1.5663131659927332
-1.5601586938277234
-1.5416952773327224
-1.5293863330027024
-1.6340123598077294
-1.5478497494977315
-1.510922916507701
-1.510922916507701
-1.510922916507701
-1.504768444342719
-1.5232318608377204
-1.504768444342719
-1.5847765824877347
-1.5232318608377204
-1.5232318608377204
-1.5293863330027024
-1.5293863330027024
-1.5232318608377204
-1.4247603061977032
-1.400142417537692
-1.6217034154777374
-1.5232318608377204
-1.104727753617668
-0.7169960072226089
-1.3693700567126987
-1.4616871391877062
-1.4247603061977032
-1.4986139721777092
-1.504768444342719
-1.473996083517698
-1.4986139721777092
-1.4924595000126994
-1.504768444342719
-1.510922916507701
-0.9077846443376336
-2.2802319371328093
-2.3417766587828237
-2.3110042979578305
-1.6401668319727392
-1.4924595000126994
-1.5170773886727107
-1.5478497494977315
-1.3755245288776807
-1.5232318608377204
-1.578622110322725
-1.5601586938277234
-1.5724676381577152
-1.5355408051677124
-1.5355408051677124
-1.5232318608377204
-1.1724269474326645
-1.3016708628976748
-1.467841611352716
-1.5293863330027024
-1.5232318608377204
-1.467841611352716
-1.4801505556827075
-1.4555326670226965
-0.8339309783576276
0.04000406907250786
-1.855573357747775
-1.6463213041377216
-1.5847765824877347
-1.5601586938277234
-1.5847765824877347
-1.7817196917677414
-2.507947407237865
-1.966353856717784
-1.4616871391877062
-1.4493781948577145
-1.4801505556827075
-1.473996083517698
-1.4986139721777092
-1.4493781948577145
-1.5232318608377204
-1.5601586938277234
-1.5170773886727107
-1.4863050278477177
-1.6032399989827366
-1.7140204979527456
-1.5601586938277234
-0.895475700007614
-1.7078660257877356
-1.9478904402227823
-1.5478497494977315
-1.467841611352716
-1.467841611352716
-1.4924595000126994
-1.467841611352716
-1.3693700567126987
-1.578622110322725
-1.5170773886727107
-1.5601586938277234
-1.6401668319727392
-1.5540042216627135
-1.5416952773327224
-1.510922916507701
-1.3755245288776807
-1.5970855268177266
-1.5293863330027024
-1.504768444342719
-1.4924595000126994
-1.5416952773327224
-1.578622110322725
-1.5170773886727107
-1.2585895577426898
-1.5663131659927332
-1.5478497494977315
-1.4924595000126994
-1.4924595000126994
-1.4801505556827075
-1.4924595000126994
-1.4616871391877062
-1.4309147783627132
-1.6032399989827366
-1.5416952773327224
-1.5293863330027024
-1.5355408051677124
-1.5355408051677124
-1.5170773886727107
-1.6401668319727392
-1.8063375804277528
-2.1079067165127863
-1.2770529742376913
-1.39398794537271
-1.3878334732077002
-1.4247603061977032
-1.4924595000126994
-0.9077846443376336
-1.6955570814577436
-1.9294270237277809
-1.615548943312728
-1.4863050278477177
-1.5232318608377204
-1.7509473309427481
-1.615548943312728
-1.4986139721777092
-1.6586302484677409
-1.6278578876427194
-1.5601586938277234
-1.5601586938277234
-1.5232318608377204
-1.473996083517698
-1.4616871391877062
-1.3693700567126987
-1.5970855268177266
-1.5416952773327224
-1.400142417537692
-1.590931054652717
-1.6463213041377216
-1.6340123598077294
-1.5293863330027024
-1.4986139721777092
-1.7509473309427481
-1.6586302484677409
-1.6278578876427194
-1.590931054652717
-1.5847765824877347
-1.5601586938277234
-1.4863050278477177
-1.4616871391877062
-1.590931054652717
-1.6647847206327224
-1.5601586938277234
-1.5416952773327224
-1.578622110322725
-1.590931054652717
-1.5601586938277234
-1.5724676381577152
-1.6093944711477182
-1.590931054652717
-1.5416952773327224
-1.5355408051677124
-1.5847765824877347
-1.3201342793926762
-0.5877520917575707
-1.2031993082576575
-1.504768444342719
-1.5601586938277234
-1.4924595000126994
-0.9754838381526297
-0.07693090206251085
-1.9786628010477763
-2.194069326822812
-2.612573434042864
-1.6032399989827366
-1.4801505556827075
-1.5355408051677124
-2.0586709391927913
-2.587955545382853
-1.8371099412527454
-1.6278578876427194
-1.7263294422827367
-1.6401668319727392
-1.6647847206327224
-1.677093664962742
-1.6278578876427194
-1.578622110322725
-1.5478497494977315
-1.4247603061977032
-1.6093944711477182
-1.578622110322725
-1.3755245288776807
-1.5416952773327224
-1.5478497494977315
-1.5293863330027024
-1.5601586938277234
-1.615548943312728
-1.6401668319727392
-1.578622110322725
-1.6093944711477182
-1.615548943312728
-1.5847765824877347
-1.5601586938277234
-1.4924595000126994
-1.5847765824877347
-1.467841611352716
-1.6463213041377216
-1.590931054652717
-1.5847765824877347
-1.6032399989827366
-1.5847765824877347
-1.590931054652717
-1.6217034154777374
-1.615548943312728
-1.590931054652717
-1.5724676381577152
-1.5724676381577152
-1.5478497494977315
-1.5170773886727107
-1.4186058340326935
-1.683248137127724
-1.615548943312728
-1.578622110322725
-1.5540042216627135
-1.5540042216627135
-1.5416952773327224
-1.5416952773327224
-1.400142417537692
-1.6586302484677409
-1.6032399989827366
-1.5724676381577152
-1.5478497494977315
-1.6647847206327224
-1.966353856717784
-1.2708985020726815
-1.2770529742376913
-1.4863050278477177
-1.504768444342719
-1.5663131659927332
-1.5416952773327224
-1.510922916507701
-1.5540042216627135
-1.4801505556827075
-1.5601586938277234
-1.6032399989827366
-1.5293863330027024
-1.7324839144477464
-2.2802319371328093
-1.824800996922753
-1.6463213041377216
-1.578622110322725
-1.5970855268177266
-1.6586302484677409
-1.590931054652717
-1.5970855268177266
-1.5847765824877347
-1.5478497494977315
-1.5601586938277234
-1.5724676381577152
-1.5416952773327224
-1.073955392792647
-1.0985732814526583
-1.5170773886727107
-1.5170773886727107
-1.5355408051677124
-1.5293863330027024
-1.4493781948577145
-1.615548943312728
-1.5663131659927332
-1.5663131659927332
-1.5724676381577152
-1.5724676381577152
-1.5970855268177266
-1.5293863330027024
-0.2800284835075273
-0.4892805371175811
-1.4493781948577145
-1.5540042216627135
-1.6093944711477182
-1.6032399989827366
-1.5478497494977315
-1.5355408051677124
-2.335622186617841
-2.2309961598128147
-1.5601586938277234
-1.5170773886727107
-1.5416952773327224
-1.615548943312728
-2.1632969659978185
-2.0463619948628
-1.6586302484677409
-1.2401261412476885
-0.4523537041275505
-1.7140204979527456
-1.689402609292734
-1.677093664962742
-1.6463213041377216
-1.7386383866127564
-2.612573434042864
-1.9048091350677696
-1.5540042216627135
-1.4986139721777092
-1.4124513618677115
-1.6463213041377216
-1.6032399989827366
-1.578622110322725
-1.5540042216627135
-1.5724676381577152
-1.578622110322725
-1.5970855268177266
-1.5601586938277234
-1.5663131659927332
-1.578622110322725
-1.4924595000126994
-1.6093944711477182
-1.5540042216627135
-1.677093664962742
-1.7017115536227536
-1.5970855268177266
-1.5601586938277234
-1.5232318608377204
-1.4124513618677115
-1.6278578876427194
-1.5847765824877347
-1.5663131659927332
-1.5416952773327224
-1.5478497494977315
-1.5847765824877347
-1.578622110322725
-1.5724676381577152
-2.0278985783677985
-1.7201749701177547
-1.5970855268177266
-1.6093944711477182
-1.6032399989827366
-1.5663131659927332
-1.5478497494977315
-1.5416952773327224
-1.6709391927977324
-1.6217034154777374
-1.590931054652717
-1.6032399989827366
-1.5724676381577152
-1.2462806134126705
-1.2770529742376913
-1.5355408051677124
-1.5970855268177266
-1.5478497494977315
-1.5416952773327224
-1.5724676381577152
-1.5540042216627135
-1.5293863330027024
-1.5355408051677124
-1.5355408051677124
-1.7324839144477464
-2.0278985783677985
-1.2647440299076718
-1.3201342793926762
-1.467841611352716
-1.4986139721777092
-1.4186058340326935
-1.5847765824877347
-1.6217034154777374
-1.5601586938277234
-1.5293863330027024
-1.578622110322725
-1.5970855268177266
-1.5601586938277234
-1.467841611352716
-1.590931054652717
-1.5293863330027024
-1.4555326670226965
-1.7201749701177547
-1.6093944711477182
-1.615548943312728
-1.5970855268177266
-1.4801505556827075
-1.5970855268177266
-1.590931054652717
-1.6032399989827366
-1.5847765824877347
-1.578622110322725
-1.5663131659927332
-1.578622110322725
-1.5293863330027024
-1.5663131659927332
-1.5724676381577152
-1.5663131659927332
-1.5847765824877347
-1.5355408051677124
-1.5416952773327224
-1.473996083517698
-1.473996083517698
-1.5970855268177266
-1.578622110322725
-1.5847765824877347
-1.6032399989827366
-1.5355408051677124
-1.4924595000126994
-1.6709391927977324
-1.7017115536227536
-1.6032399989827366
-1.6217034154777374
-1.6278578876427194
-1.6278578876427194
-1.6093944711477182
-1.5847765824877347
-1.4986139721777092
-1.615548943312728
-1.5970855268177266
-1.5540042216627135
-1.5232318608377204
-1.5601586938277234
-1.2031993082576575
-0.3292642608275498
-2.3417766587828237
-2.655654739197877
-1.7694107474377496
-1.6401668319727392
-1.6524757763027313
-1.6524757763027313
-1.615548943312728
-1.5170773886727107
-1.4124513618677115
-1.6032399989827366
-1.5293863330027024
-1.3139798072276945
-1.473996083517698
-1.5540042216627135
-1.5540042216627135
-1.5540042216627135
-1.5601586938277234
-1.683248137127724
-1.6278578876427194
-1.5847765824877347
-1.615548943312728
-1.6340123598077294
-1.6093944711477182
-1.5478497494977315
-1.5232318608377204
-1.4309147783627132
-1.6524757763027313
-1.5293863330027024
-1.4986139721777092
-1.5232318608377204
-1.590931054652717
-1.6093944711477182
-1.5540042216627135
-1.5663131659927332
-1.6340123598077294
-1.6524757763027313
-1.5847765824877347
-1.5601586938277234
-1.5970855268177266
-1.4863050278477177
-1.689402609292734
-1.5847765824877347
-1.578622110322725
-1.5663131659927332
-1.5232318608377204
-1.504768444342719
-1.504768444342719
-1.4493781948577145
-1.6217034154777374
-1.5540042216627135
-1.5478497494977315
-1.5724676381577152
-1.504768444342719
-1.4986139721777092
-1.6340123598077294
-1.467841611352716
-1.6340123598077294
-1.5601586938277234
-1.5416952773327224
-1.5416952773327224
-1.504768444342719
-1.689402609292734
-1.9848172732127856
-1.25243508557768
-1.4432237226927047
-1.4309147783627132
-1.4124513618677115
-1.6093944711477182
-1.677093664962742
-1.5540042216627135
-1.4801505556827075
-1.5601586938277234
-1.683248137127724
-1.590931054652717
-1.590931054652717
-1.615548943312728
-1.6586302484677409
-1.6032399989827366
-1.5663131659927332
-1.5663131659927332
-1.504768444342719
-1.7017115536227536
-1.7017115536227536
-1.7140204979527456
-1.5724676381577152
-1.6463213041377216
-1.504768444342719
-1.6647847206327224
-1.677093664962742
-1.615548943312728
-1.6093944711477182
-1.5663131659927332
-1.5601586938277234
-1.5293863330027024
-1.3570611123826792
-1.6586302484677409
-1.5416952773327224
-1.504768444342719
-1.4986139721777092
-1.473996083517698
-1.510922916507701
-1.467841611352716
-1.3078253350626845
-1.5416952773327224
-1.510922916507701
-1.510922916507701
-1.4986139721777092
-1.4493781948577145
-1.3139798072276945
-1.5601586938277234
-1.4555326670226965
-1.5724676381577152
-1.5232318608377204
-1.5293863330027024
-1.5478497494977315
-1.4986139721777092
-1.5293863330027024
-1.504768444342719
-1.473996083517698
-1.578622110322725
-0.9324025329976448
0.09539431855751236
-1.8063375804277528
-1.7017115536227536
-1.5540042216627135
-1.7632562752727399
-2.5694921288878514
-1.689402609292734
-1.4309147783627132
-1.4986139721777092
-1.5663131659927332
-1.5847765824877347
-1.5416952773327224
-1.4616871391877062
-1.6093944711477182
-1.510922916507701
-1.5416952773327224
-1.6709391927977324
-1.578622110322725
-1.5724676381577152
-1.5293863330027024
-1.4986139721777092
-1.578622110322725
-1.504768444342719
-1.4616871391877062
-1.4186058340326935
-1.4616871391877062
-1.467841611352716
-1.4247603061977032
-1.3447521680526875
-1.5970855268177266
-1.4924595000126994
-1.4493781948577145
-1.4493781948577145
-1.4309147783627132
-1.4432237226927047
-1.4186058340326935
-1.3509066402176972
-1.4924595000126994
-1.4924595000126994
-1.467841611352716
-1.4432237226927047
-1.437069250527695
-1.289361918567683
-1.3509066402176972
-1.3816790010426905
-1.4616871391877062
-1.4493781948577145
-1.4432237226927047
-1.437069250527695
-1.4616871391877062
-1.4863050278477177
-1.1231911701126696
-0.6677602299025862
-1.849418885582765
-1.3078253350626845
-1.504768444342719
-1.3385976958876775
-1.504768444342719
-1.4616871391877062
-1.8371099412527454
-2.4894839907428636
-1.6340123598077294
-1.4493781948577145
-1.4801505556827075
-1.4986139721777092
-1.4924595000126994
-1.5355408051677124
-1.4986139721777092
-1.6032399989827366
-1.5232318608377204
-1.3324432237226955
-1.6401668319727392
-1.5724676381577152
-1.5293863330027024
-1.5170773886727107
-1.4432237226927047
-1.578622110322725
-1.5293863330027024
-1.5478497494977315
-1.5601586938277234
-1.5416952773327224
-1.5170773886727107
-1.4924595000126994
-1.4801505556827075
-1.6093944711477182
-1.689402609292734
-1.5663131659927332
-1.5724676381577152
-1.578622110322725
-1.5601586938277234
-1.504768444342719
-1.5416952773327224
-1.6586302484677409
-1.578622110322725
-1.5724676381577152
-1.5416952773327224
-1.5170773886727107
-1.4247603061977032
-1.3016708628976748
-1.5724676381577152
-1.5355408051677124
-1.5293863330027024
-1.5293863330027024
-1.5232318608377204
-1.5724676381577152
-1.5601586938277234
-1.4493781948577145
-1.5847765824877347
-1.5724676381577152
-1.5232318608377204
-1.5170773886727107
-1.326288751557686
-0.8339309783576276
-1.3385976958876775
-1.5540042216627135
-2.0340530505327803
-1.2832074464026733
-1.3878334732077002
-1.4186058340326935
-1.4493781948577145
-1.473996083517698
-0.9877927824826491
-0.2000203453625393
-1.590931054652717
-1.5416952773327224
-1.9971262175427773
-2.378703491772827
-1.7140204979527456
-1.5724676381577152
-1.5847765824877347
-2.471020574247862
-2.0955977721827947
-1.4986139721777092
-1.5170773886727107
-1.5601586938277234
-1.5663131659927332
-1.5232318608377204
-1.5232318608377204
-1.4863050278477177
-1.4309147783627132
-1.6217034154777374
-1.5355408051677124
-1.4986139721777092
-1.4986139721777092
-1.4924595000126994
-1.504768444342719
-1.5170773886727107
-1.5355408051677124
-1.5416952773327224
-1.5232318608377204
-1.5355408051677124
-1.504768444342719
-1.4924595000126994
-1.289361918567683
-1.615548943312728
-1.578622110322725
-1.5355408051677124
-1.510922916507701
-1.5232318608377204
-1.5540042216627135
-1.504768444342719
-1.4124513618677115
-1.6340123598077294
-1.578622110322725
-1.5232318608377204
-1.504768444342719
-1.4863050278477177
-1.4924595000126994
-1.6586302484677409
-1.473996083517698
-1.5416952773327224
-1.5170773886727107
-1.5355408051677124
-1.5293863330027024
-1.5416952773327224
-1.5478497494977315
-1.4801505556827075
-1.4062968897027015
-1.5540042216627135
-1.510922916507701
-1.437069250527695
-1.510922916507701
-1.6463213041377216
-1.5601586938277234
-1.7140204979527456
-1.972508328882766
-1.289361918567683
-1.4124513618677115
-1.4247603061977032
-1.4309147783627132
-1.4432237226927047
-1.473996083517698
-1.437069250527695
-1.4432237226927047
-1.5293863330027024
-1.7140204979527456
-1.5970855268177266
-1.5355408051677124
-1.4924595000126994
-1.4924595000126994
-1.473996083517698
-1.6217034154777374
-1.5847765824877347
-1.5293863330027024
-1.5478497494977315
-1.5478497494977315
-1.5355408051677124
-1.5232318608377204
-1.3324432237226955
-1.437069250527695
-1.4555326670226965
-1.4801505556827075
-1.5478497494977315
-1.5416952773327224
-1.4801505556827075
-1.510922916507701
-1.4493781948577145
-1.6032399989827366
-1.677093664962742
-1.4309147783627132
-1.4863050278477177
-1.467841611352716
-1.2955163907326928
-1.4863050278477177
-1.4924595000126994
-1.5540042216627135
-1.510922916507701
-1.4986139721777092
-1.510922916507701
-1.5355408051677124
-1.5355408051677124
-1.467841611352716
-1.4986139721777092
-1.5847765824877347
-1.5478497494977315
-1.4986139721777092
-1.4863050278477177
-1.6278578876427194
-1.5416952773327224
-1.4986139721777092
-1.510922916507701
-1.5355408051677124
-1.5540042216627135
-0.9877927824826491
-0.01538618041249662
-1.954044912387765
-1.7078660257877356
-1.972508328882766
-2.6064189618778553
-1.6709391927977324
-1.510922916507701
-1.6586302484677409
-1.5601586938277234
-1.5232318608377204
-1.5293863330027024
-1.4493781948577145
-1.5970855268177266
-1.6032399989827366
-1.590931054652717
-1.5601586938277234
-1.5416952773327224
-1.578622110322725
-1.5355408051677124
-1.3385976958876775
-1.5724676381577152
-1.6524757763027313
-1.5478497494977315
-1.5540042216627135
-1.5355408051677124
-1.5170773886727107
-1.510922916507701
-1.473996083517698
-1.615548943312728
-1.590931054652717
-1.590931054652717
-1.578622110322725
-1.5478497494977315
-1.590931054652717
-1.7447928587777384
-1.6340123598077294
-1.6955570814577436
-1.5970855268177266
-1.5724676381577152
-1.590931054652717
-1.6032399989827366
-1.5724676381577152
-1.4801505556827075
-1.590931054652717
-1.6093944711477182
-1.5663131659927332
-1.5540042216627135
-1.3878334732077002
-1.5232318608377204
-1.5601586938277234
-1.4616871391877062
-1.615548943312728
-1.6647847206327224
-1.5970855268177266
-1.578622110322725
-1.5724676381577152
-1.578622110322725
-1.6032399989827366
-1.510922916507701
-1.5847765824877347
-1.5170773886727107
-1.4616871391877062
-1.824800996922753
-2.0955977721827947
-1.3816790010426905
-1.4432237226927047
-1.39398794537271
-1.5847765824877347
-1.5724676381577152
-1.5355408051677124
-1.5170773886727107
-1.5293863330027024
-1.5478497494977315
-1.5170773886727107
-1.4801505556827075
-1.5232318608377204
-1.6340123598077294
-1.5478497494977315
-1.5170773886727107
-1.4986139721777092
-1.5293863330027024
-1.473996083517698
-1.4309147783627132
-1.578622110322725
-1.5416952773327224
-1.4986139721777092
-1.504768444342719
-1.5170773886727107
-1.4124513618677115
-0.6369878690775933
-1.1662724752676545
-1.4247603061977032
-1.4555326670226965
-1.5232318608377204
-1.5416952773327224
-1.4863050278477177
-1.467841611352716
-1.4616871391877062
-1.5355408051677124
-1.510922916507701
-1.4924595000126994
-1.5416952773327224
-1.683248137127724
-2.323313242287821
-1.830955469087764
-1.4986139721777092
-1.6709391927977324
-1.5847765824877347
-1.5724676381577152
-1.590931054652717
-1.6032399989827366
-1.5663131659927332
-1.5478497494977315
-1.510922916507701
-1.6401668319727392
-1.5847765824877347
-1.0493375041326358
-0.5262073701075842
-1.3201342793926762
-1.4863050278477177
-1.4186058340326935
0.1384756237125251
-1.073955392792647
-2.2063782711528033
-1.7140204979527456
-1.689402609292734
-1.6586302484677409
-1.6032399989827366
-1.7140204979527456
-2.575646601052861
-2.587955545382853
-2.409475852597848
-1.6955570814577436
-1.6340123598077294
-1.5847765824877347
-1.5540042216627135
-1.467841611352716
-1.6032399989827366
-1.6586302484677409
-1.578622110322725
-1.5724676381577152
-1.5970855268177266
-1.5540042216627135
-1.5847765824877347
-1.4924595000126994
-1.683248137127724
-1.5970855268177266
-1.5601586938277234
-1.5416952773327224
-1.5170773886727107
-1.5232318608377204
-1.5478497494977315
-1.400142417537692
-1.5724676381577152
-1.578622110322725
-1.5416952773327224
-1.5293863330027024
-1.467841611352716
-1.3693700567126987
-1.615548943312728
-1.4924595000126994
-1.5355408051677124
-1.5293863330027024
-1.5478497494977315
-1.5478497494977315
-1.5601586938277234
-1.5478497494977315
-1.5293863330027024
-1.5540042216627135
-1.6401668319727392
-1.5724676381577152
-1.4863050278477177
-1.578622110322725
-1.6463213041377216
-1.510922916507701
-1.437069250527695
-1.473996083517698
-1.590931054652717
-1.5355408051677124
-1.5416952773327224
-1.5232318608377204
-1.4493781948577145
-1.4432237226927047
-1.4062968897027015
-1.5970855268177266
-1.849418885582765
-0.5877520917575707
-1.104727753617668
-1.3016708628976748
-1.3693700567126987
-1.3816790010426905
-1.3201342793926762
-1.4309147783627132
-1.4616871391877062
-1.4493781948577145
-1.4186058340326935
-1.437069250527695
-1.473996083517698
-1.473996083517698
-1.7078660257877356
-2.286386409297819
-1.7140204979527456
-1.6032399989827366
-1.5293863330027024
-1.5416952773327224
-1.5355408051677124
-1.467841611352716
-1.39398794537271
-1.4863050278477177
-1.4863050278477177
-1.4493781948577145
-1.4616871391877062
-1.4616871391877062
-1.3570611123826792
-1.590931054652717
-1.4986139721777092
-1.615548943312728
-1.5170773886727107
-1.4555326670226965
-1.467841611352716
-1.5232318608377204
-1.5355408051677124
-1.504768444342719
-1.4863050278477177
-1.578622110322725
-1.5663131659927332
-1.5355408051677124
-1.3324432237226955
-1.4986139721777092
-1.5847765824877347
-1.4801505556827075
-1.4801505556827075
-1.5355408051677124
-1.5293863330027024
-1.5540042216627135
-1.5540042216627135
-1.4924595000126994
-1.5170773886727107
-1.510922916507701
-1.5663131659927332
-1.5293863330027024
-1.5416952773327224
-1.6955570814577436
-1.0678009206276373
-0.3723455659825625
-1.6278578876427194
-2.1571424938328088
-2.5941100175478624
-1.6709391927977324
-1.504768444342719
-1.5232318608377204
-1.5293863330027024
-1.5355408051677124
-1.5170773886727107
-1.4432237226927047
-1.6340123598077294
-1.689402609292734
-1.578622110322725
-1.590931054652717
-1.5970855268177266
-1.590931054652717
-1.5724676381577152
-1.5601586938277234
-1.6586302484677409
-1.5970855268177266
-1.578622110322725
-1.5663131659927332
-1.5416952773327224
-1.5601586938277234
-1.9048091350677696
-1.7386383866127564
-1.689402609292734
-1.6524757763027313
-1.6278578876427194
-1.6217034154777374
-1.6217034154777374
-1.5970855268177266
-1.5416952773327224
-1.6032399989827366
-1.6586302484677409
-1.6340123598077294
-1.615548943312728
-1.221662724752659
-1.2832074464026733
-1.5970855268177266
-0.9077846443376336
-1.689402609292734
-1.9294270237277809
-1.6093944711477182
-1.6278578876427194
-1.5663131659927332
-1.5232318608377204
-1.5540042216627135
-1.510922916507701
-1.615548943312728
-1.5724676381577152
-1.4924595000126994
-1.7201749701177547
-1.5601586938277234
-1.4863050278477177
-1.5478497494977315
-1.4863050278477177
-1.683248137127724
-1.6032399989827366
-1.578622110322725
-1.615548943312728
-1.7817196917677414
-2.0217441062027888
-1.2770529742376913
-1.4124513618677115
-1.39398794537271
-1.6032399989827366
-1.5416952773327224
-1.5232318608377204
-1.5170773886727107
-1.473996083517698
-1.473996083517698
-1.5601586938277234
-1.689402609292734
-1.578622110322725
-1.578622110322725
-1.6032399989827366
-1.5847765824877347
-1.510922916507701
-1.4863050278477177
-1.7078660257877356
-1.6463213041377216
-1.6032399989827366
-1.5663131659927332
-1.6093944711477182
-1.5970855268177266
-1.5847765824877347
-0.9262480608326351
-1.7694107474377496
-1.9971262175427773
-1.6463213041377216
-1.578622110322725
-1.4924595000126994
-1.4555326670226965
-1.6955570814577436
-1.5540042216627135
-1.590931054652717
-1.615548943312728
-1.5970855268177266
-1.5724676381577152
-1.5293863330027024
-1.5724676381577152
-1.5540042216627135
-1.4432237226927047
-1.6217034154777374
-1.6032399989827366
-1.6586302484677409
-1.9478904402227823
-1.7017115536227536
-1.578622110322725
-1.5601586938277234
-1.4986139721777092
-1.6340123598077294
-1.590931054652717
-1.6278578876427194
-1.6093944711477182
-1.590931054652717
-1.5847765824877347
-1.5970855268177266
-1.5724676381577152
-0.7108415350575992
0.32310978866254003
-1.9171180793977614
-1.6955570814577436
-1.6217034154777374
-1.5724676381577152
-1.7447928587777384
-2.6925815721878803
-1.9171180793977614
-1.5478497494977315
-1.5663131659927332
-1.5724676381577152
-1.5601586938277234
-1.5847765824877347
-0.9631748938226381
-1.9355814958927628
-2.003280689707787
-1.6278578876427194
-1.615548943312728
-1.5970855268177266
-1.5601586938277234
-1.5170773886727107
-1.4309147783627132
-1.6217034154777374
-1.5970855268177266
-1.5847765824877347
-1.5478497494977315
-1.5170773886727107
-1.4986139721777092
-1.6586302484677409
-1.4186058340326935
-1.6647847206327224
-1.615548943312728
-1.5540042216627135
-1.578622110322725
-1.615548943312728
-1.6093944711477182
-1.5663131659927332
-1.504768444342719
-1.7140204979527456
-1.615548943312728
-1.5478497494977315
-1.5293863330027024
-1.615548943312728
-1.5601586938277234
-1.4986139721777092
-1.4924595000126994
-1.6463213041377216
-1.590931054652717
-1.5601586938277234
-1.5293863330027024
-1.5663131659927332
-1.5663131659927332
-1.510922916507701
-1.5416952773327224
-1.6463213041377216
-1.683248137127724
-1.6278578876427194
-1.5724676381577152
-1.578622110322725
-1.615548943312728
-1.615548943312728
-1.5724676381577152
-1.7694107474377496
-2.1079067165127863
-1.3693700567126987
-1.4555326670226965
-1.4493781948577145
-1.504768444342719
-0.5815976195925888
-0.1692479845375183
-1.4924595000126994
-1.5847765824877347
-1.590931054652717
-1.5601586938277234
-1.4986139721777092
-1.4986139721777092
-2.194069326822812
-2.3663945474428347
-1.5478497494977315
-1.4493781948577145
-1.4986139721777092
-1.5170773886727107
-1.7017115536227536
-1.9294270237277809
-1.5970855268177266
-1.6524757763027313
-1.5601586938277234
-1.5663131659927332
-1.5540042216627135
-1.5540042216627135
-1.510922916507701
-1.437069250527695
-1.437069250527695
-1.5601586938277234
-1.504768444342719
-1.473996083517698
-1.3139798072276945
-1.5478497494977315
-1.467841611352716
-1.4616871391877062
-1.4986139721777092
-1.5601586938277234
-1.5232318608377204
-1.4924595000126994
-1.510922916507701
-1.5416952773327224
-1.5232318608377204
-1.4986139721777092
-1.5232318608377204
-1.5232318608377204
-1.4616871391877062
-1.6032399989827366
-1.5663131659927332
-1.590931054652717
-1.5601586938277234
-1.4124513618677115
-1.6586302484677409
-1.615548943312728
-1.5847765824877347
-1.5293863330027024
-1.6032399989827366
-1.0554919762976458
0.003077236082504875
-2.520256351567857
-2.520256351567857
-1.7386383866127564
-1.5355408051677124
-1.5232318608377204
-1.473996083517698
-1.4616871391877062
-1.4247603061977032
-1.3201342793926762
-1.4616871391877062
-1.4432237226927047
-1.4555326670226965
-1.437069250527695
-1.3816790010426905
-1.363215584547689
-1.4247603061977032
-1.4309147783627132
-1.4432237226927047
-1.4493781948577145
-1.4801505556827075
-1.4801505556827075
-1.4863050278477177
-1.4924595000126994
-1.4863050278477177
-1.4924595000126994
-1.4863050278477177
-1.437069250527695
-1.504768444342719
-1.3570611123826792
-1.4062968897027015
-1.504768444342719
-1.5416952773327224
-1.4924595000126994
-1.467841611352716
-1.4924595000126994
-1.5232318608377204
-1.5293863330027024
-1.4863050278477177
-1.4555326670226965
-1.3693700567126987
-1.578622110322725
-1.6032399989827366
-1.467841611352716
-1.7201749701177547
-1.6401668319727392
-1.5355408051677124
-1.473996083517698
-1.400142417537692
-1.6093944711477182
-1.6032399989827366
-1.5416952773327224
-1.5478497494977315
-1.5416952773327224
-1.5170773886727107
-1.5170773886727107
-1.4801505556827075
-1.504768444342719
-1.6401668319727392
-1.5232318608377204
-1.4863050278477177
-1.4986139721777092
-1.7386383866127564
-2.04020752269779
-1.215508252587677
-1.3878334732077002
-1.4616871391877062
-1.504768444342719
-1.5170773886727107
-1.5293863330027024
-1.5416952773327224
-1.4924595000126994
-1.683248137127724
-1.6586302484677409
-1.5970855268177266
-1.5724676381577152
-1.5663131659927332
-1.5663131659927332
-1.5847765824877347
-1.5724676381577152
-1.5293863330027024
-1.510922916507701
-1.5232318608377204
-1.510922916507701
-1.4247603061977032
-1.39398794537271
-1.467841611352716
-1.3816790010426905
-1.4986139721777092
-1.4801505556827075
-1.504768444342719
-1.5355408051677124
-1.5355408051677124
-1.504768444342719
-1.4986139721777092
-1.4124513618677115
-1.5970855268177266
-1.5232318608377204
-1.326288751557686
-0.9570204216576284
-1.3447521680526875
-1.437069250527695
-1.467841611352716
-1.510922916507701
-1.590931054652717
-1.5663131659927332
-1.5601586938277234
-1.590931054652717
-1.5847765824877347
-1.5355408051677124
-1.4986139721777092
-1.5170773886727107
-1.89865466290276
-2.083288827852803
-1.6217034154777374
-1.5540042216627135
-1.5663131659927332
-1.5416952773327224
-1.4247603061977032
-1.473996083517698
-1.615548943312728
-0.9631748938226381
0.04000406907250786
-1.9232725515627715
-1.6586302484677409
-1.578622110322725
-1.7017115536227536
-2.704890516517872
-1.7632562752727399
-1.4863050278477177
-1.473996083517698
-1.4555326670226965
-1.4924595000126994
-1.5416952773327224
-1.3878334732077002
-1.5232318608377204
-1.5663131659927332
-1.5293863330027024
-1.467841611352716
-1.4924595000126994
-1.4124513618677115
-1.5355408051677124
-1.4124513618677115
-1.5663131659927332
-1.5355408051677124
-1.5293863330027024
-1.5540042216627135
-1.5293863330027024
-1.5416952773327224
-1.5355408051677124
-1.510922916507701
-1.6032399989827366
-1.5663131659927332
-1.5663131659927332
-1.6647847206327224
-1.7263294422827367
-1.5724676381577152
-1.5355408051677124
-1.5232318608377204
-1.6647847206327224
-1.5724676381577152
-1.5663131659927332
-1.5416952773327224
-1.5355408051677124
-1.5540042216627135
-1.5232318608377204
-1.5293863330027024
-1.5293863330027024
-1.5293863330027024
-1.6401668319727392
-1.5663131659927332
-1.5540042216627135
-1.5293863330027024
-1.4986139721777092
-1.4986139721777092
-1.4924595000126994
-1.4616871391877062
-1.4986139721777092
-1.510922916507701
-1.5293863330027024
-1.5355408051677124
-1.504768444342719
-1.7140204979527456
-1.615548943312728
-1.7694107474377496
-2.0278985783677985
-1.3078253350626845
-1.4801505556827075
-1.467841611352716
-1.3509066402176972
-1.615548943312728
-1.590931054652717
-1.5170773886727107
-1.4986139721777092
-1.5540042216627135
-1.504768444342719
-1.6709391927977324
-1.4863050278477177
-1.6401668319727392
-1.5540042216627135
-1.5416952773327224
-1.578622110322725
-1.578622110322725
-1.6032399989827366
-1.5847765824877347
-1.5170773886727107
-1.615548943312728
-1.6217034154777374
-1.6093944711477182
-1.363215584547689
-1.5293863330027024
-1.5355408051677124
-1.467841611352716
-1.4986139721777092
-1.6032399989827366
-1.590931054652717
-1.5847765824877347
-1.5663131659927332
-1.5478497494977315
-1.5663131659927332
-1.590931054652717
-1.4863050278477177
-1.4801505556827075
-1.5416952773327224
-1.7447928587777384
-1.590931054652717
-1.5540042216627135
-1.5663131659927332
-1.4986139721777092
-1.6340123598077294
-1.6401668319727392
-1.5970855268177266
-1.615548943312728
-1.6093944711477182
-1.578622110322725
-1.5170773886727107
-1.4186058340326935
-1.4924595000126994
-1.615548943312728
-1.5293863330027024
-1.5540042216627135
-1.5847765824877347
-1.578622110322725
-1.0493375041326358
-0.2984919000025288
-1.7140204979527456
-1.683248137127724
-1.6278578876427194
-1.5724676381577152
-1.5724676381577152
-1.5232318608377204
-1.578622110322725
-2.477175046412844
-2.114061188677796
-1.4616871391877062
-1.5232318608377204
-1.504768444342719
-1.5478497494977315
-1.5724676381577152
-1.2462806134126705
-0.26156506701252585
-2.175605910327811
-1.3385976958876775
-1.473996083517698
-1.3016708628976748
-1.5663131659927332
-1.5970855268177266
-1.830955469087764
-2.600264489712873
-1.8001831082627426
-1.5416952773327224
-1.5293863330027024
-1.5355408051677124
-1.510922916507701
-1.504768444342719
-1.3693700567126987
-1.5601586938277234
-1.590931054652717
-1.510922916507701
-1.6340123598077294
-1.5478497494977315
-1.5601586938277234
-1.578622110322725
-1.510922916507701
-1.6401668319727392
-1.6032399989827366
-1.6032399989827366
-1.578622110322725
-1.5416952773327224
-1.5416952773327224
-1.5232318608377204
-1.437069250527695
-1.363215584547689
-1.5663131659927332
-1.4986139721777092
-1.5355408051677124
-1.504768444342719
-1.504768444342719
-1.4801505556827075
-1.4309147783627132
-1.578622110322725
-1.4986139721777092
-1.5232318608377204
-1.504768444342719
-1.4801505556827075
-1.437069250527695
-1.363215584547689
-1.5724676381577152
-1.615548943312728
-1.5170773886727107
-1.5293863330027024
-1.5540042216627135
-1.5601586938277234
-1.5355408051677124
-1.5478497494977315
-1.5540042216627135
-1.5232318608377204
-1.473996083517698
-1.4801505556827075
-1.4986139721777092
-1.677093664962742
-1.7017115536227536
-1.5601586938277234
-2.138679077337807
-1.39398794537271
-1.4309147783627132
-1.467841611352716
-1.5170773886727107
-1.5601586938277234
-1.5416952773327224
-1.473996083517698
-1.5847765824877347
-1.5232318608377204
-1.141654586607671
-0.6062155082525723
-1.2339716690826785
-1.4124513618677115
-1.473996083517698
-1.4124513618677115
-1.504768444342719
-1.5478497494977315
-1.510922916507701
-1.4555326670226965
-1.5478497494977315
-1.5847765824877347
-1.5293863330027024
-1.510922916507701
-2.083288827852803
-2.471020574247862
-1.7632562752727399
-1.6709391927977324
-1.590931054652717
-1.5663131659927332
-1.5416952773327224
-1.5293863330027024
-1.615548943312728
-1.578622110322725
-1.590931054652717
-1.590931054652717
-1.590931054652717
-1.5847765824877347
-1.4062968897027015
-1.5293863330027024
-1.5232318608377204
-1.5355408051677124
-0.9877927824826491
0.033849596907498114
-1.861727829912757
-1.683248137127724
-2.070979883522784
-2.649500267032867
-1.689402609292734
-1.5232318608377204
-1.510922916507701
-1.4801505556827075
-1.4432237226927047
-1.6586302484677409
-1.4801505556827075
-1.5847765824877347
-1.5416952773327224
-1.504768444342719
-1.504768444342719
-1.504768444342719
-1.4924595000126994
-1.4616871391877062
-1.363215584547689
-1.590931054652717
-1.4986139721777092
-1.4493781948577145
-1.4863050278477177
-1.5355408051677124
-1.4863050278477177
-1.4432237226927047
-1.4616871391877062
-1.590931054652717
-1.5478497494977315
-1.5293863330027024
-1.510922916507701
-1.5170773886727107
-1.510922916507701
-1.4555326670226965
-1.4432237226927047
-1.467841611352716
-1.5970855268177266
-1.6401668319727392
-1.504768444342719
-1.5293863330027024
-1.5478497494977315
-1.5170773886727107
-1.510922916507701
-1.5478497494977315
-1.5232318608377204
-1.510922916507701
-1.5601586938277234
-1.5232318608377204
-1.4986139721777092
-1.437069250527695
-1.590931054652717
-1.5847765824877347
-1.5478497494977315
-1.510922916507701
-1.5170773886727107
-1.5293863330027024
-1.5416952773327224
-1.4493781948577145
-1.5724676381577152
-1.5416952773327224
-1.5355408051677124
-1.7263294422827367
-2.015589634037779
-1.141654586607671
-1.4432237226927047
-1.3139798072276945
-1.467841611352716
-1.4124513618677115
-1.473996083517698
-1.4555326670226965
-1.4309147783627132
-1.4309147783627132
-1.4247603061977032
-1.4493781948577145
-1.6093944711477182
-1.5232318608377204
-1.5170773886727107
-1.4186058340326935
-1.6217034154777374
-1.5293863330027024
-1.4555326670226965
-1.504768444342719
-1.5970855268177266
-1.5170773886727107
-1.5355408051677124
-1.5847765824877347
-1.5601586938277234
-1.510922916507701
-1.504768444342719
-1.5478497494977315
-1.5355408051677124
-1.3878334732077002
-1.5970855268177266
-1.5232318608377204
-1.510922916507701
-1.4863050278477177
-1.3816790010426905
-1.5355408051677124
-1.5293863330027024
-1.510922916507701
-1.5355408051677124
-1.5663131659927332
-1.5847765824877347
-1.5663131659927332
-1.400142417537692
-1.7263294422827367
-1.7509473309427481
-1.590931054652717
-1.578622110322725
-1.578622110322725
-1.5970855268177266
-1.578622110322725
-1.510922916507701
-1.6463213041377216
-1.6093944711477182
-1.6093944711477182
-1.578622110322725
-1.5724676381577152
-1.5293863330027024
-1.4432237226927047
-0.9262480608326351
-0.30464637216753854
-1.6463213041377216
-1.6463213041377216
-1.6278578876427194
-1.5663131659927332
-1.5601586938277234
-1.677093664962742
-2.5694921288878514
-1.9786628010477763
-1.504768444342719
-1.4493781948577145
-1.39398794537271
-1.5970855268177266
-1.5601586938277234
-1.504768444342719
-1.473996083517698
-1.504768444342719
-1.5293863330027024
-1.5170773886727107
-1.5170773886727107
-1.4986139721777092
-1.510922916507701
-1.4555326670226965
-1.6401668319727392
-1.4924595000126994
-1.3570611123826792
-1.504768444342719
-1.5601586938277234
-1.5293863330027024
-1.504768444342719
-1.473996083517698
-1.6093944711477182
-1.5355408051677124
-1.4801505556827075
-1.473996083517698
-1.5170773886727107
-1.5170773886727107
-1.4493781948577145
-1.4186058340326935
-1.5601586938277234
-1.7324839144477464
-1.5416952773327224
-1.5170773886727107
-1.5355408051677124
-1.5601586938277234
-1.5232318608377204
-1.4801505556827075
-1.578622110322725
-1.5232318608377204
-1.473996083517698
-1.4924595000126994
-1.510922916507701
-1.467841611352716
-1.3570611123826792
-1.5293863330027024
-1.4924595000126994
-1.4863050278477177
-1.4247603061977032
-1.4493781948577145
-1.510922916507701
-1.4986139721777092
-1.4493781948577145
-1.6463213041377216
-1.9478904402227823
-1.2093537804226673
-1.3755245288776807
-1.3447521680526875
-1.3816790010426905
-1.4616871391877062
-1.400142417537692
-1.4801505556827075
-1.4555326670226965
-1.4247603061977032
-1.4493781948577145
-1.4555326670226965
-1.4493781948577145
-1.4616871391877062
-1.3878334732077002
-1.4801505556827075
-1.467841611352716
-1.0985732814526583
-0.44619923196256844
-1.1355001144426613
-1.3693700567126987
-1.4186058340326935
-0.36619109381755277
-1.0924188092876486
-1.3570611123826792
-1.5293863330027024
-1.504768444342719
-1.473996083517698
-1.4616871391877062
-1.5232318608377204
-2.4525571577528327
-2.612573434042864
-2.4156303247628297
-1.6401668319727392
-1.5232318608377204
-1.5232318608377204
-1.473996083517698
-1.4186058340326935
-1.437069250527695
-1.5293863330027024
-1.4616871391877062
-1.4616871391877062
-1.4986139721777092
-1.473996083517698
-1.4924595000126994
-1.3078253350626845
-1.5293863330027024
-1.5663131659927332
-1.510922916507701
-1.5170773886727107
-1.5293863330027024
-1.5601586938277234
-1.5416952773327224
-1.4555326670226965
-1.615548943312728
-1.6217034154777374
-1.5478497494977315
-1.5478497494977315
-1.0062561989776508
-0.4523537041275505
-1.7201749701177547
-2.114061188677796
-2.544874240227868
-1.6217034154777374
-1.473996083517698
-1.4432237226927047
-1.437069250527695
-1.473996083517698
-1.4616871391877062
-1.3201342793926762
-1.4986139721777092
-1.467841611352716
-1.4124513618677115
-1.2278171969176688
-1.4616871391877062
-1.4309147783627132
-1.4186058340326935
-1.363215584547689
-1.6093944711477182
-1.5416952773327224
-1.5416952773327224
-1.578622110322725
-1.590931054652717
-1.6032399989827366
-1.5663131659927332
-1.5293863330027024
-1.5355408051677124
-1.4616871391877062
-1.5663131659927332
-1.4801505556827075
-1.473996083517698
-1.4493781948577145
-1.4186058340326935
-1.467841611352716
-1.510922916507701
-1.4616871391877062
-1.4986139721777092
-1.4863050278477177
-1.4493781948577145
-1.4124513618677115
-1.2339716690826785
-1.221662724752659
-1.3816790010426905
-1.4062968897027015
-1.4432237226927047
-1.4986139721777092
-1.4986139721777092
-1.4801505556827075
-1.437069250527695
-1.5847765824877347
-1.5478497494977315
-1.5416952773327224
-1.5601586938277234
-1.5724676381577152
-1.6586302484677409
-1.972508328882766
-1.5540042216627135
-1.6217034154777374
-1.5663131659927332
-1.5232318608377204
-1.4986139721777092
-1.6955570814577436
-1.972508328882766
-1.178581419597674
-1.326288751557686
-1.590931054652717
-1.467841611352716
-1.4863050278477177
-1.3447521680526875
-1.5663131659927332
-1.4924595000126994
-1.4616871391877062
-1.510922916507701
-1.6401668319727392
-1.6463213041377216
-1.6217034154777374
-1.5724676381577152
-1.5724676381577152
-1.5847765824877347
-1.4986139721777092
-1.467841611352716
-1.467841611352716
-1.3816790010426905
-1.5170773886727107
-1.4493781948577145
-1.4309147783627132
-1.4124513618677115
-1.3139798072276945
-1.400142417537692
-1.4186058340326935
-1.4616871391877062
-1.4924595000126994
-1.5170773886727107
-1.5663131659927332
-1.6278578876427194
-1.5970855268177266
-1.7755652196027594
-1.9048091350677696
-1.855573357747775
-1.8063375804277528
-1.7386383866127564
-1.6524757763027313
-1.5663131659927332
-1.39398794537271
-1.504768444342719
-1.4186058340326935
-1.4186058340326935
-1.4616871391877062
-1.437069250527695
-1.4186058340326935
-1.5232318608377204
-1.5293863330027024
-1.7694107474377496
-1.683248137127724
-1.615548943312728
-1.5601586938277234
-1.4863050278477177
-1.4616871391877062
-1.3693700567126987
-1.3324432237226955
-0.9816383103176396
-0.15693904020752658
-1.4801505556827075
-1.3447521680526875
-1.510922916507701
-1.4986139721777092
-1.683248137127724
-2.581801073217871
-1.7694107474377496
-1.4432237226927047
-1.4493781948577145
-1.4863050278477177
-1.5232318608377204
-1.504768444342719
-1.3755245288776807
-1.4801505556827075
-1.4493781948577145
-1.2708985020726815
-1.4432237226927047
-1.2832074464026733
-1.2093537804226673
-1.1601180031026725
-1.0062561989776508
-1.2585895577426898
-1.2585895577426898
-1.2278171969176688
-1.2585895577426898
-1.3693700567126987
-1.363215584547689
-1.4124513618677115
-1.3755245288776807
-1.3447521680526875
-1.5540042216627135
-1.4616871391877062
-1.4616871391877062
-1.4616871391877062
-1.4186058340326935
-1.4863050278477177
-1.2585895577426898
-1.3693700567126987
-1.3755245288776807
-1.3570611123826792
-1.3570611123826792
-1.3385976958876775
-1.25243508557768
-1.141654586607671
-1.3693700567126987
-1.3816790010426905
-1.3078253350626845
-1.3385976958876775
-1.3693700567126987
-1.3878334732077002
-1.3447521680526875
-1.2955163907326928
-1.3509066402176972
-1.400142417537692
-1.39398794537271
-1.3878334732077002
-1.3447521680526875
-1.4493781948577145
-1.510922916507701
-1.3816790010426905
-1.4924595000126994
-1.683248137127724
-1.9355814958927628
-1.1970448360926755
-1.3816790010426905
-1.3878334732077002
-1.3755245288776807
-1.2647440299076718
-1.4924595000126994
-1.4493781948577145
-1.141654586607671
-0.8277765061926179
-1.2708985020726815
-1.3570611123826792
-1.400142417537692
-1.3693700567126987
-1.4924595000126994
-1.4616871391877062
-1.4247603061977032
-1.4124513618677115
-1.4124513618677115
-1.4309147783627132
-1.4493781948577145
-1.4186058340326935
-1.818646524757745
-2.015589634037779
-1.5970855268177266
-1.5293863330027024
-1.473996083517698
-1.473996083517698
-1.467841611352716
-1.4309147783627132
-1.4801505556827075
-1.4493781948577145
-1.437069250527695
-1.4309147783627132
-1.4432237226927047
-1.437069250527695
-1.3878334732077002
-1.6955570814577436
-1.5847765824877347
-1.504768444342719
-1.504768444342719
-1.5416952773327224
-1.5540042216627135
-1.5478497494977315
-0.8523943948526291
-1.677093664962742
-1.9355814958927628
-1.5416952773327224
-1.5170773886727107
-1.504768444342719
-1.4493781948577145
-1.5724676381577152
-1.4493781948577145
-1.5540042216627135
-1.5355408051677124
-1.510922916507701
-1.5293863330027024
-1.4863050278477177
-0.9139391165026156
0.07693090206251085
-2.5941100175478624
-2.4587116299178424
-1.5724676381577152
-1.3570611123826792
-0.538516314437576
-1.0062561989776508
-1.3385976958876775
-1.3509066402176972
-1.3385976958876775
-1.4616871391877062
-1.3878334732077002
-1.4247603061977032
-1.4863050278477177
-1.4555326670226965
-1.4432237226927047
-1.467841611352716
-1.4863050278477177
-1.7632562752727399
-2.4894839907428636
-1.8124920525927626
-1.5478497494977315
-1.5232318608377204
-1.4986139721777092
-1.400142417537692
-1.437069250527695
-1.5416952773327224
-1.4801505556827075
-1.4801505556827075
-1.473996083517698
-1.4801505556827075
-1.4493781948577145
0.04615854123751762
-0.1261666793825056
-1.954044912387765
-1.1539635309376628
-1.326288751557686
-1.3755245288776807
-1.400142417537692
-1.4247603061977032
-1.892500190737778
-2.372549019607845
-1.578622110322725
-1.4309147783627132
-1.39398794537271
-1.4186058340326935
-1.954044912387765
-2.249459576307816
-1.5601586938277234
-1.615548943312728
-1.5601586938277234
-1.5540042216627135
-1.5355408051677124
-1.510922916507701
-1.4986139721777092
-1.5293863330027024
-1.473996083517698
-1.615548943312728
-1.5540042216627135
-1.5355408051677124
-1.4555326670226965
-1.6647847206327224
-1.5663131659927332
-1.5293863330027024
-1.510922916507701
-1.5601586938277234
-1.4924595000126994
-1.4616871391877062
-1.4801505556827075
-1.4924595000126994
-1.5170773886727107
-1.5293863330027024
-1.504768444342719
-1.5355408051677124
-1.467841611352716
-1.6032399989827366
-1.5847765824877347
-1.578622110322725
-1.5478497494977315
-0.1261666793825056
-1.855573357747775
-2.3540856031128428
-1.5478497494977315
-1.5170773886727107
-1.5478497494977315
-1.5355408051677124
-1.5170773886727107
-1.4432237226927047
-1.6217034154777374
-1.615548943312728
-1.5663131659927332
-1.5478497494977315
-1.5416952773327224
-1.5478497494977315
-1.5293863330027024
-1.7017115536227536
-2.1017522443478045
-1.3016708628976748
-1.4247603061977032
-1.4432237226927047
-1.467841611352716
-1.4801505556827075
-1.6217034154777374
-1.5847765824877347
-1.6463213041377216
-1.6463213041377216
-1.615548943312728
-1.615548943312728
-1.590931054652717
-1.5970855268177266
-1.5601586938277234
-1.5478497494977315
-1.6340123598077294
-1.5970855268177266
-1.6032399989827366
-1.4247603061977032
-1.5601586938277234
-1.5847765824877347
-1.4801505556827075
-1.5293863330027024
-1.5847765824877347
-0.9631748938226381
0.02769512474251612
-1.892500190737778
-1.689402609292734
-1.615548943312728
-1.8863457185727683
-2.612573434042864
-1.7447928587777384
-1.3755245288776807
-1.6093944711477182
-1.5540042216627135
-1.5232318608377204
-1.4986139721777092
-1.4186058340326935
-1.5663131659927332
-1.5170773886727107
-1.510922916507701
-1.510922916507701
-1.5232318608377204
-1.5540042216627135
-1.5170773886727107
-1.4616871391877062
-1.5540042216627135
-1.6401668319727392
-1.5724676381577152
-1.5663131659927332
-1.5847765824877347
-1.590931054652717
-1.5663131659927332
-1.4801505556827075
-1.6586302484677409
-1.5724676381577152
-1.5663131659927332
-1.590931054652717
-1.5540042216627135
-1.5540042216627135
-1.5724676381577152
-1.6524757763027313
-1.7078660257877356
-1.5970855268177266
-1.578622110322725
-1.5847765824877347
-1.5847765824877347
-1.590931054652717
-1.5601586938277234
-1.5847765824877347
-1.5663131659927332
-1.5355408051677124
-1.615548943312728
-1.4616871391877062
-1.4863050278477177
-1.6524757763027313
-1.578622110322725
-1.5601586938277234
-1.5847765824877347
-1.6032399989827366
-1.590931054652717
-1.5847765824877347
-1.590931054652717
-1.615548943312728
-1.5416952773327224
-1.689402609292734
-1.6647847206327224
-1.3447521680526875
-0.8400854505226096
-0.9385570051626267
-1.3816790010426905
-1.4247603061977032
-1.3816790010426905
-1.6093944711477182
-1.5540042216627135
-1.5970855268177266
-1.578622110322725
-1.5847765824877347
-1.5847765824877347
-1.5478497494977315
-1.5478497494977315
-2.212532743317813
-2.409475852597848
-1.7878741639327511
-1.677093664962742
-1.6401668319727392
-1.6032399989827366
-1.5724676381577152
-1.5540042216627135
-1.615548943312728
-1.6093944711477182
-1.6401668319727392
-1.6463213041377216
-1.6401668319727392
-1.6217034154777374
-1.6401668319727392
-1.91096360723278
-1.7755652196027594
-1.6524757763027313
-1.6278578876427194
-1.5970855268177266
-1.5847765824877347
-1.5970855268177266
-1.6278578876427194
-1.6524757763027313
-1.6340123598077294
-1.6340123598077294
-1.5970855268177266
-1.6032399989827366
-1.5232318608377204
-1.6709391927977324
-1.5416952773327224
-1.6586302484677409
-1.5970855268177266
-1.578622110322725
-1.578622110322725
-1.5724676381577152
-1.578622110322725
-1.5847765824877347
-1.4924595000126994
-1.6586302484677409
-1.6524757763027313
-1.5724676381577152
-1.5293863330027024
-1.7078660257877356
-1.6401668319727392
-1.0801098649576568
-0.34772767732255133
-1.7509473309427481
-1.689402609292734
-1.6709391927977324
-1.6217034154777374
-1.615548943312728
-1.6093944711477182
-1.683248137127724
-2.618727906207874
-1.9171180793977614
-0.8400854505226096
-1.3078253350626845
-1.4863050278477177
-1.5232318608377204
-1.5540042216627135
-1.5355408051677124
-1.4986139721777092
-1.6217034154777374
-1.6093944711477182
-1.615548943312728
-1.6093944711477182
-1.5847765824877347
-1.6524757763027313
-1.9786628010477763
-2.3540856031128428
-1.849418885582765
-1.7078660257877356
-1.7140204979527456
-1.6709391927977324
-1.6709391927977324
-1.689402609292734
-1.5847765824877347
-1.7509473309427481
-1.689402609292734
-1.6401668319727392
-1.6586302484677409
-1.6463213041377216
-1.4863050278477177
-1.6524757763027313
-1.5601586938277234
-1.6340123598077294
-1.590931054652717
-1.6032399989827366
-1.6032399989827366
-1.590931054652717
-1.6032399989827366
-1.6217034154777374
-1.5293863330027024
-1.615548943312728
-1.5355408051677124
-1.5232318608377204
-1.5847765824877347
-1.8001831082627426
-1.6340123598077294
-1.5540042216627135
-1.5355408051677124
-1.689402609292734
-1.6093944711477182
-1.5724676381577152
-1.578622110322725
-1.5724676381577152
-1.5293863330027024
-1.8001831082627426
-2.0463619948628
-1.073955392792647
-1.3016708628976748
-1.5847765824877347
-1.504768444342719
-1.4924595000126994
-1.5355408051677124
-1.5416952773327224
-1.510922916507701
-1.5416952773327224
-1.578622110322725
-1.590931054652717
-1.5478497494977315
-1.4924595000126994
-1.4924595000126994
-1.3201342793926762
-1.4247603061977032
-1.5355408051677124
-1.467841611352716
-1.4186058340326935
-1.4247603061977032
-1.504768444342719
-1.467841611352716
-1.4062968897027015
-1.5293863330027024
-1.4863050278477177
-1.5232318608377204
-1.5416952773327224
-1.510922916507701
-1.3693700567126987
-1.437069250527695
-1.5170773886727107
-1.5478497494977315
-1.473996083517698
-1.4986139721777092
-1.5232318608377204
-1.5170773886727107
-1.510922916507701
-1.3816790010426905
0.1938658731975296
-1.5601586938277234
-1.683248137127724
-1.5601586938277234
-1.510922916507701
-1.7263294422827367
-1.5724676381577152
-1.6463213041377216
-2.600264489712873
-1.9232725515627715
-1.473996083517698
-1.4801505556827075
-1.504768444342719
-1.5232318608377204
-1.5232318608377204
-1.4924595000126994
-1.473996083517698
-1.5540042216627135
-1.25243508557768
-0.7908496732026148
0.12001220721752358
-1.855573357747775
-1.6647847206327224
-1.9848172732127856
-2.649500267032867
-1.7509473309427481
-1.5170773886727107
-1.5232318608377204
-1.5416952773327224
-1.5540042216627135
-1.5416952773327224
-1.4924595000126994
-1.7017115536227536
-1.8371099412527454
-1.6340123598077294
-1.5970855268177266
-1.5970855268177266
-1.5663131659927332
-1.5293863330027024
-1.4616871391877062
-1.578622110322725
-1.5540042216627135
-1.5232318608377204
-1.5416952773327224
-1.5170773886727107
-1.4924595000126994
-1.5478497494977315
-1.5847765824877347
-1.5724676381577152
-1.5416952773327224
-1.5232318608377204
-1.4986139721777092
-1.5293863330027024
-1.5170773886727107
-1.467841611352716
-1.4986139721777092
-1.5416952773327224
-1.4924595000126994
-1.4924595000126994
-1.4432237226927047
-1.467841611352716
-1.5478497494977315
-1.4863050278477177
-1.4432237226927047
-1.4924595000126994
-1.5416952773327224
-1.5355408051677124
-1.5355408051677124
-1.5478497494977315
-1.5478497494977315
-1.4555326670226965
-1.6217034154777374
-1.5847765824877347
-1.6093944711477182
-1.818646524757745
-1.6463213041377216
-1.578622110322725
-1.5663131659927332
-1.5170773886727107
-1.6340123598077294
-1.6093944711477182
-1.6217034154777374
-1.7140204979527456
-2.077134355687793
-1.3509066402176972
-1.4247603061977032
-1.4124513618677115
-1.2955163907326928
-1.4124513618677115
-1.5232318608377204
-1.510922916507701
-1.5416952773327224
-1.5293863330027024
-1.4986139721777092
-1.473996083517698
-1.6217034154777374
-1.5478497494977315
-1.5170773886727107
-1.5170773886727107
-1.5663131659927332
-1.5601586938277234
-1.4247603061977032
-1.6401668319727392
-1.6340123598077294
-1.5601586938277234
-1.5601586938277234
-1.5416952773327224
-1.5232318608377204
-1.5478497494977315
-1.5663131659927332
-1.5478497494977315
-1.5724676381577152
-1.5601586938277234
-1.5663131659927332
-1.5293863330027024
-1.5416952773327224
-1.6955570814577436
-1.4247603061977032
-1.2278171969176688
-1.3385976958876775
-1.757101803107758
-1.7324839144477464
-1.6463213041377216
-1.892500190737778
-1.91096360723278
-1.289361918567683
-1.437069250527695
-1.39398794537271
-1.39398794537271
-1.363215584547689
-1.5170773886727107
-1.510922916507701
-1.5416952773327224
-1.5170773886727107
-1.578622110322725
-1.5540042216627135
-1.5540042216627135
-1.5724676381577152
-1.5540042216627135
-1.5601586938277234
-1.5355408051677124
-1.0062561989776508
-0.3108008443325483
-2.0217441062027888
-1.9417359680577726
-1.6955570814577436
-1.6340123598077294
-1.590931054652717
-1.6463213041377216
-2.575646601052861
-1.9294270237277809
-1.4986139721777092
-1.5293863330027024
-1.5355408051677124
-1.5232318608377204
-1.5293863330027024
-1.2462806134126705
-1.178581419597674
-1.4616871391877062
-1.5232318608377204
-1.5540042216627135
-1.5478497494977315
-1.5663131659927332
-1.5540042216627135
-1.4801505556827075
-1.6217034154777374
-1.5970855268177266
-1.5663131659927332
-1.5663131659927332
-1.5478497494977315
-1.3447521680526875
-1.4616871391877062
-1.3755245288776807
-1.5724676381577152
-1.590931054652717
-1.5663131659927332
-1.5663131659927332
-1.5724676381577152
-1.5478497494977315
-1.6647847206327224
-1.6032399989827366
-1.363215584547689
-1.6217034154777374
-1.6093944711477182
-1.4801505556827075
-1.89865466290276
-1.5232318608377204
-1.2585895577426898
-1.2647440299076718
-1.4986139721777092
-1.4247603061977032
-1.4801505556827075
-1.4986139721777092
-1.510922916507701
-1.4924595000126994
-1.4863050278477177
-1.473996083517698
-1.5355408051677124
-1.6340123598077294
-1.7447928587777384
-1.6093944711477182
-1.5663131659927332
-1.5478497494977315
-1.5355408051677124
-1.5232318608377204
-1.5293863330027024
-1.5601586938277234
-1.5355408051677124
-1.5170773886727107
-1.4616871391877062
-1.4616871391877062
-1.400142417537692
-1.6586302484677409
-1.6647847206327224
-1.5540042216627135
-1.5601586938277234
-1.5540042216627135
-1.5293863330027024
-1.5293863330027024
-1.4309147783627132
-1.615548943312728
-1.5847765824877347
-1.5601586938277234
-1.5232318608377204
-1.467841611352716
-1.39398794537271
-1.6401668319727392
-1.5663131659927332
-1.5724676381577152
-1.5540042216627135
-1.5232318608377204
-1.5416952773327224
-1.5601586938277234
-1.5724676381577152
-1.5478497494977315
-1.4801505556827075
-1.6709391927977324
-1.6217034154777374
-1.578622110322725
-1.3570611123826792
-1.4247603061977032
-1.5355408051677124
-1.5293863330027024
-1.5724676381577152
-1.615548943312728
-1.5724676381577152
-1.6217034154777374
-2.077134355687793
-1.5293863330027024
-1.400142417537692
-1.4432237226927047
-1.4863050278477177
-1.5232318608377204
-1.39398794537271
-1.6586302484677409
-1.6340123598077294
-1.578622110322725
-1.590931054652717
-1.510922916507701
-1.6032399989827366
-1.6647847206327224
-1.615548943312728
-1.6093944711477182
-1.0924188092876486
-0.433890287632549
-1.6709391927977324
-2.2371506319778245
-2.612573434042864
-1.8863457185727683
-1.590931054652717
-1.578622110322725
-1.5724676381577152
-1.5540042216627135
-1.5478497494977315
-1.5355408051677124
-1.6093944711477182
-1.5601586938277234
-1.5416952773327224
-1.5355408051677124
-1.5170773886727107
-1.504768444342719
-1.4493781948577145
-1.6278578876427194
-1.6401668319727392
-1.5970855268177266
-1.6217034154777374
-1.6217034154777374
-1.5847765824877347
-1.6032399989827366
-1.5478497494977315
-1.578622110322725
-1.677093664962742
-1.590931054652717
-1.5724676381577152
-1.510922916507701
-1.5970855268177266
-1.6955570814577436
-1.5601586938277234
-1.5724676381577152
-1.615548943312728
-1.590931054652717
-1.6032399989827366
-1.5970855268177266
-1.5970855268177266
-1.590931054652717
-1.504768444342719
-1.6647847206327224
-1.6278578876427194
-1.510922916507701
-1.590931054652717
-1.5540042216627135
-1.5293863330027024
-1.5232318608377204
-0.5692886752625692
-0.9447114773276367
-1.9171180793977614
-1.4493781948577145
-1.5540042216627135
-1.5355408051677124
-1.5478497494977315
-1.5847765824877347
-2.329467714452832
-2.2371506319778245
-1.6709391927977324
-1.5355408051677124
-1.510922916507701
-1.5293863330027024
-1.5293863330027024
-1.5355408051677124
-1.5478497494977315
-1.6032399989827366
-1.5540042216627135
-1.5540042216627135
-1.5663131659927332
-1.5601586938277234
-1.590931054652717
-1.6401668319727392
-1.6217034154777374
-1.5293863330027024
-1.590931054652717
-1.5663131659927332
-1.5663131659927332
-1.5540042216627135
-1.510922916507701
-1.467841611352716
-1.5293863330027024
-1.5540042216627135
-1.5293863330027024
-1.504768444342719
-1.510922916507701
-1.4309147783627132
-1.6340123598077294
-1.4863050278477177
-1.5970855268177266
-1.5724676381577152
-1.5478497494977315
-1.5601586938277234
-1.5540042216627135
-1.5416952773327224
-1.5663131659927332
-1.473996083517698
-1.6278578876427194
-1.6093944711477182
-1.5355408051677124
-1.467841611352716
-1.5601586938277234
-1.5416952773327224
-1.504768444342719
-1.4432237226927047
-1.5601586938277234
-1.5232318608377204
-1.4863050278477177
-1.5232318608377204
-1.5355408051677124
-1.510922916507701
-1.4863050278477177
-1.8063375804277528
-1.8371099412527454
-1.6032399989827366
-1.677093664962742
-1.473996083517698
-1.473996083517698
-1.4986139721777092
-1.4432237226927047
-1.4555326670226965
-0.9939472546476313
0.02154065257750637
-1.8863457185727683
-1.6463213041377216
-1.5601586938277234
-1.5293863330027024
-1.504768444342719
-2.2802319371328093
-1.7140204979527456
-1.4493781948577145
-1.473996083517698
-1.467841611352716
-1.473996083517698
-1.4863050278477177
-1.4247603061977032
-1.5724676381577152
-1.5232318608377204
-1.4863050278477177
-1.5724676381577152
-1.5601586938277234
-1.3878334732077002
-1.5232318608377204
-1.4863050278477177
-1.6401668319727392
-1.615548943312728
-1.5970855268177266
-1.6093944711477182
-1.5724676381577152
-1.5663131659927332
-1.5478497494977315
-1.5170773886727107
-1.6586302484677409
-1.6093944711477182
-1.6093944711477182
-1.5416952773327224
-1.6524757763027313
-1.5970855268177266
-1.5416952773327224
-1.4986139721777092
-1.683248137127724
-1.578622110322725
-1.5724676381577152
-1.5724676381577152
-1.578622110322725
-1.5663131659927332
-1.510922916507701
-1.4986139721777092
-1.6093944711477182
-1.6647847206327224
-1.7632562752727399
-1.6093944711477182
-1.6278578876427194
-1.6217034154777374
-1.504768444342719
-1.5540042216627135
-1.6524757763027313
-1.6093944711477182
-1.5724676381577152
-1.5540042216627135
-1.5847765824877347
-1.5663131659927332
-1.4432237226927047
-1.5478497494977315
-1.8001831082627426
-1.990971745377768
-1.2585895577426898
-1.4616871391877062
-1.467841611352716
-1.4863050278477177
-1.467841611352716
-1.5847765824877347
-1.5724676381577152
-1.5724676381577152
-1.5478497494977315
-1.5416952773327224
-1.5355408051677124
-1.6709391927977324
-1.5847765824877347
-1.615548943312728
-1.5601586938277234
-1.5663131659927332
-1.5232318608377204
-1.5170773886727107
-1.5293863330027024
-1.4863050278477177
-1.504768444342719
-1.615548943312728
-1.5478497494977315
-1.5355408051677124
-1.3755245288776807
-1.5540042216627135
-1.5970855268177266
-1.5170773886727107
-1.4924595000126994
-1.615548943312728
-1.590931054652717
-1.5724676381577152
-1.5663131659927332
-1.5601586938277234
-1.5540042216627135
-1.5232318608377204
-1.5663131659927332
-1.5540042216627135
-1.4616871391877062
-1.6647847206327224
-1.5847765824877347
-1.578622110322725
-1.5540042216627135
-1.4432237226927047
-1.5970855268177266
-1.590931054652717
-1.5170773886727107
-1.5416952773327224
-1.5478497494977315
-1.5232318608377204
-1.5293863330027024
-1.4062968897027015
-1.4924595000126994
-1.6586302484677409
-1.5724676381577152
-1.5478497494977315
-1.510922916507701
-0.9324025329976448
0.08308537422752059
-2.526410823732866
-2.446402685587851
-1.5540042216627135
-1.473996083517698
-1.504768444342719
-1.4801505556827075
-1.437069250527695
-1.4062968897027015
-1.5416952773327224
-1.5663131659927332
-1.5232318608377204
-1.5540042216627135
-1.5540042216627135
-1.5355408051677124
-1.5540042216627135
-1.5232318608377204
-1.5293863330027024
-1.5724676381577152
-1.5293863330027024
-1.4924595000126994
-1.4493781948577145
-1.5540042216627135
-1.6524757763027313
-1.5355408051677124
-1.5663131659927332
-1.6093944711477182
-1.6093944711477182
-1.6524757763027313
-1.6217034154777374
-1.5970855268177266
-1.6093944711477182
-1.578622110322725
-1.6278578876427194
-1.5847765824877347
-1.6032399989827366
-1.8124920525927626
-1.677093664962742
-1.6217034154777374
-1.615548943312728
-1.4986139721777092
-1.6401668319727392
-1.5970855268177266
-1.5663131659927332
-1.5540042216627135
-1.5601586938277234
-1.590931054652717
-1.5847765824877347
-1.5170773886727107
-1.4124513618677115
-1.4309147783627132
-1.510922916507701
-1.5540042216627135
-1.6032399989827366
-1.578622110322725
-1.5663131659927332
-1.5232318608377204
-1.689402609292734
-1.6278578876427194
-1.6401668319727392
-1.6340123598077294
-1.6093944711477182
-1.8124920525927626
-1.849418885582765
-1.2031993082576575
-1.4616871391877062
-1.5355408051677124
-1.5601586938277234
-1.5663131659927332
-1.6217034154777374
-1.590931054652717
-1.578622110322725
-1.6217034154777374
-1.6463213041377216
-1.6217034154777374
-1.5970855268177266
-1.6032399989827366
-1.7263294422827367
-1.861727829912757
-1.5847765824877347
-1.6401668319727392
-1.6586302484677409
-1.6340123598077294
-1.6032399989827366
-1.6401668319727392
-1.6463213041377216
-1.510922916507701
-1.4986139721777092
-1.5847765824877347
-1.590931054652717
-1.5416952773327224
-1.5663131659927332
-1.7017115536227536
-1.6032399989827366
-1.5724676381577152
-1.467841611352716
-1.6340123598077294
-1.5970855268177266
-1.5663131659927332
-1.5724676381577152
-1.5663131659927332
-1.5601586938277234
-1.4986139721777092
-1.4986139721777092
-1.5478497494977315
-1.6217034154777374
-1.6586302484677409
-1.5847765824877347
-1.6217034154777374
-1.5601586938277234
-1.4924595000126994
-1.5232318608377204
-1.6524757763027313
-1.5540042216627135
-1.5232318608377204
-1.5355408051677124
-1.510922916507701
-1.510922916507701
-1.0493375041326358
-0.40927239897256545
-1.6586302484677409
-1.2770529742376913
-1.467841611352716
-2.1448335495027893
-1.689402609292734
-1.6217034154777374
-1.9294270237277809
-2.624882378372884
-1.6955570814577436
-1.5293863330027024
-1.5293863330027024
-1.5663131659927332
-1.3693700567126987
-1.5847765824877347
-1.4801505556827075
-1.6647847206327224
-1.6340123598077294
-1.6093944711477182
-1.5970855268177266
-1.5601586938277234
-1.5724676381577152
-1.5416952773327224
-1.4309147783627132
-1.6586302484677409
-1.5293863330027024
-1.5170773886727107
-1.3816790010426905
-1.6093944711477182
-1.5663131659927332
-1.510922916507701
-1.4555326670226965
-1.6463213041377216
-1.590931054652717
-1.590931054652717
-1.5847765824877347
-1.5970855268177266
-1.590931054652717
-1.5355408051677124
-1.5232318608377204
-1.5970855268177266
-1.5478497494977315
-1.6955570814577436
-1.6278578876427194
-1.6278578876427194
-1.6217034154777374
-1.5724676381577152
-1.6524757763027313
-1.689402609292734
-1.6524757763027313
-1.6032399989827366
-1.5970855268177266
-1.6278578876427194
-1.6093944711477182
-1.4555326670226965
-1.5601586938277234
-1.677093664962742
-1.6032399989827366
-1.5970855268177266
-1.5601586938277234
-1.5355408051677124
-1.5601586938277234
-1.4555326670226965
-1.6709391927977324
-1.6647847206327224
-1.8124920525927626
-2.0278985783677985
-1.2708985020726815
-1.4309147783627132
-1.3755245288776807
-1.4124513618677115
-1.5416952773327224
-1.5355408051677124
-1.5416952773327224
-1.5540042216627135
-1.5601586938277234
-1.5601586938277234
-1.5540042216627135
-1.5355408051677124
-1.615548943312728
-1.5601586938277234
-1.5601586938277234
-1.5663131659927332
-1.7632562752727399
-1.590931054652717
-1.5293863330027024
-1.5601586938277234
-1.677093664962742
-1.6217034154777374
-1.5970855268177266
-1.5970855268177266
-1.578622110322725
-1.5601586938277234
-1.504768444342719
-1.5232318608377204
-1.5478497494977315
-1.437069250527695
-1.6340123598077294
-1.5970855268177266
-1.5601586938277234
-1.5601586938277234
-1.4616871391877062
-1.4924595000126994
-1.510922916507701
-1.4986139721777092
-1.4924595000126994
-1.4924595000126994
-1.4986139721777092
-1.5232318608377204
-1.4493781948577145
-1.4801505556827075
-1.7509473309427481
-1.6032399989827366
-1.590931054652717
-1.578622110322725
-1.5478497494977315
-1.5170773886727107
-1.504768444342719
-1.6032399989827366
-1.5540042216627135
-1.6401668319727392
-1.5724676381577152
-1.5355408051677124
-1.510922916507701
-0.9385570051626267
-0.3415732051575415
-1.6278578876427194
-1.5970855268177266
-1.5970855268177266
-1.5540042216627135
-1.4924595000126994
-1.4986139721777092
-1.578622110322725
-2.55718318455786
-2.052516467027782
-1.5540042216627135
-1.5663131659927332
-1.504768444342719
-1.578622110322725
-1.6401668319727392
-1.5601586938277234
-1.590931054652717
-1.6217034154777374
-1.5724676381577152
-1.5601586938277234
-1.578622110322725
-1.5724676381577152
-1.5601586938277234
-0.8708578113476306
-1.757101803107758
-1.9786628010477763
-1.5970855268177266
-1.7447928587777384
-1.6463213041377216
