-3.172630401057975
-3.1049312072429505
-3.092622262912931
-3.074158846417929
-3.074158846417929
-3.0680043742529195
-3.0618499020879373
-3.055695429922928
-3.0680043742529195
-3.049540957757918
-3.0310775412629165
-3.037232013427927
-3.0310775412629165
-2.9572238752829105
-2.754126293837894
-2.932605986622927
-2.994150708272913
-3.0126141247679152
-3.0126141247679152
-3.0126141247679152
-3.0249230690979347
-3.043386485592936
-3.055695429922928
-3.0310775412629165
-3.043386485592936
-3.074158846417929
-3.055695429922928
-3.0864677907479487
-3.3326466773480057
-3.184939345387966
-3.1110856794079322
-3.0249230690979347
-2.563337656722869
-2.8033620711578893
-2.981841763942921
-3.018768596932925
-3.043386485592936
-3.504971897968029
-3.2957198443579747
-3.1049312072429505
-3.0864677907479487
-3.080313318582939
-3.0864677907479487
-3.0864677907479487
-3.074158846417929
-3.0618499020879373
-3.0680043742529195
-3.055695429922928
-3.0618499020879373
-3.0618499020879373
-3.055695429922928
-3.037232013427927
-3.080313318582939
-3.0618499020879373
-3.0618499020879373
-3.0618499020879373
-3.037232013427927
-3.0987767350779407
-3.074158846417929
-3.0618499020879373
-3.055695429922928
-3.055695429922928
-3.037232013427927
-3.055695429922928
-3.0618499020879373
-3.0618499020879373
-3.0249230690979347
-3.055695429922928
-3.049540957757918
-3.0249230690979347
-3.049540957757918
-3.117240151572942
-3.055695429922928
-3.043386485592936
-3.0864677907479487
-3.0618499020879373
-3.055695429922928
-3.049540957757918
-3.0864677907479487
-3.0249230690979347
-3.018768596932925
-3.043386485592936
-3.043386485592936
-3.037232013427927
-3.0249230690979347
-3.1049312072429505
-3.0618499020879373
-3.074158846417929
-3.055695429922928
-3.0680043742529195
-3.0680043742529195
-3.080313318582939
-3.074158846417929
-3.080313318582939
-3.080313318582939
-3.074158846417929
-3.0680043742529195
-3.0864677907479487
-3.0680043742529195
-3.0680043742529195
-2.975687291777912
-3.2403295948729705
-3.1664759288929645
-3.117240151572942
-3.1233946237379517
-3.117240151572942
-3.1110856794079322
-3.117240151572942
-3.1357035680679433
-3.117240151572942
-2.96953281961293
-2.778744182497905
-2.772589710332896
-2.8464433763129016
-3.412654815492993
-3.2218661783779687
-3.1110856794079322
-3.092622262912931
-3.080313318582939
-3.0680043742529195
-3.0864677907479487
-3.092622262912931
-3.092622262912931
-3.092622262912931
-3.080313318582939
-3.0987767350779407
-3.2095572340479768
-3.338801149512988
-3.172630401057975
-3.154166984562973
-3.117240151572942
-3.080313318582939
-3.092622262912931
-3.0864677907479487
-3.092622262912931
-3.080313318582939
-3.0680043742529195
-3.043386485592936
-3.080313318582939
-3.049540957757918
-3.055695429922928
-3.1110856794079322
-3.0680043742529195
-3.049540957757918
-3.0680043742529195
-3.049540957757918
-3.074158846417929
-3.0680043742529195
-3.0618499020879373
-3.055695429922928
-3.0680043742529195
-3.0680043742529195
-3.0618499020879373
-3.0249230690979347
-3.0618499020879373
-3.074158846417929
-3.055695429922928
-3.049540957757918
-3.037232013427927
-3.0310775412629165
-3.049540957757918
-3.0249230690979347
-3.074158846417929
-3.055695429922928
-3.049540957757918
-3.055695429922928
-3.055695429922928
-3.037232013427927
-2.994150708272913
-2.821825487652891
-2.96953281961293
-3.0126141247679152
-3.0249230690979347
-3.018768596932925
-2.871061264972913
-3.1110856794079322
-3.141858040232953
-3.037232013427927
-3.0249230690979347
-2.975687291777912
-2.9879962361079313
-2.96953281961293
-2.9572238752829105
-3.037232013427927
-3.0680043742529195
-3.080313318582939
-3.0987767350779407
-3.1110856794079322
-3.117240151572942
-3.1110856794079322
-3.092622262912931
-3.1110856794079322
-3.1110856794079322
-3.1110856794079322
-3.0987767350779407
-3.1110856794079322
-3.092622262912931
-3.277256427862973
-3.2034027618829675
-3.154166984562973
-3.1480125123979352
-3.1357035680679433
-3.141858040232953
-3.1233946237379517
-3.1295490959029335
-3.1110856794079322
-3.1049312072429505
-3.0987767350779407
-3.092622262912931
-3.117240151572942
-3.0864677907479487
-3.0680043742529195
-3.154166984562973
-3.1357035680679433
-3.1295490959029335
-3.1049312072429505
-3.1233946237379517
-3.1295490959029335
-3.1295490959029335
-3.1295490959029335
-3.1357035680679433
-3.1049312072429505
-3.1049312072429505
-3.0987767350779407
-3.092622262912931
-3.0680043742529195
-3.1480125123979352
-3.1233946237379517
-3.092622262912931
-3.1049312072429505
-3.1110856794079322
-3.0618499020879373
-2.9387604587879093
-2.674118155692878
-3.074158846417929
-3.049540957757918
-3.0618499020879373
-3.049540957757918
-3.049540957757918
-2.981841763942921
-3.2957198443579747
-3.141858040232953
-3.1110856794079322
-3.1110856794079322
-3.1049312072429505
-3.1110856794079322
-3.0864677907479487
-3.080313318582939
-3.074158846417929
-3.080313318582939
-3.0680043742529195
-3.0618499020879373
-3.0310775412629165
-3.2403295948729705
-3.2834109000279827
-3.1233946237379517
-3.0987767350779407
-3.080313318582939
-3.0680043742529195
-3.055695429922928
-3.055695429922928
-3.0680043742529195
-3.055695429922928
-3.037232013427927
-3.0618499020879373
-3.049540957757918
-3.0618499020879373
-3.037232013427927
-3.0987767350779407
-3.0618499020879373
-3.037232013427927
-2.600264489712873
-2.729508405177883
-3.0680043742529195
-3.0987767350779407
-3.0126141247679152
-3.0249230690979347
-3.018768596932925
-3.0864677907479487
-3.474199537143008
-3.2403295948729705
-3.1233946237379517
-3.1357035680679433
-3.092622262912931
-3.0864677907479487
-3.092622262912931
-3.055695429922928
-3.0680043742529195
-3.092622262912931
-3.0987767350779407
-3.0864677907479487
-3.0680043742529195
-3.0680043742529195
-3.0680043742529195
-3.0864677907479487
-3.0003051804379233
-2.96953281961293
-3.037232013427927
-3.0249230690979347
-3.037232013427927
-3.0618499020879373
-3.0618499020879373
-3.055695429922928
-3.080313318582939
-3.055695429922928
-3.0618499020879373
-3.0618499020879373
-3.0680043742529195
-3.0618499020879373
-3.018768596932925
-2.932605986622927
-3.0249230690979347
-3.055695429922928
-3.055695429922928
-3.055695429922928
-3.055695429922928
-3.043386485592936
-3.049540957757918
-3.043386485592936
-3.055695429922928
-3.055695429922928
-3.074158846417929
-3.055695429922928
-3.1049312072429505
-3.3203377330179857
-3.154166984562973
-3.0864677907479487
-3.1049312072429505
-3.0618499020879373
-3.055695429922928
-3.055695429922928
-3.049540957757918
-3.055695429922928
-3.055695429922928
-2.944914930952919
-3.006459652602933
-3.141858040232953
-3.0310775412629165
-3.0003051804379233
-3.074158846417929
-3.049540957757918
-3.055695429922928
-3.055695429922928
-3.049540957757918
-3.0618499020879373
-3.074158846417929
-3.0618499020879373
-3.074158846417929
-3.074158846417929
-3.1049312072429505
-3.0864677907479487
-3.037232013427927
-3.043386485592936
-3.0987767350779407
-2.9387604587879093
-2.655654739197877
-3.043386485592936
-3.25263853920299
-3.4988174258030194
-3.178784873222984
-3.117240151572942
-3.1049312072429505
-3.1049312072429505
-3.092622262912931
-3.0864677907479487
-3.074158846417929
-3.092622262912931
-3.1357035680679433
-3.1233946237379517
-3.1049312072429505
-3.0987767350779407
-3.1049312072429505
-3.0987767350779407
-3.092622262912931
-3.117240151572942
-3.1049312072429505
-3.092622262912931
-3.0864677907479487
-3.0618499020879373
-3.074158846417929
-3.074158846417929
-3.0864677907479487
-3.080313318582939
-3.080313318582939
-3.092622262912931
-3.0680043742529195
-3.055695429922928
-3.049540957757918
-3.055695429922928
-3.0618499020879373
-3.0680043742529195
-3.0680043742529195
-3.074158846417929
-3.0680043742529195
-3.018768596932925
-3.092622262912931
-3.055695429922928
-3.049540957757918
-3.074158846417929
-3.043386485592936
-3.055695429922928
-3.080313318582939
-3.0618499020879373
-3.055695429922928
-3.080313318582939
-3.0126141247679152
-3.018768596932925
-3.037232013427927
-3.006459652602933
-3.0864677907479487
-3.055695429922928
-3.049540957757918
-3.0003051804379233
-3.0618499020879373
-3.018768596932925
-2.994150708272913
-2.9879962361079313
-2.944914930952919
-2.760280766002876
-3.0003051804379233
-3.0864677907479487
-3.0249230690979347
-2.994150708272913
-3.0987767350779407
-3.0987767350779407
-3.1049312072429505
-3.0987767350779407
-3.0987767350779407
-3.0680043742529195
-3.080313318582939
-3.0618499020879373
-3.074158846417929
-3.0680043742529195
-3.080313318582939
-3.0618499020879373
-3.049540957757918
-3.0249230690979347
-3.074158846417929
-3.0680043742529195
-3.049540957757918
-3.0618499020879373
-3.0680043742529195
-3.0864677907479487
-3.092622262912931
-3.0864677907479487
-3.080313318582939
-3.0864677907479487
-3.074158846417929
-3.0864677907479487
-3.0680043742529195
-3.0864677907479487
-3.1110856794079322
-3.0987767350779407
-3.0680043742529195
-3.080313318582939
-3.074158846417929
-3.0618499020879373
-3.0618499020879373
-3.055695429922928
-3.074158846417929
-3.049540957757918
-3.0618499020879373
-3.055695429922928
-3.049540957757918
-3.049540957757918
-3.0618499020879373
-3.0680043742529195
-3.0618499020879373
-3.074158846417929
-3.0618499020879373
-3.049540957757918
-3.055695429922928
-3.0618499020879373
-3.0680043742529195
-3.055695429922928
-3.043386485592936
-2.9264515144579173
-2.6064189618778553
-3.0126141247679152
-3.006459652602933
-3.037232013427927
-3.0126141247679152
-3.006459652602933
-3.38803692683301
-3.3203377330179857
-3.1233946237379517
-3.1049312072429505
-3.0987767350779407
-3.080313318582939
-3.080313318582939
-3.092622262912931
-3.092622262912931
-3.0864677907479487
-3.178784873222984
-3.172630401057975
-3.117240151572942
-3.1357035680679433
-3.1295490959029335
-3.1233946237379517
-3.1110856794079322
-3.1357035680679433
-3.117240151572942
-3.1049312072429505
-3.0987767350779407
-3.1049312072429505
-3.092622262912931
-3.055695429922928
-2.96953281961293
-3.092622262912931
-3.080313318582939
-3.0864677907479487
-3.074158846417929
-3.074158846417929
-3.074158846417929
-3.092622262912931
-3.080313318582939
-3.080313318582939
-3.0864677907479487
-3.0618499020879373
-3.049540957757918
-3.0310775412629165
-2.9510694031179288
-3.0310775412629165
-3.049540957757918
-3.037232013427927
-3.055695429922928
-3.055695429922928
-3.055695429922928
-3.0680043742529195
-3.049540957757918
-3.0310775412629165
-3.037232013427927
-3.043386485592936
-3.055695429922928
-3.074158846417929
-3.1480125123979352
-3.160321456727955
-3.092622262912931
-3.0680043742529195
-3.1049312072429505
-2.9202970422929075
-3.1664759288929645
-3.2095572340479768
-3.1110856794079322
-3.1110856794079322
-3.117240151572942
-3.1295490959029335
-3.1233946237379517
-3.1049312072429505
-3.0680043742529195
-3.1233946237379517
-3.1110856794079322
-3.117240151572942
-3.1110856794079322
-3.0987767350779407
-3.0987767350779407
-3.1049312072429505
-3.0987767350779407
-3.0987767350779407
-3.1049312072429505
-3.117240151572942
-3.0864677907479487
-3.092622262912931
-3.037232013427927
-3.092622262912931
-3.0987767350779407
-3.080313318582939
-3.092622262912931
-3.092622262912931
-2.9264515144579173
-3.1664759288929645
-3.178784873222984
-3.092622262912931
-3.1049312072429505
-3.0864677907479487
-3.080313318582939
-3.0864677907479487
-3.0987767350779407
-3.1664759288929645
-3.092622262912931
-3.0680043742529195
-3.074158846417929
-3.0680043742529195
-3.074158846417929
-3.0680043742529195
-2.877215737137895
-2.7910531268278973
-2.9202970422929075
-3.0249230690979347
-3.037232013427927
-3.055695429922928
-3.049540957757918
-2.9264515144579173
-3.406500343328012
-3.344955621677997
-3.141858040232953
-3.117240151572942
-3.1049312072429505
-2.944914930952919
-2.649500267032867
-3.1110856794079322
-3.468045064977998
-3.289565372192993
-3.1295490959029335
-3.0864677907479487
-3.092622262912931
-3.2034027618829675
-3.1295490959029335
-3.1110856794079322
-3.0987767350779407
-3.092622262912931
-3.080313318582939
-3.080313318582939
-3.074158846417929
-3.0680043742529195
-3.092622262912931
-3.0680043742529195
-3.092622262912931
-3.080313318582939
-3.055695429922928
-3.0864677907479487
-3.0987767350779407
-3.0680043742529195
-3.074158846417929
-2.8649067928079033
-3.160321456727955
-3.184939345387966
-3.0864677907479487
-3.0864677907479487
-3.0987767350779407
-3.0864677907479487
-3.080313318582939
-3.074158846417929
-3.0864677907479487
-3.074158846417929
-3.0987767350779407
-3.080313318582939
-3.0864677907479487
-3.0864677907479487
-3.0987767350779407
-3.0987767350779407
-3.0864677907479487
-3.074158846417929
-3.043386485592936
-3.018768596932925
-3.006459652602933
-2.975687291777912
-2.9633783474479203
-3.0126141247679152
-3.080313318582939
-3.074158846417929
-3.092622262912931
-3.1049312072429505
-3.117240151572942
-3.117240151572942
-3.1233946237379517
-3.092622262912931
-3.0987767350779407
-3.1049312072429505
-3.074158846417929
-3.0618499020879373
-3.055695429922928
-2.877215737137895
-3.1233946237379517
-3.1664759288929645
-3.0864677907479487
-3.0618499020879373
-3.055695429922928
-3.055695429922928
-3.0618499020879373
-3.074158846417929
-3.0864677907479487
-3.0618499020879373
-3.055695429922928
-3.0680043742529195
-3.043386485592936
-3.018768596932925
-3.117240151572942
-3.074158846417929
-3.055695429922928
-3.0618499020879373
-3.0680043742529195
-3.0680043742529195
-3.0618499020879373
-3.055695429922928
-3.043386485592936
-3.055695429922928
-3.055695429922928
-3.0618499020879373
-3.0310775412629165
-2.981841763942921
-3.080313318582939
-3.049540957757918
-3.037232013427927
-3.0310775412629165
-3.0618499020879373
-3.049540957757918
-3.0310775412629165
-3.018768596932925
-3.0310775412629165
-3.043386485592936
-3.006459652602933
-3.018768596932925
-3.0126141247679152
-3.0249230690979347
-3.0618499020879373
-3.0310775412629165
-3.0249230690979347
-3.0249230690979347
-3.018768596932925
-3.0126141247679152
-3.018768596932925
-3.0310775412629165
-3.0310775412629165
-3.037232013427927
-3.037232013427927
-3.043386485592936
-3.043386485592936
-3.006459652602933
-3.0864677907479487
-2.907988097962916
-2.618727906207874
-3.018768596932925
-3.0003051804379233
-3.0126141247679152
-3.043386485592936
-3.1480125123979352
-3.4865084814730274
-3.1972482897179852
-3.1233946237379517
-3.0987767350779407
-3.0680043742529195
-3.055695429922928
-3.0987767350779407
-3.0864677907479487
-3.080313318582939
-3.074158846417929
-3.0680043742529195
-3.055695429922928
-3.080313318582939
-3.0618499020879373
-3.0618499020879373
-3.049540957757918
-3.0618499020879373
-3.0618499020879373
-3.049540957757918
-3.0680043742529195
-3.172630401057975
-3.117240151572942
-3.0987767350779407
-3.074158846417929
-3.0680043742529195
-3.0618499020879373
-3.0680043742529195
-3.074158846417929
-3.0680043742529195
-3.055695429922928
-3.055695429922928
-3.0618499020879373
-3.0618499020879373
-3.0249230690979347
-2.975687291777912
-3.037232013427927
-3.037232013427927
-3.037232013427927
-3.043386485592936
-3.043386485592936
-3.0680043742529195
-3.055695429922928
-3.055695429922928
-3.0618499020879373
-3.049540957757918
-3.043386485592936
-3.0249230690979347
-3.0249230690979347
-3.0680043742529195
-3.0864677907479487
-3.0618499020879373
-3.055695429922928
-3.080313318582939
-3.0680043742529195
-3.074158846417929
-3.0618499020879373
-3.0310775412629165
-2.895679153632896
-3.1233946237379517
-3.191093817552976
-3.074158846417929
-3.043386485592936
-3.0310775412629165
-3.1110856794079322
-3.0680043742529195
-3.055695429922928
-3.055695429922928
-3.055695429922928
-3.055695429922928
-3.049540957757918
-3.043386485592936
-3.055695429922928
-3.0618499020879373
-3.055695429922928
-3.037232013427927
-3.055695429922928
-3.0618499020879373
-3.080313318582939
-3.043386485592936
-3.0618499020879373
-3.0310775412629165
-3.037232013427927
-3.043386485592936
-3.0310775412629165
-3.037232013427927
-3.037232013427927
-3.0618499020879373
-3.055695429922928
-3.037232013427927
-3.037232013427927
-3.0310775412629165
-3.0864677907479487
-3.049540957757918
-3.055695429922928
-3.055695429922928
-3.0680043742529195
-3.049540957757918
-3.055695429922928
-3.0680043742529195
-3.0680043742529195
-3.0680043742529195
-3.074158846417929
-3.0618499020879373
-3.080313318582939
-3.0249230690979347
-3.092622262912931
-3.074158846417929
-3.074158846417929
-3.0618499020879373
-3.074158846417929
-3.0680043742529195
-3.0680043742529195
-3.074158846417929
-3.0680043742529195
-3.049540957757918
-2.895679153632896
-2.5941100175478624
-3.2341751227079882
-3.406500343328012
-3.178784873222984
-3.1049312072429505
-3.0864677907479487
-3.1233946237379517
-3.0310775412629165
-3.049540957757918
-3.0618499020879373
-3.0864677907479487
-3.080313318582939
-3.0680043742529195
-3.055695429922928
-3.080313318582939
-3.0680043742529195
-3.037232013427927
-3.0987767350779407
-3.0680043742529195
-3.0618499020879373
-3.0680043742529195
-3.055695429922928
-3.0680043742529195
-3.0618499020879373
-3.049540957757918
-3.055695429922928
-3.080313318582939
-3.080313318582939
-3.0618499020879373
-3.0003051804379233
-2.932605986622927
-3.006459652602933
-2.9572238752829105
-2.9387604587879093
-2.975687291777912
-3.0249230690979347
-3.055695429922928
-3.080313318582939
-3.0864677907479487
-3.1049312072429505
-3.0864677907479487
-3.0864677907479487
-3.049540957757918
-3.037232013427927
-3.0249230690979347
-3.0126141247679152
-3.049540957757918
-3.037232013427927
-3.0680043742529195
-3.037232013427927
-3.018768596932925
-3.0310775412629165
-3.0618499020879373
-3.0680043742529195
-3.043386485592936
-3.043386485592936
-2.8895246814679143
-2.5141018794028467
-2.858752320642893
-2.994150708272913
-3.006459652602933
-3.018768596932925
-3.0126141247679152
-3.018768596932925
-3.3203377330179857
-3.4188092876580036
-3.1233946237379517
-3.0864677907479487
-3.0864677907479487
-3.055695429922928
-3.074158846417929
-3.0618499020879373
-3.0987767350779407
-3.264947483532982
-3.1295490959029335
-3.074158846417929
-3.0864677907479487
-3.080313318582939
-3.080313318582939
-3.049540957757918
-3.049540957757918
-3.074158846417929
-3.074158846417929
-3.074158846417929
-3.049540957757918
-3.049540957757918
-3.049540957757918
-3.0249230690979347
-3.0310775412629165
-3.055695429922928
-3.055695429922928
-3.037232013427927
-3.055695429922928
-3.043386485592936
-3.0680043742529195
-3.0680043742529195
-3.049540957757918
-3.037232013427927
-3.043386485592936
-3.037232013427927
-3.0618499020879373
-3.1295490959029335
-3.154166984562973
-3.117240151572942
-3.0864677907479487
-3.080313318582939
-3.1049312072429505
-3.1049312072429505
-3.1049312072429505
-3.1049312072429505
-3.1233946237379517
-3.1110856794079322
-3.1357035680679433
-3.092622262912931
-3.0864677907479487
-3.0680043742529195
-3.1357035680679433
-3.1049312072429505
-3.1110856794079322
-3.092622262912931
-2.944914930952919
-3.049540957757918
-2.877215737137895
-2.981841763942921
-3.0310775412629165
-3.049540957757918
-3.074158846417929
-3.449581648482997
-3.381882454668
-3.018768596932925
-3.043386485592936
-3.1295490959029335
-3.1295490959029335
-3.117240151572942
-3.0987767350779407
-3.1049312072429505
-3.1233946237379517
-3.117240151572942
-3.0987767350779407
-3.1049312072429505
-3.1233946237379517
-3.1295490959029335
-3.117240151572942
-3.2711019556979917
-3.277256427862973
-3.1480125123979352
-3.117240151572942
-3.1357035680679433
-3.1295490959029335
-3.1295490959029335
-3.117240151572942
-3.1049312072429505
-3.1049312072429505
-3.0987767350779407
-3.092622262912931
-3.092622262912931
-3.092622262912931
-3.1110856794079322
-3.1357035680679433
-3.0864677907479487
-3.080313318582939
-3.1110856794079322
-3.1049312072429505
-3.0864677907479487
-3.0987767350779407
-3.0987767350779407
-3.074158846417929
-3.0987767350779407
-3.1049312072429505
-3.0987767350779407
-3.092622262912931
-3.055695429922928
-3.117240151572942
-3.092622262912931
-3.0618499020879373
-3.092622262912931
-3.0864677907479487
-3.080313318582939
-3.074158846417929
-3.074158846417929
-3.0618499020879373
-3.0987767350779407
-3.080313318582939
-3.080313318582939
-3.037232013427927
-2.871061264972913
-3.1295490959029335
-3.172630401057975
-3.074158846417929
-3.0618499020879373
-3.074158846417929
-3.0680043742529195
-3.055695429922928
-3.0618499020879373
-3.074158846417929
-3.055695429922928
-3.074158846417929
-3.074158846417929
-3.055695429922928
-3.0310775412629165
-3.018768596932925
-3.055695429922928
-3.0618499020879373
-3.0680043742529195
-3.037232013427927
-3.055695429922928
-3.074158846417929
-3.0618499020879373
-3.043386485592936
-3.0618499020879373
-3.0680043742529195
-3.092622262912931
-3.074158846417929
-3.117240151572942
-3.2403295948729705
-3.141858040232953
-3.117240151572942
-3.092622262912931
-3.1110856794079322
-3.117240151572942
-3.092622262912931
-3.055695429922928
-3.1049312072429505
-3.1110856794079322
-3.0987767350779407
-3.074158846417929
-3.055695429922928
-3.043386485592936
-3.018768596932925
-3.074158846417929
-3.080313318582939
-3.080313318582939
-3.074158846417929
-3.055695429922928
-3.0680043742529195
-3.0864677907479487
-3.074158846417929
-3.049540957757918
-3.0618499020879373
-3.0680043742529195
-3.0864677907479487
-3.0680043742529195
-3.074158846417929
-2.9510694031179288
-2.674118155692878
-3.504971897968029
-3.308028788687994
-3.1357035680679433
-3.1233946237379517
-3.1110856794079322
-3.0987767350779407
-3.080313318582939
-3.0987767350779407
-3.092622262912931
-3.1049312072429505
-3.074158846417929
-3.0864677907479487
-3.1480125123979352
-3.092622262912931
-3.049540957757918
-3.0310775412629165
-3.018768596932925
-3.0618499020879373
-2.9879962361079313
-2.981841763942921
-3.043386485592936
-3.1049312072429505
-3.1295490959029335
-3.1480125123979352
-3.0987767350779407
-3.0864677907479487
-3.154166984562973
-3.1357035680679433
-3.1357035680679433
-3.1110856794079322
-3.092622262912931
-3.0987767350779407
-3.1110856794079322
-3.0864677907479487
-3.080313318582939
-3.1049312072429505
-3.1049312072429505
-3.0864677907479487
-3.0680043742529195
-2.994150708272913
-3.0680043742529195
-3.074158846417929
-3.055695429922928
-3.0618499020879373
-3.0864677907479487
-3.0987767350779407
-3.0864677907479487
-3.080313318582939
-3.092622262912931
-3.1049312072429505
-3.0864677907479487
-3.080313318582939
-3.0618499020879373
-3.1664759288929645
-3.1972482897179852
-3.1049312072429505
-3.092622262912931
-3.092622262912931
-3.0864677907479487
-3.092622262912931
-3.080313318582939
-3.055695429922928
-2.901833625797906
-3.1295490959029335
-3.178784873222984
-3.1049312072429505
-3.080313318582939
-3.0249230690979347
-3.1049312072429505
-3.074158846417929
-3.0680043742529195
-3.0680043742529195
-3.043386485592936
-3.037232013427927
-3.0680043742529195
-3.074158846417929
-3.0618499020879373
-3.0618499020879373
-3.092622262912931
-3.055695429922928
-3.043386485592936
-3.0003051804379233
-3.0618499020879373
-3.074158846417929
-3.055695429922928
-3.0618499020879373
-3.0680043742529195
-3.0987767350779407
-3.0680043742529195
-3.0680043742529195
-3.0680043742529195
-3.1049312072429505
-3.0864677907479487
-3.080313318582939
-3.074158846417929
-2.96953281961293
-2.877215737137895
-3.037232013427927
-3.049540957757918
-3.0680043742529195
-3.074158846417929
-3.0680043742529195
-3.043386485592936
-3.0864677907479487
-3.0864677907479487
-3.080313318582939
-3.1049312072429505
-3.092622262912931
-3.080313318582939
-3.1664759288929645
-3.357264566007989
-3.2034027618829675
-3.141858040232953
-3.117240151572942
-3.1049312072429505
-3.1049312072429505
-3.1049312072429505
-3.0864677907479487
-3.080313318582939
-3.0987767350779407
-2.9633783474479203
-2.760280766002876
-2.932605986622927
-2.994150708272913
-3.049540957757918
-3.074158846417929
-2.96953281961293
-3.0126141247679152
-3.2218661783779687
-3.1110856794079322
-3.080313318582939
-3.0618499020879373
-3.074158846417929
-3.25263853920299
-3.511126370133011
-3.2034027618829675
-3.141858040232953
-3.1049312072429505
-3.117240151572942
-3.1357035680679433
-3.092622262912931
-3.074158846417929
-3.1357035680679433
-3.092622262912931
-3.117240151572942
-3.1110856794079322
-3.0987767350779407
-3.092622262912931
-3.0864677907479487
-3.0680043742529195
-3.1233946237379517
-3.049540957757918
-3.055695429922928
-3.1110856794079322
-3.0987767350779407
-3.080313318582939
-3.0864677907479487
-3.080313318582939
-3.0987767350779407
-3.080313318582939
-3.074158846417929
-3.092622262912931
-3.0987767350779407
-3.074158846417929
-3.080313318582939
-3.0864677907479487
-3.117240151572942
-3.160321456727955
-3.1233946237379517
-3.1049312072429505
-3.1357035680679433
-3.1233946237379517
-3.117240151572942
-3.1233946237379517
-3.117240151572942
-3.1110856794079322
-3.092622262912931
-3.1049312072429505
-3.117240151572942
-3.1049312072429505
-3.074158846417929
-3.1480125123979352
-3.117240151572942
-3.092622262912931
-3.0987767350779407
-3.1110856794079322
-3.1049312072429505
-3.0987767350779407
-2.9141425701278982
-2.981841763942921
-3.215711706212987
-3.2403295948729705
-3.117240151572942
-3.0987767350779407
-3.055695429922928
-3.1295490959029335
-3.092622262912931
-3.1049312072429505
-3.092622262912931
-3.0864677907479487
-3.0987767350779407
-3.080313318582939
-3.0987767350779407
-3.1049312072429505
-3.0618499020879373
-3.092622262912931
-3.074158846417929
-3.0680043742529195
-3.055695429922928
-3.1049312072429505
-3.092622262912931
-3.0864677907479487
-3.1049312072429505
-3.092622262912931
-3.074158846417929
-3.080313318582939
-3.080313318582939
-3.043386485592936
-3.0310775412629165
-3.043386485592936
-3.0618499020879373
-3.043386485592936
-2.994150708272913
-3.0987767350779407
-3.0680043742529195
-3.055695429922928
-3.055695429922928
-3.043386485592936
-3.055695429922928
-3.055695429922928
-3.0618499020879373
-3.055695429922928
-3.0680043742529195
-3.0618499020879373
-3.0249230690979347
-3.037232013427927
-2.9879962361079313
-3.0249230690979347
-2.9879962361079313
-2.96953281961293
-2.9572238752829105
-2.9387604587879093
-2.797207598992907
-2.7418173495078744
-3.474199537143008
-3.160321456727955
-3.1233946237379517
-3.117240151572942
-3.1110856794079322
-3.0987767350779407
-3.018768596932925
-2.895679153632896
-3.0310775412629165
-3.0618499020879373
-3.043386485592936
-3.037232013427927
-3.055695429922928
-3.0618499020879373
-3.0680043742529195
-3.0618499020879373
-3.055695429922928
-3.0618499020879373
-3.0680043742529195
-3.0618499020879373
-3.1110856794079322
-3.301874316522985
-3.1480125123979352
-3.1110856794079322
-3.1049312072429505
-3.0987767350779407
-3.117240151572942
-3.0987767350779407
-3.049540957757918
-3.117240151572942
-3.092622262912931
-3.0618499020879373
-3.074158846417929
-3.074158846417929
-3.0618499020879373
-3.092622262912931
-3.074158846417929
-3.0680043742529195
-3.080313318582939
-3.080313318582939
-3.074158846417929
-3.074158846417929
-3.0618499020879373
-3.0680043742529195
-3.0618499020879373
-3.055695429922928
-3.049540957757918
-3.037232013427927
-3.018768596932925
-3.006459652602933
-3.0618499020879373
-3.049540957757918
-3.043386485592936
-3.049540957757918
-3.049540957757918
-3.0618499020879373
-3.055695429922928
-3.0618499020879373
-3.055695429922928
-3.0618499020879373
-3.0680043742529195
-3.0249230690979347
-2.8649067928079033
-3.1295490959029335
-3.2034027618829675
-3.0864677907479487
-3.0618499020879373
-3.0864677907479487
-3.092622262912931
-3.0987767350779407
-3.092622262912931
-3.0987767350779407
-3.0864677907479487
-3.080313318582939
-3.055695429922928
-3.0680043742529195
-3.074158846417929
-3.092622262912931
-3.1295490959029335
-3.1110856794079322
-3.0864677907479487
-3.092622262912931
-3.0864677907479487
-3.092622262912931
-3.092622262912931
-3.1049312072429505
-3.080313318582939
-3.0680043742529195
-3.074158846417929
-3.080313318582939
-3.0618499020879373
-3.037232013427927
-3.1110856794079322
-3.080313318582939
-3.0680043742529195
-3.0864677907479487
-3.0864677907479487
-3.0864677907479487
-3.074158846417929
-3.0680043742529195
-3.074158846417929
-3.092622262912931
-3.080313318582939
-3.0618499020879373
-3.074158846417929
-3.049540957757918
-3.1357035680679433
-3.0987767350779407
-3.074158846417929
-3.0618499020879373
-3.074158846417929
-3.049540957757918
-3.0680043742529195
-3.0618499020879373
-3.0680043742529195
-3.074158846417929
-3.0618499020879373
-3.0618499020879373
-3.0864677907479487
-2.981841763942921
-2.8895246814679143
-2.729508405177883
-2.9202970422929075
-3.0126141247679152
-3.037232013427927
-3.381882454668
-3.38803692683301
-3.1357035680679433
-3.1049312072429505
-3.1049312072429505
-3.117240151572942
-3.092622262912931
-3.0618499020879373
-3.1110856794079322
-3.178784873222984
-3.117240151572942
-3.1049312072429505
-3.0987767350779407
-3.092622262912931
-3.092622262912931
-3.074158846417929
-3.0680043742529195
-3.1049312072429505
-3.1049312072429505
-3.092622262912931
-3.074158846417929
-3.0680043742529195
-3.0618499020879373
-3.1295490959029335
-3.1049312072429505
-3.092622262912931
-3.0987767350779407
-3.092622262912931
-3.0864677907479487
-3.0987767350779407
-3.1110856794079322
-3.1049312072429505
-3.0987767350779407
-3.1049312072429505
-3.1233946237379517
-3.0987767350779407
-3.055695429922928
-3.0310775412629165
-3.1049312072429505
-3.1049312072429505
-3.1110856794079322
-3.0987767350779407
-3.0987767350779407
-3.1049312072429505
-3.074158846417929
-3.1049312072429505
-3.1110856794079322
-3.117240151572942
-3.1233946237379517
-3.1049312072429505
-3.1295490959029335
-3.215711706212987
-3.160321456727955
-3.141858040232953
-3.1233946237379517
-3.1295490959029335
-3.1357035680679433
-3.141858040232953
-3.1110856794079322
-2.975687291777912
-3.184939345387966
-3.2341751227079882
-3.1480125123979352
-3.154166984562973
-3.1233946237379517
-3.1295490959029335
-3.1295490959029335
-3.1233946237379517
-3.1480125123979352
-3.1480125123979352
-3.1049312072429505
-2.6618092113628857
-3.006459652602933
-3.0249230690979347
-3.0249230690979347
-3.0126141247679152
-3.0003051804379233
-3.0003051804379233
-3.1049312072429505
-3.5418987309580316
-3.338801149512988
-3.2280206505429785
-3.2280206505429785
-3.215711706212987
-3.2218661783779687
-3.184939345387966
-3.184939345387966
-3.172630401057975
-3.1480125123979352
-3.154166984562973
-3.1233946237379517
-3.1110856794079322
-3.117240151572942
-3.0864677907479487
-3.1295490959029335
-3.1357035680679433
-3.1357035680679433
-3.117240151572942
-3.1357035680679433
-3.117240151572942
-3.1049312072429505
-3.117240151572942
-3.080313318582939
-3.1295490959029335
-3.117240151572942
-3.092622262912931
-3.080313318582939
-3.0864677907479487
-3.1480125123979352
-3.117240151572942
-3.0987767350779407
-3.0987767350779407
-3.1110856794079322
-3.1295490959029335
-3.1110856794079322
-3.092622262912931
-3.1049312072429505
-2.9879962361079313
-2.766435238167886
-2.9202970422929075
-3.0003051804379233
-2.994150708272913
-3.074158846417929
-3.043386485592936
-3.043386485592936
-3.1110856794079322
-3.517280842298021
-3.301874316522985
-3.141858040232953
-3.1110856794079322
-3.1295490959029335
-3.1233946237379517
-3.117240151572942
-3.1233946237379517
-3.0864677907479487
-3.1110856794079322
-3.2280206505429785
-3.1480125123979352
-3.1480125123979352
-3.1295490959029335
-3.117240151572942
-3.1295490959029335
-3.1110856794079322
-3.0987767350779407
-3.117240151572942
-3.1110856794079322
-3.117240151572942
-3.1049312072429505
-3.1049312072429505
-3.037232013427927
-3.0680043742529195
-3.0987767350779407
-3.0987767350779407
-3.0987767350779407
-3.1110856794079322
-3.1110856794079322
-3.1110856794079322
-3.1049312072429505
-3.117240151572942
-3.1110856794079322
-3.117240151572942
-3.160321456727955
-3.074158846417929
-3.0987767350779407
-3.172630401057975
-3.1233946237379517
-3.1295490959029335
-3.141858040232953
-3.1480125123979352
-3.117240151572942
-3.1110856794079322
-3.141858040232953
-3.141858040232953
-3.1295490959029335
-3.1295490959029335
-3.1295490959029335
-3.1357035680679433
-3.1357035680679433
-3.1357035680679433
-3.1110856794079322
-3.0987767350779407
-2.944914930952919
-3.1480125123979352
-3.2034027618829675
-3.1357035680679433
-3.1357035680679433
-3.117240151572942
-3.0987767350779407
-3.1049312072429505
-3.1049312072429505
-3.0864677907479487
-3.049540957757918
-3.0126141247679152
-3.0987767350779407
-3.074158846417929
-3.092622262912931
-3.1110856794079322
-3.1049312072429505
-3.1110856794079322
-3.1233946237379517
-3.0987767350779407
-3.141858040232953
-3.1295490959029335
-3.1233946237379517
-3.1233946237379517
-3.0864677907479487
-2.9202970422929075
-3.074158846417929
-3.0864677907479487
-3.1233946237379517
-3.117240151572942
-3.1049312072429505
-3.0987767350779407
-3.1295490959029335
-3.1295490959029335
-3.1295490959029335
-3.117240151572942
-3.141858040232953
-3.154166984562973
-3.191093817552976
-3.38803692683301
-3.2280206505429785
-3.178784873222984
-3.160321456727955
-3.141858040232953
-3.1233946237379517
-3.160321456727955
-3.154166984562973
-3.1480125123979352
-3.154166984562973
-3.1664759288929645
-3.160321456727955
-3.1295490959029335
-3.1295490959029335
-3.141858040232953
-3.178784873222984
-3.160321456727955
-3.141858040232953
-3.154166984562973
-2.9879962361079313
-2.704890516517872
-3.1110856794079322
-3.080313318582939
-3.215711706212987
-3.5726710917830253
-3.258793011367972
-3.1480125123979352
-3.1357035680679433
-3.1295490959029335
-3.191093817552976
-3.154166984562973
-3.1664759288929645
-3.1110856794079322
-3.117240151572942
-3.1357035680679433
-3.1295490959029335
-3.1110856794079322
-3.1049312072429505
-3.1357035680679433
-3.117240151572942
-3.1357035680679433
-3.1110856794079322
-3.0987767350779407
-3.184939345387966
-3.141858040232953
-3.1110856794079322
-3.141858040232953
-3.117240151572942
-3.117240151572942
-3.1295490959029335
-3.1110856794079322
-3.117240151572942
-3.117240151572942
-3.1110856794079322
-3.1049312072429505
-3.0987767350779407
-3.1049312072429505
-3.1295490959029335
-3.0618499020879373
-3.0310775412629165
-3.0249230690979347
-2.9879962361079313
-2.981841763942921
-3.006459652602933
-3.0987767350779407
-3.1357035680679433
-3.1295490959029335
-3.1357035680679433
-3.1480125123979352
-3.160321456727955
-3.1049312072429505
-3.160321456727955
-3.1110856794079322
-3.1049312072429505
-3.0987767350779407
-3.0864677907479487
-3.1233946237379517
-3.117240151572942
-3.0864677907479487
-3.0987767350779407
-3.1233946237379517
-3.1049312072429505
-3.0864677907479487
-2.907988097962916
-3.117240151572942
-3.1972482897179852
-3.1233946237379517
-3.080313318582939
-3.080313318582939
-3.092622262912931
-3.1049312072429505
-3.1049312072429505
-3.0987767350779407
-3.1110856794079322
-3.092622262912931
-3.1049312072429505
-3.0987767350779407
-3.074158846417929
-3.0310775412629165
-3.1357035680679433
-3.1295490959029335
-3.092622262912931
-3.0864677907479487
-3.092622262912931
-3.0987767350779407
-3.1049312072429505
-3.0987767350779407
-3.1049312072429505
-3.0864677907479487
-3.0864677907479487
-3.0987767350779407
-3.080313318582939
-2.9510694031179288
-2.8464433763129016
-3.043386485592936
-3.055695429922928
-3.0680043742529195
-3.055695429922928
-3.074158846417929
-3.0987767350779407
-3.0987767350779407
-3.080313318582939
-3.080313318582939
-3.092622262912931
-3.0864677907479487
-3.049540957757918
-3.141858040232953
-3.338801149512988
-3.172630401057975
-3.1357035680679433
-3.1110856794079322
-3.092622262912931
-3.1049312072429505
-3.1049312072429505
-3.092622262912931
-3.117240151572942
-3.1049312072429505
-3.092622262912931
-3.0864677907479487
-3.1049312072429505
-3.0864677907479487
-3.092622262912931
-2.778744182497905
-2.8649067928079033
-3.006459652602933
-3.037232013427927
-3.043386485592936
-3.043386485592936
-3.049540957757918
-3.277256427862973
-3.4803540093080176
-3.172630401057975
-3.1110856794079322
-3.0987767350779407
-3.092622262912931
-3.1110856794079322
-3.117240151572942
-3.092622262912931
-3.080313318582939
-3.092622262912931
-3.0987767350779407
-3.0864677907479487
-3.080313318582939
-3.074158846417929
-3.0864677907479487
-2.8895246814679143
-2.6987360443528896
-2.8895246814679143
-3.1295490959029335
-3.043386485592936
-3.055695429922928
-3.049540957757918
-3.0864677907479487
-3.4803540093080176
-3.289565372192993
-3.1110856794079322
-3.1233946237379517
-3.1357035680679433
-3.0987767350779407
-3.0987767350779407
-3.1049312072429505
-3.1110856794079322
-3.0987767350779407
-3.092622262912931
-3.1357035680679433
-3.1233946237379517
-3.1049312072429505
-3.092622262912931
-3.092622262912931
-3.092622262912931
-3.1049312072429505
-3.1049312072429505
-3.1049312072429505
-3.1049312072429505
-3.0987767350779407
-3.080313318582939
-3.1110856794079322
-3.055695429922928
-3.160321456727955
-3.0864677907479487
-3.055695429922928
-3.092622262912931
-3.0864677907479487
-3.080313318582939
-3.1110856794079322
-3.1110856794079322
-3.0864677907479487
-3.092622262912931
-3.0864677907479487
-3.0864677907479487
-3.092622262912931
-3.0680043742529195
-3.0987767350779407
-3.1357035680679433
-3.1233946237379517
-3.1233946237379517
-3.1049312072429505
-3.1233946237379517
-3.117240151572942
-3.092622262912931
-3.0864677907479487
-3.1049312072429505
-3.1049312072429505
-3.0987767350779407
-3.1049312072429505
-3.092622262912931
-3.154166984562973
-3.1110856794079322
-3.018768596932925
-2.96953281961293
-3.24648406703798
-3.1357035680679433
-3.1049312072429505
-3.1110856794079322
-3.092622262912931
-3.0987767350779407
-3.0987767350779407
-3.0987767350779407
-3.0864677907479487
-3.043386485592936
-3.1295490959029335
-3.1233946237379517
-3.0987767350779407
-3.1049312072429505
-3.0987767350779407
-3.0987767350779407
-3.1110856794079322
-3.1110856794079322
-3.0864677907479487
-3.1049312072429505
-3.1049312072429505
-3.1357035680679433
-3.1233946237379517
-3.0864677907479487
-3.141858040232953
-3.1049312072429505
-3.0987767350779407
-3.1233946237379517
-3.1049312072429505
-3.074158846417929
-3.141858040232953
-3.1233946237379517
-3.1049312072429505
-2.9510694031179288
-2.723353933012873
-2.8525978484779113
-2.907988097962916
-3.1664759288929645
-3.184939345387966
-3.043386485592936
-3.080313318582939
-3.1110856794079322
-3.1480125123979352
-3.154166984562973
-3.1357035680679433
-3.154166984562973
-3.160321456727955
-3.1357035680679433
-3.1295490959029335
-3.0987767350779407
-3.1110856794079322
-3.141858040232953
-3.25263853920299
-3.191093817552976
-3.154166984562973
-3.1233946237379517
-3.1233946237379517
-3.1233946237379517
-3.1233946237379517
-3.1357035680679433
-3.1233946237379517
-3.1357035680679433
-3.160321456727955
-3.1295490959029335
-3.1049312072429505
-3.049540957757918
-2.8464433763129016
-3.0126141247679152
-3.080313318582939
-3.0864677907479487
-3.080313318582939
-3.0987767350779407
-3.1110856794079322
-3.1110856794079322
-3.1049312072429505
-3.117240151572942
-3.117240151572942
-3.0680043742529195
-3.080313318582939
-3.1110856794079322
-3.2218661783779687
-3.141858040232953
-3.1233946237379517
-3.1233946237379517
-3.117240151572942
-3.117240151572942
-3.1110856794079322
-3.0987767350779407
-3.117240151572942
-3.1110856794079322
-3.1110856794079322
-3.1110856794079322
-3.1110856794079322
-3.1295490959029335
-3.289565372192993
-3.2095572340479768
-3.1049312072429505
-2.9264515144579173
-3.141858040232953
-3.1972482897179852
-3.0987767350779407
-3.117240151572942
-3.1049312072429505
-3.1049312072429505
-3.1233946237379517
-3.1233946237379517
-3.1110856794079322
-3.1049312072429505
-3.1233946237379517
-3.1664759288929645
-3.1357035680679433
-3.1233946237379517
-3.1233946237379517
-3.117240151572942
-3.1233946237379517
-3.1233946237379517
-3.0987767350779407
-3.1357035680679433
-3.1110856794079322
-3.0987767350779407
-3.1049312072429505
-3.1110856794079322
-3.0310775412629165
-3.0987767350779407
-3.1110856794079322
-3.080313318582939
-3.074158846417929
-3.074158846417929
-3.092622262912931
-3.092622262912931
-3.1049312072429505
-2.9141425701278982
-3.160321456727955
-3.191093817552976
-3.117240151572942
-3.092622262912931
-3.0618499020879373
-3.141858040232953
-3.1049312072429505
-3.092622262912931
-3.0864677907479487
-3.074158846417929
-3.074158846417929
-3.0864677907479487
-3.092622262912931
-3.0987767350779407
-3.0987767350779407
-3.074158846417929
-3.0987767350779407
-3.080313318582939
-3.0618499020879373
-3.141858040232953
-3.0987767350779407
-3.0864677907479487
-3.080313318582939
-2.9572238752829105
-2.747971821672884
-2.932605986622927
-3.0126141247679152
-3.018768596932925
-3.006459652602933
-3.0126141247679152
-3.0618499020879373
-3.437272704153005
-3.2034027618829675
-3.1233946237379517
-3.1110856794079322
-3.080313318582939
-3.080313318582939
-3.074158846417929
-3.074158846417929
-3.0987767350779407
-3.080313318582939
-3.080313318582939
-3.092622262912931
-3.0987767350779407
-3.092622262912931
-3.080313318582939
-3.049540957757918
-3.0864677907479487
-3.1049312072429505
-3.0864677907479487
-3.074158846417929
-3.074158846417929
-3.055695429922928
-3.0680043742529195
-2.877215737137895
-3.1295490959029335
-3.160321456727955
-3.0864677907479487
-3.0864677907479487
-3.0680043742529195
-3.0680043742529195
-3.191093817552976
-3.1295490959029335
-3.1049312072429505
-3.0987767350779407
-3.0864677907479487
-3.080313318582939
-3.092622262912931
-3.092622262912931
-3.0864677907479487
-3.0680043742529195
-3.0987767350779407
-3.092622262912931
-3.055695429922928
-2.9387604587879093
-2.704890516517872
-2.944914930952919
-3.0249230690979347
-3.037232013427927
-3.0680043742529195
-3.055695429922928
-3.049540957757918
-3.043386485592936
-3.055695429922928
-3.0864677907479487
-3.074158846417929
-3.0249230690979347
-2.883370209302905
-3.2034027618829675
-3.677297118588053
-3.2957198443579747
-3.154166984562973
-3.154166984562973
-3.178784873222984
-3.0987767350779407
-3.092622262912931
-3.117240151572942
-3.117240151572942
-3.1295490959029335
-3.1233946237379517
-3.117240151572942
-3.1233946237379517
-3.0864677907479487
-2.9141425701278982
-3.049540957757918
-3.0987767350779407
-3.117240151572942
-3.1049312072429505
-3.0987767350779407
-3.117240151572942
-3.1357035680679433
-3.117240151572942
-3.117240151572942
-3.1049312072429505
-3.0987767350779407
-3.080313318582939
-3.0310775412629165
-2.8464433763129016
-2.747971821672884
-2.858752320642893
-2.9387604587879093
-3.006459652602933
-3.0618499020879373
-3.0987767350779407
-3.1110856794079322
-3.468045064977998
-3.4434271763180146
-3.2034027618829675
-3.160321456727955
-3.1295490959029335
-3.1110856794079322
-3.080313318582939
-3.160321456727955
-3.1295490959029335
-3.117240151572942
-3.1295490959029335
-3.1233946237379517
-3.1049312072429505
-3.1110856794079322
-3.1049312072429505
-3.0987767350779407
-3.092622262912931
-3.092622262912931
-3.0680043742529195
-3.074158846417929
-2.9141425701278982
-2.7171994608478913
-3.080313318582939
-3.1233946237379517
-3.511126370133011
-3.2341751227079882
-3.1295490959029335
-3.1110856794079322
-3.0864677907479487
-3.074158846417929
-3.074158846417929
-3.080313318582939
-3.074158846417929
-3.049540957757918
-3.037232013427927
-3.1049312072429505
-3.080313318582939
-3.0618499020879373
-3.0618499020879373
-3.0618499020879373
-3.0680043742529195
-3.055695429922928
-3.049540957757918
-3.043386485592936
-3.049540957757918
-3.037232013427927
-3.037232013427927
-3.0310775412629165
-3.018768596932925
-3.055695429922928
-3.037232013427927
-3.049540957757918
-3.049540957757918
-3.0249230690979347
-3.0310775412629165
-3.037232013427927
-3.0310775412629165
-3.037232013427927
-3.043386485592936
-3.049540957757918
-3.043386485592936
-3.0310775412629165
-3.006459652602933
-3.1049312072429505
-3.0987767350779407
-3.0680043742529195
-3.074158846417929
-3.0618499020879373
-3.080313318582939
-3.1049312072429505
-3.092622262912931
-3.092622262912931
-3.1233946237379517
-3.0987767350779407
-3.1049312072429505
-3.092622262912931
-2.96953281961293
-2.883370209302905
-3.049540957757918
-3.0680043742529195
-3.0680043742529195
-3.0680043742529195
-3.0680043742529195
-3.049540957757918
-2.895679153632896
-3.1295490959029335
-3.2034027618829675
-3.1233946237379517
-3.092622262912931
-3.1049312072429505
-3.184939345387966
-3.369573510338009
-3.1972482897179852
-3.141858040232953
-3.1233946237379517
-3.1357035680679433
-3.117240151572942
-3.117240151572942
-3.117240151572942
-3.0987767350779407
-3.1049312072429505
-3.1110856794079322
-3.0680043742529195
-3.0987767350779407
-3.074158846417929
-3.0864677907479487
-3.092622262912931
-3.0987767350779407
-3.0864677907479487
-3.0864677907479487
-3.080313318582939
-3.1110856794079322
-3.1110856794079322
-3.1233946237379517
-3.1110856794079322
-3.1110856794079322
-3.1233946237379517
-3.1110856794079322
-3.1295490959029335
-3.1233946237379517
-3.1233946237379517
-3.1357035680679433
-3.1233946237379517
-3.117240151572942
-3.1233946237379517
-3.1233946237379517
-3.1233946237379517
-3.117240151572942
-3.1049312072429505
-3.0987767350779407
-3.1233946237379517
-3.1110856794079322
-3.074158846417929
-3.117240151572942
-3.160321456727955
-3.1233946237379517
-3.1049312072429505
-3.117240151572942
-3.1110856794079322
-3.1110856794079322
-3.0987767350779407
-3.1049312072429505
-2.9572238752829105
-2.667963683527869
-3.092622262912931
-3.0249230690979347
-3.037232013427927
-3.043386485592936
-3.080313318582939
-3.289565372192993
-3.511126370133011
-3.1972482897179852
-3.1295490959029335
-3.117240151572942
-3.1049312072429505
-3.0987767350779407
-3.092622262912931
-3.0864677907479487
-3.0987767350779407
-3.0864677907479487
-3.080313318582939
-3.055695429922928
-3.080313318582939
-3.092622262912931
-3.074158846417929
-3.0618499020879373
-3.080313318582939
-3.0864677907479487
-3.0864677907479487
-3.0864677907479487
-3.080313318582939
-3.074158846417929
-3.080313318582939
-3.0680043742529195
-3.0864677907479487
-3.074158846417929
-3.154166984562973
-3.0864677907479487
-3.074158846417929
-3.092622262912931
-3.092622262912931
-3.0987767350779407
-3.092622262912931
-3.1233946237379517
-3.1233946237379517
-3.1233946237379517
-3.1049312072429505
-3.0987767350779407
-3.0864677907479487
-3.074158846417929
-3.141858040232953
-3.1110856794079322
-3.1049312072429505
-3.0987767350779407
-3.080313318582939
-3.080313318582939
-3.092622262912931
-3.0618499020879373
-3.0680043742529195
-3.074158846417929
-3.080313318582939
-3.0864677907479487
-3.0680043742529195
-3.0126141247679152
-3.117240151572942
-3.0864677907479487
-2.901833625797906
-3.1110856794079322
-3.154166984562973
-3.043386485592936
-3.006459652602933
-2.96953281961293
-2.9572238752829105
-2.9879962361079313
-2.994150708272913
-3.0249230690979347
-3.0680043742529195
-3.0864677907479487
-3.1480125123979352
-3.1233946237379517
-3.1233946237379517
-3.141858040232953
-3.0864677907479487
-3.092622262912931
-3.092622262912931
-3.1295490959029335
-3.043386485592936
-3.0618499020879373
-3.080313318582939
-3.0864677907479487
-3.074158846417929
-2.9510694031179288
-2.877215737137895
-3.0249230690979347
-3.037232013427927
-3.0618499020879373
-3.0680043742529195
-3.0618499020879373
-3.074158846417929
-3.0864677907479487
-3.0618499020879373
-3.0618499020879373
-3.0680043742529195
-3.043386485592936
-3.055695429922928
-3.1480125123979352
-3.289565372192993
-3.1233946237379517
-3.092622262912931
-3.0680043742529195
-3.0618499020879373
-3.0864677907479487
-3.049540957757918
-3.037232013427927
-3.049540957757918
-3.049540957757918
-3.049540957757918
-3.0618499020879373
-3.043386485592936
-2.994150708272913
-3.049540957757918
-3.0618499020879373
-3.0249230690979347
-3.0310775412629165
-2.9141425701278982
-2.723353933012873
-2.877215737137895
-3.2280206505429785
-3.363419038172999
-3.0864677907479487
-3.0249230690979347
-3.018768596932925
-3.0126141247679152
-2.981841763942921
-3.006459652602933
-3.043386485592936
-3.0310775412629165
-3.0310775412629165
-3.0249230690979347
-3.0126141247679152
-3.018768596932925
-3.0126141247679152
-3.006459652602933
-3.0249230690979347
-3.049540957757918
-3.055695429922928
-3.037232013427927
-3.0126141247679152
-3.1110856794079322
-3.1664759288929645
-3.074158846417929
-3.074158846417929
-3.080313318582939
-3.0680043742529195
-3.074158846417929
-3.0680043742529195
-3.0680043742529195
-3.0618499020879373
-3.074158846417929
-3.080313318582939
-3.080313318582939
-3.074158846417929
-2.9879962361079313
-3.043386485592936
-3.055695429922928
-3.0680043742529195
-3.0003051804379233
-2.680272627857888
-2.754126293837894
-3.1357035680679433
-3.080313318582939
-3.037232013427927
-3.055695429922928
-3.0680043742529195
-3.2834109000279827
-3.504971897968029
-2.96953281961293
-2.9879962361079313
-3.0864677907479487
-3.0864677907479487
-3.092622262912931
-3.080313318582939
-3.092622262912931
-3.1233946237379517
-3.1110856794079322
-3.1233946237379517
-3.0987767350779407
-3.1049312072429505
-3.1295490959029335
-3.1233946237379517
-3.289565372192993
-3.308028788687994
-3.178784873222984
-3.1357035680679433
-3.1357035680679433
-3.1049312072429505
-3.092622262912931
-3.1110856794079322
-3.092622262912931
-3.1357035680679433
-3.1480125123979352
-3.1357035680679433
-3.1049312072429505
-3.1110856794079322
-3.0618499020879373
-3.1357035680679433
-3.117240151572942
-3.1233946237379517
-3.0987767350779407
-3.1049312072429505
-3.1049312072429505
-3.1110856794079322
-3.1110856794079322
-3.1233946237379517
-3.1110856794079322
-3.117240151572942
-3.1233946237379517
-3.0987767350779407
-3.0987767350779407
-3.1664759288929645
-3.1233946237379517
-3.1233946237379517
-3.0864677907479487
-3.092622262912931
-3.1110856794079322
-3.092622262912931
-3.092622262912931
-3.1049312072429505
-3.117240151572942
-3.074158846417929
-2.9202970422929075
-3.1233946237379517
-3.080313318582939
-2.9387604587879093
-3.037232013427927
-3.049540957757918
-3.0618499020879373
-3.055695429922928
-3.0310775412629165
-3.055695429922928
-3.037232013427927
-3.043386485592936
-3.0618499020879373
-3.0618499020879373
-3.055695429922928
-3.006459652602933
-2.9572238752829105
-2.8525978484779113
-2.9387604587879093
-3.006459652602933
-3.0126141247679152
-2.994150708272913
-3.049540957757918
-3.437272704153005
-3.277256427862973
-3.0987767350779407
-3.074158846417929
-3.0618499020879373
-3.0680043742529195
-3.055695429922928
-3.006459652602933
-2.8895246814679143
-3.018768596932925
-3.0249230690979347
-3.0126141247679152
-3.018768596932925
-3.018768596932925
-3.0310775412629165
-3.0249230690979347
-3.0249230690979347
-3.0126141247679152
-3.0126141247679152
-3.0249230690979347
-3.037232013427927
-3.080313318582939
-3.264947483532982
-3.141858040232953
-3.055695429922928
-3.0126141247679152
-2.994150708272913
-2.9633783474479203
-2.9510694031179288
-2.944914930952919
-2.9633783474479203
-2.975687291777912
-3.0618499020879373
-3.0680043742529195
-3.0680043742529195
-3.055695429922928
-3.074158846417929
-3.0987767350779407
-3.055695429922928
-3.018768596932925
-3.055695429922928
-3.037232013427927
-3.006459652602933
-3.0249230690979347
-3.0249230690979347
-3.0126141247679152
-3.006459652602933
-3.0003051804379233
-3.0126141247679152
-2.9879962361079313
-2.994150708272913
-3.049540957757918
-3.018768596932925
-3.006459652602933
-3.018768596932925
-3.0126141247679152
-3.0126141247679152
-2.834134431982911
-3.0680043742529195
-3.117240151572942
-3.018768596932925
-3.018768596932925
-3.018768596932925
-2.994150708272913
-3.043386485592936
-3.1110856794079322
-3.0249230690979347
-3.0126141247679152
-3.0126141247679152
-3.0249230690979347
-3.018768596932925
-3.006459652602933
-2.994150708272913
-3.018768596932925
-3.0126141247679152
-3.0003051804379233
-2.994150708272913
-2.96953281961293
-2.944914930952919
-3.0003051804379233
-2.9879962361079313
-2.994150708272913
-2.994150708272913
-3.006459652602933
-2.994150708272913
-2.981841763942921
-2.9879962361079313
-3.006459652602933
-3.0003051804379233
-3.006459652602933
-2.9510694031179288
-2.975687291777912
-2.9572238752829105
-3.037232013427927
-3.0003051804379233
-3.018768596932925
-3.0003051804379233
-3.006459652602933
-3.0126141247679152
-3.018768596932925
-3.0249230690979347
-3.0126141247679152
-2.9879962361079313
-3.0310775412629165
-3.018768596932925
-3.0003051804379233
-2.96953281961293
-3.043386485592936
-3.0310775412629165
-3.006459652602933
-3.0126141247679152
-3.0249230690979347
-3.037232013427927
-3.006459652602933
-3.0003051804379233
-2.895679153632896
-2.6925815721878803
-2.944914930952919
-3.394191398997992
-3.1480125123979352
-2.994150708272913
-3.074158846417929
-3.043386485592936
-3.0249230690979347
-3.037232013427927
-3.037232013427927
-3.0310775412629165
-3.0126141247679152
-3.0126141247679152
-3.0310775412629165
-3.0310775412629165
-3.043386485592936
-3.043386485592936
-3.055695429922928
-2.871061264972913
-2.723353933012873
-2.932605986622927
-2.9572238752829105
-2.9633783474479203
-3.0003051804379233
-3.0003051804379233
-2.96953281961293
-3.0003051804379233
-3.0003051804379233
-3.0249230690979347
-3.0249230690979347
-3.0126141247679152
-3.043386485592936
-3.141858040232953
-3.3511100938430074
-3.1233946237379517
-3.080313318582939
-3.037232013427927
-3.049540957757918
-3.043386485592936
-3.0249230690979347
-3.0249230690979347
-3.0310775412629165
-3.037232013427927
-3.037232013427927
-3.049540957757918
-3.0310775412629165
-3.006459652602933
-3.043386485592936
-3.0310775412629165
-3.006459652602933
-2.994150708272913
-3.006459652602933
-2.994150708272913
-2.994150708272913
-2.994150708272913
-3.0003051804379233
-2.9879962361079313
-2.981841763942921
-2.975687291777912
-2.981841763942921
-2.9572238752829105
-2.9633783474479203
-3.0003051804379233
-2.8279799598179
-3.049540957757918
-3.1049312072429505
-3.006459652602933
-2.9879962361079313
-2.9879962361079313
-2.975687291777912
-2.981841763942921
-3.0003051804379233
-2.772589710332896
-3.074158846417929
-3.080313318582939
-3.0003051804379233
-3.0003051804379233
-2.981841763942921
-2.96953281961293
-2.981841763942921
-2.9572238752829105
-2.981841763942921
-2.975687291777912
-2.9879962361079313
-2.981841763942921
-2.9879962361079313
-2.9879962361079313
-2.9879962361079313
-2.9510694031179288
-2.9510694031179288
-3.018768596932925
-2.975687291777912
-2.96953281961293
-2.975687291777912
-2.975687291777912
-2.9572238752829105
-2.9633783474479203
-2.981841763942921
-2.9633783474479203
-2.981841763942921
-2.9633783474479203
-2.975687291777912
-2.9633783474479203
-2.975687291777912
-2.994150708272913
-3.0003051804379233
-2.975687291777912
-2.981841763942921
-2.994150708272913
-2.994150708272913
-2.981841763942921
-2.9141425701278982
-2.538719768062857
-2.901833625797906
-2.9264515144579173
-2.9387604587879093
-2.9387604587879093
-2.9141425701278982
-2.994150708272913
-3.1049312072429505
-3.474199537143008
-3.018768596932925
-2.7171994608478913
-2.871061264972913
-2.944914930952919
-2.944914930952919
-2.981841763942921
-3.172630401057975
-3.394191398997992
-3.0618499020879373
-2.975687291777912
-2.8279799598179
-2.8033620711578893
-2.9141425701278982
-2.944914930952919
-2.96953281961293
-3.018768596932925
-3.0310775412629165
-3.055695429922928
-3.049540957757918
-3.018768596932925
-3.0003051804379233
-2.9879962361079313
-3.0126141247679152
-2.9879962361079313
-3.0864677907479487
-3.184939345387966
-3.049540957757918
-3.037232013427927
-3.037232013427927
-3.0003051804379233
-3.0126141247679152
-3.037232013427927
-3.0310775412629165
-3.043386485592936
-3.018768596932925
-3.018768596932925
-3.037232013427927
-3.043386485592936
-3.018768596932925
-3.043386485592936
-3.043386485592936
-3.037232013427927
-3.049540957757918
-3.043386485592936
-3.043386485592936
-3.043386485592936
-3.0618499020879373
-3.043386485592936
-3.037232013427927
-3.049540957757918
-3.043386485592936
-3.0126141247679152
-2.981841763942921
-3.006459652602933
-2.994150708272913
-2.981841763942921
-3.006459652602933
-3.0249230690979347
-3.0003051804379233
-3.0003051804379233
-3.006459652602933
-3.0003051804379233
-3.0003051804379233
-2.96953281961293
-2.8095165433228986
-3.0249230690979347
-3.074158846417929
-3.0126141247679152
-3.0126141247679152
-2.975687291777912
-3.0249230690979347
-3.0249230690979347
-3.006459652602933
-3.0003051804379233
-2.981841763942921
-2.975687291777912
-2.981841763942921
-2.96953281961293
-3.0249230690979347
-2.9879962361079313
-2.9572238752829105
-2.7418173495078744
-2.895679153632896
-2.96953281961293
-2.9572238752829105
-2.981841763942921
-3.006459652602933
-2.9879962361079313
-3.0003051804379233
-2.981841763942921
-2.975687291777912
-3.0249230690979347
-3.037232013427927
-3.0310775412629165
-3.043386485592936
-3.2957198443579747
-3.154166984562973
-3.0618499020879373
-3.0310775412629165
-3.055695429922928
-3.037232013427927
-3.037232013427927
-3.018768596932925
-3.0249230690979347
-3.0310775412629165
-3.0249230690979347
-3.0126141247679152
-3.0249230690979347
-3.0126141247679152
-2.9572238752829105
-3.0310775412629165
-3.018768596932925
-3.0126141247679152
-3.0126141247679152
-3.0003051804379233
-2.994150708272913
-3.0003051804379233
-3.006459652602933
-3.006459652602933
-3.0003051804379233
-3.0126141247679152
-3.018768596932925
-2.8402889041478923
-2.612573434042864
-3.2834109000279827
-3.363419038172999
-3.080313318582939
-3.049540957757918
-3.0310775412629165
-3.0249230690979347
-3.037232013427927
-3.018768596932925
-3.006459652602933
-3.037232013427927
-3.0126141247679152
-2.9879962361079313
-2.975687291777912
-2.932605986622927
-3.0126141247679152
-3.0003051804379233
-3.0126141247679152
-3.006459652602933
-3.006459652602933
-3.006459652602933
-2.981841763942921
-2.994150708272913
-2.994150708272913
-3.0249230690979347
-3.0249230690979347
-3.0003051804379233
-2.994150708272913
-2.9879962361079313
-3.037232013427927
-3.0249230690979347
-3.0126141247679152
-2.9879962361079313
-2.994150708272913
-3.0003051804379233
-3.0003051804379233
-2.994150708272913
-3.0310775412629165
-3.049540957757918
-3.0310775412629165
-3.037232013427927
-3.0003051804379233
-2.944914930952919
-3.037232013427927
-3.006459652602933
-2.981841763942921
-2.994150708272913
-3.006459652602933
-3.0310775412629165
-3.043386485592936
-3.0249230690979347
-3.049540957757918
-3.049540957757918
-3.0126141247679152
-2.994150708272913
-2.9879962361079313
-2.994150708272913
-3.049540957757918
-3.0126141247679152
-3.0003051804379233
-3.006459652602933
-3.0126141247679152
-2.975687291777912
-2.815671015487909
-3.049540957757918
-3.1295490959029335
-3.037232013427927
-3.037232013427927
-3.037232013427927
-3.0310775412629165
-2.9141425701278982
-2.7171994608478913
-2.9202970422929075
-2.975687291777912
-2.96953281961293
-2.981841763942921
-2.994150708272913
-2.981841763942921
-2.9633783474479203
-2.981841763942921
-2.981841763942921
-3.018768596932925
-2.994150708272913
-2.9879962361079313
-3.0618499020879373
-3.2834109000279827
-3.0987767350779407
-3.0310775412629165
-3.0310775412629165
-3.0126141247679152
-3.0126141247679152
-3.0003051804379233
-3.006459652602933
-3.0126141247679152
-3.006459652602933
-3.006459652602933
-2.981841763942921
-2.9572238752829105
-2.96953281961293
-2.994150708272913
-3.006459652602933
-2.96953281961293
-2.96953281961293
-2.96953281961293
-2.975687291777912
-2.96953281961293
-2.9633783474479203
-2.9879962361079313
-2.975687291777912
-2.9572238752829105
-2.944914930952919
-2.9141425701278982
-2.8895246814679143
-2.858752320642893
-2.9264515144579173
-2.9141425701278982
-2.96953281961293
-3.006459652602933
-3.0310775412629165
-3.037232013427927
-3.0618499020879373
-2.9202970422929075
-2.7171994608478913
-2.883370209302905
-2.9572238752829105
-2.9572238752829105
-2.96953281961293
-3.184939345387966
-3.172630401057975
-3.0310775412629165
-3.018768596932925
-3.0249230690979347
-3.0249230690979347
-3.018768596932925
-3.037232013427927
-3.0126141247679152
-3.0249230690979347
-3.037232013427927
-3.0249230690979347
-3.043386485592936
-3.049540957757918
-3.215711706212987
-3.1480125123979352
-3.0680043742529195
-3.055695429922928
-3.043386485592936
-3.037232013427927
-3.043386485592936
-3.043386485592936
-3.049540957757918
-3.092622262912931
-3.055695429922928
-3.055695429922928
-3.049540957757918
-3.049540957757918
-3.0618499020879373
-3.1049312072429505
-3.092622262912931
-3.049540957757918
-3.0618499020879373
-3.080313318582939
-3.0680043742529195
-3.055695429922928
-3.0310775412629165
-3.0618499020879373
-3.055695429922928
-3.0249230690979347
-3.0680043742529195
-3.037232013427927
-3.018768596932925
-3.092622262912931
-3.0618499020879373
-3.0618499020879373
-3.043386485592936
-3.018768596932925
-3.018768596932925
-3.0126141247679152
-3.0310775412629165
-3.037232013427927
-3.037232013427927
-3.0618499020879373
-3.043386485592936
-2.575646601052861
-2.68642710002287
-3.092622262912931
-3.1295490959029335
-3.0618499020879373
-3.037232013427927
-3.055695429922928
-3.1295490959029335
-3.5234353144630304
-3.277256427862973
-3.154166984562973
-3.1295490959029335
-3.1357035680679433
-3.1233946237379517
-3.0987767350779407
-3.141858040232953
-3.2280206505429785
-3.141858040232953
-3.117240151572942
-3.1110856794079322
-3.1110856794079322
-3.1049312072429505
-3.1049312072429505
-3.1295490959029335
-3.074158846417929
-3.0987767350779407
-3.1049312072429505
-3.0864677907479487
-3.080313318582939
-3.0003051804379233
-2.9633783474479203
-3.043386485592936
-3.080313318582939
-3.0680043742529195
-3.0680043742529195
-3.074158846417929
-3.0987767350779407
-3.092622262912931
-3.074158846417929
-3.080313318582939
-3.1049312072429505
-3.092622262912931
-3.080313318582939
-3.080313318582939
-3.141858040232953
-3.1110856794079322
-3.1110856794079322
-3.092622262912931
-3.092622262912931
-3.092622262912931
-3.092622262912931
-3.074158846417929
-3.074158846417929
-3.080313318582939
-3.0987767350779407
-3.080313318582939
-3.0680043742529195
-3.037232013427927
-3.074158846417929
-3.0987767350779407
-3.1049312072429505
-2.877215737137895
-2.674118155692878
-3.461890592813016
-3.1972482897179852
-3.0864677907479487
-3.074158846417929
-3.080313318582939
-3.0680043742529195
-3.0864677907479487
-3.0618499020879373
-3.043386485592936
-3.049540957757918
-3.1049312072429505
-3.0680043742529195
-3.0680043742529195
-3.074158846417929
-3.074158846417929
-3.0987767350779407
-3.0618499020879373
-3.055695429922928
-3.0618499020879373
-3.0680043742529195
-3.0680043742529195
-3.055695429922928
-3.043386485592936
-3.037232013427927
-3.0680043742529195
-3.0618499020879373
-3.055695429922928
-3.043386485592936
-3.055695429922928
-3.055695429922928
-3.0618499020879373
-3.0618499020879373
-3.080313318582939
-3.0864677907479487
-3.074158846417929
-3.074158846417929
-3.074158846417929
-3.092622262912931
-3.092622262912931
-3.080313318582939
-3.092622262912931
-3.0864677907479487
-3.0618499020879373
-3.049540957757918
-3.055695429922928
-3.055695429922928
-3.049540957757918
-3.049540957757918
-3.037232013427927
-3.0249230690979347
-3.006459652602933
-3.006459652602933
-3.0618499020879373
-3.055695429922928
-3.055695429922928
-3.049540957757918
-3.043386485592936
-3.037232013427927
-3.043386485592936
-3.0310775412629165
-3.0249230690979347
-3.006459652602933
-2.8464433763129016
-3.0680043742529195
-3.141858040232953
-3.018768596932925
-3.0680043742529195
-3.037232013427927
-3.037232013427927
-3.043386485592936
-3.0680043742529195
-3.018768596932925
-3.0126141247679152
-3.0249230690979347
-3.018768596932925
-3.043386485592936
-3.018768596932925
-3.0249230690979347
-3.0003051804379233
-3.0126141247679152
-3.0618499020879373
-3.0310775412629165
-3.043386485592936
-3.0249230690979347
-3.018768596932925
-2.9879962361079313
-2.96953281961293
-2.9633783474479203
-2.9633783474479203
-2.9879962361079313
-3.0310775412629165
-3.080313318582939
-3.080313318582939
-3.0618499020879373
-3.1233946237379517
-3.154166984562973
-3.1295490959029335
-3.1110856794079322
-3.1049312072429505
-3.092622262912931
-3.1049312072429505
-3.080313318582939
-3.080313318582939
-3.0864677907479487
-3.0680043742529195
-3.0680043742529195
-3.074158846417929
-3.0310775412629165
-3.0987767350779407
-3.0987767350779407
-3.0864677907479487
-3.092622262912931
-3.0987767350779407
-3.080313318582939
-3.080313318582939
-3.092622262912931
-3.0864677907479487
-3.0618499020879373
-3.0618499020879373
-3.080313318582939
-2.9141425701278982
-2.581801073217871
-2.975687291777912
-3.0003051804379233
-3.018768596932925
-3.191093817552976
-3.504971897968029
-3.2034027618829675
-3.117240151572942
-3.1110856794079322
-3.1110856794079322
-3.1110856794079322
-3.092622262912931
-3.0987767350779407
-3.074158846417929
-3.092622262912931
-3.154166984562973
-3.1049312072429505
-3.0864677907479487
-3.0864677907479487
-3.055695429922928
-3.037232013427927
-3.0680043742529195
-3.0680043742529195
-3.0618499020879373
-3.043386485592936
-3.043386485592936
-3.049540957757918
-3.049540957757918
-3.049540957757918
-3.0680043742529195
-3.0680043742529195
-3.055695429922928
-3.074158846417929
-3.074158846417929
-3.074158846417929
-3.0864677907479487
-3.1110856794079322
-3.080313318582939
-3.074158846417929
-3.074158846417929
-3.0864677907479487
-3.092622262912931
-3.080313318582939
-3.117240151572942
-3.141858040232953
-3.0987767350779407
-3.0864677907479487
-3.0987767350779407
-3.1110856794079322
-3.1110856794079322
-3.1110856794079322
-3.1110856794079322
-3.1295490959029335
-3.1357035680679433
-3.1233946237379517
-3.1110856794079322
-3.0864677907479487
-2.9879962361079313
-3.092622262912931
-3.1110856794079322
-3.080313318582939
-3.092622262912931
-3.055695429922928
-2.901833625797906
-3.154166984562973
-3.2341751227079882
-3.141858040232953
-3.1233946237379517
-3.1357035680679433
-3.1049312072429505
-3.080313318582939
-3.160321456727955
-3.191093817552976
-3.1480125123979352
-3.1357035680679433
-3.074158846417929
-3.0864677907479487
-3.080313318582939
-3.0680043742529195
-3.080313318582939
-3.092622262912931
-3.092622262912931
-3.092622262912931
-3.049540957757918
-3.0987767350779407
-3.1110856794079322
-3.1233946237379517
-3.117240151572942
-3.0987767350779407
-3.092622262912931
-3.0987767350779407
-3.1049312072429505
-3.092622262912931
-3.0864677907479487
-3.0987767350779407
-3.0987767350779407
-3.0987767350779407
-3.1110856794079322
-3.092622262912931
-3.0680043742529195
-3.1480125123979352
-3.0987767350779407
-3.092622262912931
-3.0987767350779407
-3.0864677907479487
-3.0864677907479487
-3.0987767350779407
-3.1049312072429505
-3.1110856794079322
-3.0987767350779407
-3.1110856794079322
-3.1357035680679433
-3.1233946237379517
-3.0680043742529195
-2.9633783474479203
-3.178784873222984
-3.1664759288929645
-3.074158846417929
-3.049540957757918
-3.049540957757918
-3.0310775412629165
-2.883370209302905
-2.9510694031179288
-3.301874316522985
-3.074158846417929
-3.043386485592936
-3.0618499020879373
-3.055695429922928
-3.080313318582939
-3.1295490959029335
-2.9510694031179288
-2.680272627857888
-2.9264515144579173
-3.043386485592936
-2.9510694031179288
-2.9572238752829105
-2.9879962361079313
-2.975687291777912
-3.369573510338009
-3.2834109000279827
-3.080313318582939
-3.0003051804379233
-3.0126141247679152
-3.018768596932925
-3.0249230690979347
-3.018768596932925
-3.018768596932925
-3.043386485592936
-3.074158846417929
-3.043386485592936
-3.055695429922928
-3.0249230690979347
-2.975687291777912
-2.981841763942921
-2.981841763942921
-2.994150708272913
-3.080313318582939
-3.049540957757918
-3.018768596932925
-3.037232013427927
-3.0310775412629165
-3.006459652602933
-3.0126141247679152
-2.994150708272913
-3.0003051804379233
-2.9879962361079313
-3.0003051804379233
-2.975687291777912
-2.981841763942921
-2.7848986546628876
-3.0310775412629165
-3.0618499020879373
-2.981841763942921
-2.994150708272913
-2.895679153632896
-2.815671015487909
-2.858752320642893
-2.9202970422929075
-3.037232013427927
-3.092622262912931
-2.994150708272913
-2.9879962361079313
-2.975687291777912
-2.9572238752829105
-3.092622262912931
-3.3141832608529764
-3.437272704153005
-3.504971897968029
-3.5234353144630304
-3.548053203123014
-3.578825563948035
-3.5665166196180156
-3.529589786628012
-3.4988174258030194
-3.4311182319879947
-3.6896060629180436
-3.615752396938038
-3.5234353144630304
-3.394191398997992
-3.504971897968029
-3.517280842298021
-3.4988174258030194
-3.529589786628012
-3.517280842298021
-3.4865084814730274
-3.4803540093080176
-3.492662953638009
-3.4803540093080176
-3.4803540093080176
-3.4803540093080176
-3.4557361206480066
-3.449581648482997
-3.529589786628012
-3.492662953638009
-3.4311182319879947
-3.4311182319879947
-3.4434271763180146
-3.4311182319879947
-3.406500343328012
-3.4188092876580036
-3.400345871163002
-3.400345871163002
-3.394191398997992
-3.38803692683301
-3.381882454668
-3.38803692683301
-3.277256427862973
-3.3141832608529764
-3.363419038172999
-3.357264566007989
-3.338801149512988
-3.3326466773480057
-3.3141832608529764
-3.308028788687994
-3.308028788687994
-3.326492205182996
-3.2834109000279827
-3.277256427862973
-3.277256427862973
-3.264947483532982
-3.258793011367972
-3.2711019556979917
-3.258793011367972
-3.1110856794079322
-2.858752320642893
-3.2834109000279827
-3.25263853920299
-3.2834109000279827
-3.677297118588053
-3.554207675288024
-3.357264566007989
-3.326492205182996
-3.344955621677997
-3.3326466773480057
-3.412654815492993
-3.461890592813016
-3.357264566007989
-3.3511100938430074
-3.363419038172999
-3.3326466773480057
-3.326492205182996
-3.3203377330179857
-3.2834109000279827
-3.2711019556979917
-3.301874316522985
-3.308028788687994
-3.277256427862973
-3.24648406703798
-3.2280206505429785
-3.394191398997992
-3.3203377330179857
-3.258793011367972
-3.1480125123979352
-2.7418173495078744
-2.4894839907428636
-2.4894839907428636
-2.520256351567857
-2.538719768062857
-2.55102871239285
-2.587955545382853
-2.624882378372884
-2.5941100175478624
-2.5141018794028467
-2.538719768062857
-2.5941100175478624
-2.618727906207874
-2.649500267032867
-2.655654739197877
-2.711044988682881
-2.723353933012873
-2.6618092113628857
-2.6371913227028756
-2.649500267032867
-2.723353933012873
-2.7418173495078744
-2.7910531268278973
-2.6618092113628857
-2.4648661020828517
-2.612573434042864
-2.6371913227028756
-2.68642710002287
-2.7418173495078744
-2.735662877342893
-2.7171994608478913
-2.723353933012873
-2.735662877342893
-2.729508405177883
-2.55718318455786
-2.8095165433228986
-2.877215737137895
-2.8095165433228986
-2.8895246814679143
-2.815671015487909
-2.871061264972913
-2.96953281961293
-3.092622262912931
-2.9510694031179288
-2.754126293837894
-2.7848986546628876
-2.7910531268278973
-2.8033620711578893
-2.8095165433228986
-2.821825487652891
-2.834134431982911
-2.8649067928079033
-2.975687291777912
-3.1480125123979352
-3.2711019556979917
-3.344955621677997
-3.400345871163002
-3.437272704153005
-3.4311182319879947
-3.449581648482997
-3.4557361206480066
-3.461890592813016
-3.474199537143008
-3.4557361206480066
-3.4311182319879947
-3.406500343328012
-3.4311182319879947
-3.4434271763180146
-3.406500343328012
-3.394191398997992
-3.394191398997992
-3.381882454668
-3.394191398997992
-3.375727982502991
-3.381882454668
-3.357264566007989
-3.3511100938430074
-3.344955621677997
-3.3203377330179857
-3.2957198443579747
-3.301874316522985
-3.3511100938430074
-3.308028788687994
-3.308028788687994
-3.301874316522985
-3.289565372192993
-3.277256427862973
-3.2834109000279827
-3.277256427862973
-3.277256427862973
-3.264947483532982
-3.277256427862973
-3.184939345387966
-2.9633783474479203
-3.049540957757918
-3.2341751227079882
-3.215711706212987
-3.2218661783779687
-3.2095572340479768
-3.178784873222984
-3.289565372192993
-3.701915007248036
-3.381882454668
-3.2341751227079882
-3.178784873222984
-3.1357035680679433
-3.0680043742529195
-2.9633783474479203
-2.5941100175478624
-2.2925408814628288
-2.04020752269779
-2.0955977721827947
-2.2309961598128147
-2.3417766587828237
-2.3971669082678284
-2.483329518577854
-2.4402482134228407
-2.600264489712873
-2.6925815721878803
-2.68642710002287
-2.729508405177883
-2.760280766002876
-2.858752320642893
-2.883370209302905
-2.815671015487909
-2.8095165433228986
-2.778744182497905
-2.760280766002876
-2.760280766002876
-2.760280766002876
-2.766435238167886
-2.760280766002876
-2.735662877342893
-2.797207598992907
-2.772589710332896
-2.766435238167886
-2.7418173495078744
-2.7848986546628876
-2.766435238167886
-2.7418173495078744
-2.7418173495078744
-2.772589710332896
-2.754126293837894
-2.772589710332896
-2.760280766002876
-2.778744182497905
-2.7848986546628876
-2.8033620711578893
-2.797207598992907
-2.7848986546628876
-2.766435238167886
-2.8464433763129016
-2.821825487652891
-2.8033620711578893
-2.797207598992907
-2.766435238167886
-2.631036850537866
-2.8525978484779113
-2.9202970422929075
-2.8279799598179
-2.8095165433228986
-2.821825487652891
-2.834134431982911
-2.8525978484779113
-2.797207598992907
-2.871061264972913
-2.858752320642893
-2.8525978484779113
-2.8464433763129016
-2.8464433763129016
-2.8464433763129016
-2.680272627857888
-2.4402482134228407
-2.834134431982911
-2.8033620711578893
-2.821825487652891
-2.834134431982911
-2.8279799598179
-2.8402889041478923
-3.2034027618829675
-3.289565372192993
-2.9879962361079313
-2.9572238752829105
-2.9387604587879093
-2.932605986622927
-2.932605986622927
-2.9264515144579173
-2.932605986622927
-2.9387604587879093
-2.944914930952919
-2.9264515144579173
-2.9264515144579173
-2.8895246814679143
-2.883370209302905
-2.9202970422929075
-2.9141425701278982
-2.9264515144579173
-2.9264515144579173
-2.9264515144579173
-2.9264515144579173
-2.9141425701278982
-2.932605986622927
-2.9202970422929075
-2.901833625797906
-2.9202970422929075
-2.9141425701278982
-2.9141425701278982
-2.944914930952919
-2.9510694031179288
-2.944914930952919
-2.9510694031179288
-2.9387604587879093
-2.9633783474479203
-2.9572238752829105
-2.834134431982911
-2.6433457948678853
-2.821825487652891
-2.907988097962916
-3.074158846417929
-3.3511100938430074
-3.0249230690979347
-2.975687291777912
-3.0126141247679152
-2.975687291777912
-2.9633783474479203
-2.944914930952919
-2.9387604587879093
-2.9572238752829105
-2.9387604587879093
-2.944914930952919
-2.944914930952919
-2.944914930952919
-2.932605986622927
-2.944914930952919
-2.9202970422929075
-2.9387604587879093
-3.0003051804379233
-2.9510694031179288
-2.9633783474479203
-2.9633783474479203
-2.9633783474479203
-2.9633783474479203
-2.9633783474479203
-2.981841763942921
-2.96953281961293
-2.96953281961293
-2.96953281961293
-2.975687291777912
-2.9264515144579173
-2.680272627857888
-2.797207598992907
-2.932605986622927
-2.9510694031179288
-2.9572238752829105
-2.9510694031179288
-2.96953281961293
-2.975687291777912
-2.975687291777912
-2.981841763942921
-2.975687291777912
-2.9879962361079313
-3.0126141247679152
-2.9879962361079313
-3.2218661783779687
-3.178784873222984
-3.018768596932925
-3.0310775412629165
-3.037232013427927
-3.0249230690979347
-3.006459652602933
-2.9879962361079313
-3.0003051804379233
-2.994150708272913
-3.0003051804379233
-2.994150708272913
-2.975687291777912
-2.9879962361079313
-2.981841763942921
-2.834134431982911
-3.055695429922928
-3.1110856794079322
-2.9879962361079313
-2.994150708272913
-2.994150708272913
-3.006459652602933
-2.994150708272913
-2.994150708272913
-2.9879962361079313
-2.994150708272913
-3.0003051804379233
-2.981841763942921
-2.9387604587879093
-3.037232013427927
-3.018768596932925
-3.0003051804379233
-3.006459652602933
-3.0003051804379233
-3.018768596932925
-3.0126141247679152
-3.0003051804379233
-3.018768596932925
-3.0249230690979347
-3.006459652602933
-3.0003051804379233
-3.0003051804379233
-3.0003051804379233
-3.018768596932925
-3.018768596932925
-3.006459652602933
-3.0003051804379233
-2.9633783474479203
-2.9510694031179288
-2.9264515144579173
-2.901833625797906
-2.9202970422929075
-2.9572238752829105
-2.9879962361079313
-3.018768596932925
-3.018768596932925
-2.901833625797906
-2.772589710332896
-2.9572238752829105
-3.0003051804379233
-2.9879962361079313
-2.994150708272913
-2.994150708272913
-2.981841763942921
-2.994150708272913
-3.0126141247679152
-2.994150708272913
-2.981841763942921
-3.0003051804379233
-2.981841763942921
-3.092622262912931
-3.3141832608529764
-3.080313318582939
-2.901833625797906
-2.711044988682881
-2.8895246814679143
-2.9510694031179288
-2.96953281961293
-2.994150708272913
-2.9879962361079313
-2.975687291777912
-3.2834109000279827
-3.344955621677997
-3.0680043742529195
-2.9879962361079313
-2.9510694031179288
-3.0126141247679152
-3.0003051804379233
-2.994150708272913
-2.96953281961293
-3.0003051804379233
-3.006459652602933
-3.006459652602933
-2.9879962361079313
-2.9879962361079313
-3.0003051804379233
-2.981841763942921
-2.981841763942921
-2.994150708272913
-3.006459652602933
-3.0249230690979347
-2.9879962361079313
-2.994150708272913
-2.975687291777912
-2.994150708272913
-2.9879962361079313
-2.981841763942921
-2.981841763942921
-2.994150708272913
-3.043386485592936
-2.9510694031179288
-2.9879962361079313
-2.9879962361079313
-3.0126141247679152
-3.0126141247679152
-2.9879962361079313
-2.994150708272913
-3.018768596932925
-3.018768596932925
-3.0003051804379233
-3.0249230690979347
-3.0003051804379233
-3.0003051804379233
-2.994150708272913
-2.994150708272913
-2.994150708272913
-3.006459652602933
-3.006459652602933
-3.055695429922928
-3.0249230690979347
-3.006459652602933
-3.0249230690979347
-3.018768596932925
-3.0310775412629165
-3.018768596932925
-3.018768596932925
-2.994150708272913
-2.8464433763129016
-3.055695429922928
-3.117240151572942
-3.0003051804379233
-2.9879962361079313
-3.037232013427927
-3.0003051804379233
-3.006459652602933
-3.037232013427927
-3.0310775412629165
-3.0126141247679152
-3.006459652602933
-3.0249230690979347
-3.0249230690979347
-3.018768596932925
-3.0126141247679152
-3.018768596932925
-3.006459652602933
-3.006459652602933
-3.0310775412629165
-3.037232013427927
-3.018768596932925
-3.0249230690979347
-3.0126141247679152
-3.0003051804379233
-3.006459652602933
-3.018768596932925
-2.994150708272913
-2.975687291777912
-3.006459652602933
-3.0126141247679152
-2.981841763942921
-2.9633783474479203
-3.043386485592936
-3.0249230690979347
-3.0249230690979347
-3.0003051804379233
-3.0003051804379233
-3.0310775412629165
-3.0310775412629165
-3.0249230690979347
-3.0249230690979347
-3.0310775412629165
-3.0249230690979347
-3.006459652602933
-3.006459652602933
-2.981841763942921
-3.0310775412629165
-3.043386485592936
-3.0310775412629165
-3.0249230690979347
-3.0249230690979347
-3.037232013427927
-3.0310775412629165
-3.018768596932925
-3.018768596932925
-3.018768596932925
-3.0249230690979347
-2.858752320642893
-2.538719768062857
-2.96953281961293
-2.981841763942921
-3.357264566007989
-3.2834109000279827
-3.049540957757918
-3.018768596932925
-3.0310775412629165
-3.0249230690979347
-3.0003051804379233
-2.9879962361079313
-2.994150708272913
-3.0310775412629165
-3.006459652602933
-2.981841763942921
-2.9510694031179288
-2.9510694031179288
-3.0003051804379233
-2.9879962361079313
-2.9879962361079313
-2.9879962361079313
-2.994150708272913
-2.981841763942921
-2.981841763942921
-3.0003051804379233
-3.006459652602933
-2.932605986622927
-2.6371913227028756
-2.68642710002287
-2.994150708272913
-2.7848986546628876
-2.8895246814679143
-2.9510694031179288
-2.9510694031179288
-3.141858040232953
-3.400345871163002
-3.0987767350779407
-3.043386485592936
-3.049540957757918
-3.0249230690979347
-2.9879962361079313
-3.018768596932925
-3.0310775412629165
-3.092622262912931
-3.3326466773480057
-3.1357035680679433
-3.0618499020879373
-3.043386485592936
-3.0249230690979347
-2.9879962361079313
-2.9633783474479203
-2.9572238752829105
-2.9387604587879093
-2.9510694031179288
-2.9633783474479203
-2.9879962361079313
-2.9879962361079313
-3.006459652602933
-3.006459652602933
-3.055695429922928
-3.055695429922928
-3.049540957757918
-3.0249230690979347
-3.0249230690979347
-3.0003051804379233
-2.994150708272913
-2.994150708272913
-3.0249230690979347
-3.0003051804379233
-3.0003051804379233
-2.994150708272913
-2.994150708272913
-2.994150708272913
-3.043386485592936
-3.006459652602933
-2.994150708272913
-2.9879962361079313
-2.981841763942921
-2.9879962361079313
-3.0003051804379233
-3.006459652602933
-2.96953281961293
-2.9879962361079313
-2.981841763942921
-2.975687291777912
-2.944914930952919
-2.944914930952919
-3.0003051804379233
-2.981841763942921
-2.723353933012873
-2.883370209302905
-3.1110856794079322
-3.092622262912931
-2.994150708272913
-2.981841763942921
-2.975687291777912
-2.981841763942921
-2.96953281961293
-2.96953281961293
-2.944914930952919
-2.9202970422929075
-3.006459652602933
-2.9633783474479203
-2.96953281961293
-2.9510694031179288
-2.9572238752829105
-2.9510694031179288
-2.96953281961293
-2.9633783474479203
-2.9510694031179288
-2.9387604587879093
-2.9633783474479203
-2.9387604587879093
-2.9202970422929075
-2.895679153632896
-2.975687291777912
-2.944914930952919
-2.9572238752829105
-2.944914930952919
-2.944914930952919
-2.96953281961293
-2.7910531268278973
-2.520256351567857
-2.9387604587879093
-2.9264515144579173
-2.9202970422929075
-2.932605986622927
-2.932605986622927
-3.0310775412629165
-3.4434271763180146
-3.160321456727955
-3.043386485592936
-3.037232013427927
-3.0126141247679152
-3.006459652602933
-3.0126141247679152
-3.0249230690979347
-3.0249230690979347
-3.0310775412629165
-3.018768596932925
-3.0126141247679152
-3.006459652602933
-2.8525978484779113
-2.760280766002876
-2.766435238167886
-3.055695429922928
-3.0618499020879373
-2.9879962361079313
-2.9879962361079313
-2.981841763942921
-3.006459652602933
-3.0126141247679152
-2.9879962361079313
-2.975687291777912
-2.9879962361079313
-3.006459652602933
-3.1233946237379517
-3.301874316522985
-3.0987767350779407
-3.055695429922928
-3.043386485592936
-3.0249230690979347
-3.0249230690979347
-3.018768596932925
-3.018768596932925
-3.006459652602933
-3.018768596932925
-3.0126141247679152
-3.0126141247679152
-3.018768596932925
-3.0618499020879373
-3.0618499020879373
-3.037232013427927
-3.018768596932925
-3.0126141247679152
-3.0126141247679152
-3.018768596932925
-3.0126141247679152
-3.0126141247679152
-3.0126141247679152
-3.0126141247679152
-3.0003051804379233
-2.994150708272913
-2.994150708272913
-2.9141425701278982
-2.723353933012873
-3.043386485592936
-3.092622262912931
-3.0126141247679152
-2.981841763942921
-2.9879962361079313
-2.9879962361079313
-2.9879962361079313
-2.9879962361079313
-2.9879962361079313
-3.0003051804379233
-2.96953281961293
-2.9572238752829105
-2.975687291777912
-2.9879962361079313
-3.0003051804379233
-2.994150708272913
-2.981841763942921
-2.9879962361079313
-2.981841763942921
-3.0003051804379233
-2.9879962361079313
-2.981841763942921
-3.006459652602933
-3.006459652602933
-2.9879962361079313
-2.96953281961293
-2.9879962361079313
-2.981841763942921
-3.006459652602933
-2.9879962361079313
-2.9879962361079313
-2.9879962361079313
-2.994150708272913
-2.9879962361079313
-2.975687291777912
-2.96953281961293
-2.9633783474479203
-2.975687291777912
-2.9879962361079313
-2.9633783474479203
-2.944914930952919
-2.944914930952919
-3.0249230690979347
-3.0003051804379233
-3.0126141247679152
-3.006459652602933
-3.0126141247679152
-3.0249230690979347
-3.0003051804379233
-2.994150708272913
-3.0003051804379233
-3.006459652602933
-3.0249230690979347
-3.006459652602933
-2.9879962361079313
-2.994150708272913
-3.037232013427927
-2.901833625797906
-2.7171994608478913
-2.901833625797906
-3.117240151572942
-3.4557361206480066
-3.160321456727955
-3.080313318582939
-3.055695429922928
-3.0618499020879373
-3.037232013427927
-3.0003051804379233
-2.9879962361079313
-2.9633783474479203
-3.0126141247679152
-2.9510694031179288
-2.9572238752829105
-2.975687291777912
-2.994150708272913
-3.0126141247679152
-3.0126141247679152
-3.0618499020879373
-3.037232013427927
-3.006459652602933
-3.006459652602933
-2.981841763942921
-2.96953281961293
-2.932605986622927
-2.994150708272913
-3.018768596932925
-3.0003051804379233
-2.994150708272913
-2.9879962361079313
-2.981841763942921
-2.9879962361079313
-2.981841763942921
-2.994150708272913
-3.006459652602933
-3.0126141247679152
-3.0003051804379233
-2.975687291777912
-2.932605986622927
-3.0249230690979347
-3.006459652602933
-3.006459652602933
-3.0126141247679152
-3.018768596932925
-2.994150708272913
-3.0003051804379233
-3.0003051804379233
-3.0003051804379233
-2.96953281961293
-2.981841763942921
-3.006459652602933
-2.994150708272913
-2.96953281961293
-3.037232013427927
-3.037232013427927
-3.0126141247679152
-3.0126141247679152
-2.994150708272913
-2.9879962361079313
-3.0126141247679152
-3.0003051804379233
-2.96953281961293
-2.815671015487909
-3.037232013427927
-3.1049312072429505
-3.006459652602933
-2.9633783474479203
-2.9879962361079313
-2.9879962361079313
-2.981841763942921
-2.96953281961293
-2.9633783474479203
-2.9510694031179288
-2.975687291777912
-2.9633783474479203
-2.9879962361079313
-2.981841763942921
-2.9879962361079313
-2.975687291777912
-2.981841763942921
-2.96953281961293
-2.994150708272913
-2.975687291777912
-2.96953281961293
-2.9879962361079313
-2.981841763942921
-2.994150708272913
-3.006459652602933
-3.0003051804379233
-3.0249230690979347
-3.0310775412629165
-3.018768596932925
-3.0249230690979347
-3.018768596932925
-3.018768596932925
-3.006459652602933
-2.747971821672884
-2.8649067928079033
-2.944914930952919
-2.981841763942921
-2.994150708272913
-3.006459652602933
-3.006459652602933
-3.080313318582939
-3.461890592813016
-3.1972482897179852
-3.092622262912931
-3.055695429922928
-3.037232013427927
-2.8464433763129016
-2.96953281961293
-3.043386485592936
-3.0126141247679152
-3.0249230690979347
-3.0310775412629165
-3.043386485592936
-3.037232013427927
-3.037232013427927
-3.037232013427927
-3.043386485592936
-2.944914930952919
-2.747971821672884
-2.9264515144579173
-3.049540957757918
-3.0310775412629165
-3.018768596932925
-3.0310775412629165
-3.308028788687994
-3.406500343328012
-3.1480125123979352
-3.092622262912931
-3.080313318582939
-3.074158846417929
-3.0618499020879373
-3.0680043742529195
-3.049540957757918
-3.074158846417929
-3.2095572340479768
-3.1664759288929645
-3.0987767350779407
-3.0987767350779407
-3.0864677907479487
-3.080313318582939
-3.0680043742529195
-3.0618499020879373
-3.074158846417929
-3.074158846417929
-3.049540957757918
-3.049540957757918
-3.0680043742529195
-3.0680043742529195
-3.080313318582939
-3.1110856794079322
-3.0680043742529195
-3.0618499020879373
-3.049540957757918
-3.049540957757918
-3.055695429922928
-3.037232013427927
-3.0680043742529195
-3.037232013427927
-3.0126141247679152
-3.0126141247679152
-3.0126141247679152
-2.994150708272913
-2.9510694031179288
-3.037232013427927
-2.994150708272913
-2.994150708272913
-2.9879962361079313
-2.994150708272913
-2.981841763942921
-2.9879962361079313
-2.9879962361079313
-3.0003051804379233
-3.0249230690979347
-3.0126141247679152
-3.0126141247679152
-3.0003051804379233
-2.975687291777912
-3.0249230690979347
-3.0618499020879373
-3.0003051804379233
-2.981841763942921
-2.8402889041478923
-3.055695429922928
-3.117240151572942
-3.0310775412629165
-3.0126141247679152
-3.0126141247679152
-3.0126141247679152
-3.0310775412629165
-3.0003051804379233
-2.9633783474479203
-3.049540957757918
-3.0126141247679152
-3.0126141247679152
-3.018768596932925
-3.0003051804379233
-3.037232013427927
-3.037232013427927
-3.0249230690979347
-3.0003051804379233
-3.0003051804379233
-2.994150708272913
-2.9879962361079313
-2.975687291777912
-2.9572238752829105
-2.9633783474479203
-2.9879962361079313
-2.96953281961293
-2.9510694031179288
-2.9264515144579173
-2.9202970422929075
-2.9202970422929075
-2.895679153632896
-2.895679153632896
-2.944914930952919
-2.9879962361079313
-3.006459652602933
-3.0126141247679152
-3.006459652602933
-3.0310775412629165
-3.037232013427927
-3.018768596932925
-3.0310775412629165
-3.049540957757918
-3.043386485592936
-3.0126141247679152
-3.018768596932925
-3.0310775412629165
-3.037232013427927
-3.0249230690979347
-3.037232013427927
-3.0249230690979347
-3.0249230690979347
-3.080313318582939
-3.043386485592936
-3.0618499020879373
-3.006459652602933
-3.006459652602933
-3.0249230690979347
-2.8649067928079033
-2.563337656722869
-2.981841763942921
-3.3326466773480057
-3.301874316522985
-3.0864677907479487
-3.037232013427927
-3.006459652602933
-3.006459652602933
-3.049540957757918
-3.055695429922928
-3.037232013427927
-3.037232013427927
-3.049540957757918
-3.055695429922928
-3.037232013427927
-3.0310775412629165
-3.037232013427927
-3.055695429922928
-3.074158846417929
-3.049540957757918
-3.0249230690979347
-3.049540957757918
-3.0680043742529195
-3.037232013427927
-3.0618499020879373
-3.0310775412629165
-3.037232013427927
-3.0126141247679152
-3.006459652602933
-3.0310775412629165
-2.994150708272913
-3.0003051804379233
-2.9879962361079313
-3.006459652602933
-2.975687291777912
-3.0310775412629165
-3.0618499020879373
-2.994150708272913
-3.0003051804379233
-2.981841763942921
-2.975687291777912
-2.981841763942921
-3.0310775412629165
-3.0249230690979347
-3.0249230690979347
-3.049540957757918
-3.0310775412629165
-3.0310775412629165
-3.018768596932925
-2.9387604587879093
-2.975687291777912
-2.981841763942921
-2.9879962361079313
-2.981841763942921
-2.975687291777912
-2.9879962361079313
-2.994150708272913
-2.9633783474479203
-2.975687291777912
-3.0126141247679152
-3.0249230690979347
-3.0310775412629165
-3.006459652602933
-2.858752320642893
-3.1049312072429505
-3.1295490959029335
-3.080313318582939
-3.049540957757918
-3.043386485592936
-3.0249230690979347
-3.080313318582939
-3.074158846417929
-3.055695429922928
-3.055695429922928
-3.0618499020879373
-3.037232013427927
-3.037232013427927
-3.043386485592936
-3.1233946237379517
-3.080313318582939
-3.055695429922928
-3.0680043742529195
-3.074158846417929
-3.049540957757918
-3.043386485592936
-3.043386485592936
-3.043386485592936
-3.037232013427927
-3.0618499020879373
-3.043386485592936
-3.037232013427927
-3.049540957757918
-3.0864677907479487
-3.0680043742529195
-3.0310775412629165
-3.0310775412629165
-3.055695429922928
-3.074158846417929
-3.055695429922928
-3.037232013427927
-3.0310775412629165
-3.049540957757918
-3.037232013427927
-3.043386485592936
-3.0310775412629165
-3.018768596932925
-3.0618499020879373
-3.049540957757918
-3.0310775412629165
-3.043386485592936
-3.055695429922928
-3.055695429922928
-3.037232013427927
-3.0249230690979347
-3.0310775412629165
-3.037232013427927
-3.037232013427927
-3.043386485592936
-3.0310775412629165
-2.994150708272913
-3.0310775412629165
-2.8895246814679143
-2.5941100175478624
-3.0249230690979347
-2.981841763942921
-2.981841763942921
-3.0126141247679152
-3.074158846417929
-3.474199537143008
-3.2095572340479768
-3.080313318582939
-3.0618499020879373
-3.0618499020879373
-3.0680043742529195
-3.092622262912931
-3.055695429922928
-3.055695429922928
-3.0618499020879373
-3.049540957757918
-3.0310775412629165
-3.037232013427927
-3.037232013427927
-3.0249230690979347
-3.0310775412629165
-3.037232013427927
-3.0310775412629165
-3.0249230690979347
-2.9879962361079313
-3.0003051804379233
-3.0310775412629165
-2.9879962361079313
-2.9633783474479203
-3.006459652602933
-3.0003051804379233
-2.981841763942921
-2.981841763942921
-2.975687291777912
-2.9879962361079313
-2.994150708272913
-2.9633783474479203
-2.9633783474479203
-2.9572238752829105
-2.9633783474479203
-3.006459652602933
-2.9879962361079313
-2.975687291777912
-2.975687291777912
-2.68642710002287
-2.581801073217871
-2.8895246814679143
-3.074158846417929
-2.9879962361079313
-2.981841763942921
-2.9633783474479203
-2.96953281961293
-3.3326466773480057
-3.184939345387966
-3.055695429922928
-3.018768596932925
-3.006459652602933
-3.043386485592936
-3.055695429922928
-3.043386485592936
-3.043386485592936
-3.043386485592936
-3.0310775412629165
-3.0126141247679152
-3.0126141247679152
-3.006459652602933
-2.981841763942921
-2.901833625797906
-2.981841763942921
-2.994150708272913
-2.994150708272913
-2.9879962361079313
-3.0310775412629165
-2.9510694031179288
-2.9633783474479203
-2.9879962361079313
-2.9387604587879093
-2.944914930952919
-2.944914930952919
-2.9572238752829105
-2.9633783474479203
-2.994150708272913
-2.994150708272913
-2.975687291777912
-2.96953281961293
-2.944914930952919
-2.9510694031179288
-2.944914930952919
-2.944914930952919
-2.9633783474479203
-2.9633783474479203
-2.9572238752829105
-2.975687291777912
-2.9510694031179288
-2.9510694031179288
-2.9202970422929075
-3.006459652602933
-3.0003051804379233
-2.9633783474479203
-2.9572238752829105
-3.006459652602933
-2.9879962361079313
-3.0003051804379233
-3.0003051804379233
-2.975687291777912
-2.9879962361079313
-2.9879962361079313
-2.895679153632896
-2.8464433763129016
-3.0987767350779407
-3.092622262912931
-3.0126141247679152
-3.0003051804379233
-3.0003051804379233
-3.006459652602933
-2.994150708272913
-2.981841763942921
-3.0003051804379233
-3.018768596932925
-3.0126141247679152
-2.8525978484779113
-2.5694921288878514
-3.1110856794079322
-3.38803692683301
-3.1664759288929645
-3.0680043742529195
-3.0310775412629165
-3.0126141247679152
-3.006459652602933
-3.006459652602933
-3.0310775412629165
-3.037232013427927
-3.0310775412629165
-3.055695429922928
-3.055695429922928
-3.0249230690979347
-3.018768596932925
-2.8895246814679143
-2.754126293837894
-2.96953281961293
-3.0003051804379233
-3.0249230690979347
-3.0126141247679152
-3.018768596932925
-3.006459652602933
-3.0003051804379233
-3.0310775412629165
-3.018768596932925
-3.0310775412629165
-3.018768596932925
-3.018768596932925
-3.092622262912931
-3.215711706212987
-3.080313318582939
-3.018768596932925
-3.0310775412629165
-3.0310775412629165
-3.037232013427927
-3.0249230690979347
-3.037232013427927
-3.018768596932925
-3.037232013427927
-3.043386485592936
-3.037232013427927
-3.037232013427927
-3.037232013427927
-3.1233946237379517
-3.074158846417929
-3.049540957757918
-3.049540957757918
-3.043386485592936
-3.049540957757918
-3.049540957757918
-3.043386485592936
-3.049540957757918
-3.0680043742529195
-3.0618499020879373
-3.043386485592936
-3.049540957757918
-3.037232013427927
-3.055695429922928
-3.0680043742529195
-3.0618499020879373
-3.0249230690979347
-2.877215737137895
-2.9264515144579173
-3.2095572340479768
-3.1357035680679433
-3.0680043742529195
-3.055695429922928
-3.043386485592936
-3.043386485592936
-3.0249230690979347
-3.0003051804379233
-2.821825487652891
-2.9141425701278982
-2.975687291777912
-3.018768596932925
-3.0126141247679152
-3.018768596932925
-3.0126141247679152
-3.0003051804379233
-3.0618499020879373
-3.049540957757918
-3.006459652602933
-3.0249230690979347
-3.0618499020879373
-3.049540957757918
-3.264947483532982
-3.172630401057975
-3.080313318582939
-3.055695429922928
-3.0680043742529195
-3.0618499020879373
-3.055695429922928
-3.049540957757918
-3.043386485592936
-3.043386485592936
-3.043386485592936
-3.043386485592936
-3.0126141247679152
-3.018768596932925
-2.96953281961293
-3.037232013427927
-3.0003051804379233
-3.018768596932925
-3.0310775412629165
-3.0249230690979347
-3.0126141247679152
-3.018768596932925
-3.043386485592936
-3.037232013427927
-3.006459652602933
-3.0310775412629165
-3.037232013427927
-3.0126141247679152
-3.0126141247679152
-3.0618499020879373
-3.037232013427927
-3.043386485592936
-2.8402889041478923
-3.092622262912931
-3.006459652602933
-2.735662877342893
-2.901833625797906
-2.9633783474479203
-2.994150708272913
-3.006459652602933
-3.24648406703798
-3.4311182319879947
-3.1049312072429505
-3.092622262912931
-3.0126141247679152
-2.981841763942921
-2.9510694031179288
-2.9510694031179288
-2.944914930952919
-2.9879962361079313
-3.0003051804379233
-3.043386485592936
-3.0618499020879373
-3.0680043742529195
-3.0680043742529195
-3.049540957757918
-3.0310775412629165
-3.1110856794079322
-3.074158846417929
-3.0680043742529195
-3.080313318582939
-3.080313318582939
-3.0680043742529195
-3.0680043742529195
-3.0864677907479487
-3.0680043742529195
-3.074158846417929
-3.0680043742529195
-3.055695429922928
-3.043386485592936
-3.006459652602933
-3.080313318582939
-3.055695429922928
-3.049540957757918
-3.0618499020879373
-3.049540957757918
-3.049540957757918
-3.055695429922928
-3.049540957757918
-3.049540957757918
-3.049540957757918
-3.037232013427927
-3.0618499020879373
-3.043386485592936
-2.994150708272913
-3.018768596932925
-3.0310775412629165
-3.0249230690979347
-3.049540957757918
-3.0249230690979347
-3.049540957757918
-3.0310775412629165
-3.037232013427927
-3.037232013427927
-3.018768596932925
-2.9879962361079313
-3.0249230690979347
-2.994150708272913
-2.797207598992907
-2.9510694031179288
-3.092622262912931
-3.006459652602933
-3.018768596932925
-3.0003051804379233
-3.018768596932925
-3.0249230690979347
-3.0249230690979347
-3.0310775412629165
-3.0310775412629165
-3.043386485592936
-3.0249230690979347
-3.0126141247679152
-3.0680043742529195
-3.160321456727955
-3.092622262912931
-3.0618499020879373
-3.055695429922928
-3.0680043742529195
-3.074158846417929
-3.0680043742529195
-3.0618499020879373
-3.080313318582939
-3.080313318582939
-3.049540957757918
-3.055695429922928
-3.0618499020879373
-3.049540957757918
-3.0003051804379233
-3.018768596932925
-3.049540957757918
-3.043386485592936
-3.043386485592936
-3.049540957757918
-3.0310775412629165
-3.043386485592936
-3.0249230690979347
-3.037232013427927
-3.037232013427927
-3.037232013427927
-3.037232013427927
-3.0618499020879373
-3.184939345387966
-3.1233946237379517
-3.074158846417929
-3.0618499020879373
-3.0618499020879373
-3.0618499020879373
-3.0680043742529195
-3.055695429922928
-3.049540957757918
-2.877215737137895
-2.760280766002876
-2.8895246814679143
-2.975687291777912
-2.9879962361079313
-3.006459652602933
-2.994150708272913
-3.1664759288929645
-3.412654815492993
-3.381882454668
-3.1295490959029335
-3.092622262912931
-3.080313318582939
-3.0618499020879373
-3.074158846417929
-3.043386485592936
-3.0618499020879373
-3.0618499020879373
-3.043386485592936
-3.043386485592936
-3.1110856794079322
-3.0680043742529195
-3.055695429922928
-3.0618499020879373
-3.0618499020879373
-3.0618499020879373
-3.0680043742529195
-3.080313318582939
-3.0680043742529195
-3.0618499020879373
-3.055695429922928
-3.0680043742529195
-3.055695429922928
-3.0249230690979347
-3.080313318582939
-3.080313318582939
-3.074158846417929
-3.0618499020879373
-3.0680043742529195
-3.0864677907479487
-3.080313318582939
-3.0618499020879373
-3.0680043742529195
-3.074158846417929
-3.092622262912931
-3.080313318582939
-3.074158846417929
-3.074158846417929
-3.1049312072429505
-3.080313318582939
-3.0864677907479487
-3.080313318582939
-3.080313318582939
-3.055695429922928
-3.080313318582939
-3.074158846417929
-3.0864677907479487
-3.080313318582939
-3.092622262912931
-3.0864677907479487
-3.0864677907479487
-3.0310775412629165
-3.1233946237379517
-3.092622262912931
-3.1110856794079322
-3.080313318582939
-3.074158846417929
-3.0987767350779407
-3.0987767350779407
-3.074158846417929
-2.907988097962916
-3.1295490959029335
-3.215711706212987
-3.1110856794079322
-3.0864677907479487
-3.055695429922928
-3.0864677907479487
-3.0987767350779407
-3.0987767350779407
-3.1110856794079322
-3.0987767350779407
-3.0864677907479487
-3.0864677907479487
-3.080313318582939
-3.080313318582939
-3.092622262912931
-3.0987767350779407
-3.092622262912931
-3.080313318582939
-3.1110856794079322
-3.1664759288929645
-3.092622262912931
-3.0864677907479487
-3.080313318582939
-3.074158846417929
-3.074158846417929
-3.055695429922928
-3.080313318582939
-3.049540957757918
-3.0249230690979347
-2.994150708272913
-2.994150708272913
-3.0003051804379233
-3.0310775412629165
-3.055695429922928
-3.1049312072429505
-3.1110856794079322
-3.0987767350779407
-3.0987767350779407
-3.0987767350779407
-3.055695429922928
-3.1110856794079322
-3.080313318582939
-3.074158846417929
-3.0618499020879373
-3.0618499020879373
-3.074158846417929
-3.0310775412629165
-2.9633783474479203
-3.0310775412629165
-3.0310775412629165
-3.049540957757918
-3.0680043742529195
-3.074158846417929
-3.0864677907479487
-3.055695429922928
-3.055695429922928
-3.092622262912931
-2.9202970422929075
-2.618727906207874
-3.037232013427927
-3.006459652602933
-3.1357035680679433
-3.1480125123979352
-3.492662953638009
-3.264947483532982
-3.1233946237379517
-3.092622262912931
-3.0864677907479487
-3.080313318582939
-3.074158846417929
-3.080313318582939
-3.092622262912931
-3.080313318582939
-3.0618499020879373
-3.043386485592936
-3.0249230690979347
-3.080313318582939
-3.0618499020879373
-3.0864677907479487
-3.0618499020879373
-3.043386485592936
-3.0680043742529195
-3.0680043742529195
-3.074158846417929
-3.049540957757918
-3.037232013427927
-3.043386485592936
-3.049540957757918
-3.037232013427927
-3.049540957757918
-3.092622262912931
-3.074158846417929
-3.0618499020879373
-3.049540957757918
-3.0310775412629165
-3.092622262912931
-3.092622262912931
-3.0864677907479487
-3.074158846417929
-3.0618499020879373
-3.0618499020879373
-3.074158846417929
-3.0680043742529195
-3.080313318582939
-3.1233946237379517
-3.080313318582939
-3.092622262912931
-3.092622262912931
-3.092622262912931
-3.074158846417929
-3.074158846417929
-3.0987767350779407
-3.080313318582939
-3.0680043742529195
-3.0864677907479487
-3.074158846417929
-3.055695429922928
-3.0618499020879373
-3.1233946237379517
-3.0864677907479487
-3.0618499020879373
-2.901833625797906
-3.1357035680679433
-3.191093817552976
-3.092622262912931
-3.0618499020879373
-3.074158846417929
-3.0987767350779407
-3.0864677907479487
-3.0618499020879373
-3.055695429922928
-3.018768596932925
-3.0987767350779407
-3.092622262912931
-3.0680043742529195
-3.0680043742529195
-3.074158846417929
-3.074158846417929
-3.0864677907479487
-3.092622262912931
-3.080313318582939
-3.037232013427927
-3.0864677907479487
-3.0864677907479487
-3.0680043742529195
-3.0126141247679152
-3.0987767350779407
-3.080313318582939
-3.0618499020879373
-3.0618499020879373
-3.080313318582939
-3.080313318582939
-3.074158846417929
-3.0680043742529195
-3.0680043742529195
-3.0864677907479487
-3.092622262912931
-3.1110856794079322
-3.0987767350779407
-3.049540957757918
-3.1110856794079322
-3.092622262912931
-3.080313318582939
-3.0987767350779407
-3.092622262912931
-3.0680043742529195
-3.074158846417929
-3.0680043742529195
-3.080313318582939
-3.080313318582939
-3.0680043742529195
-3.074158846417929
-3.0680043742529195
-3.092622262912931
-3.25263853920299
-3.1480125123979352
-3.1110856794079322
-3.0864677907479487
-3.080313318582939
-2.9510694031179288
-2.8525978484779113
-3.406500343328012
-3.178784873222984
-3.1049312072429505
-3.092622262912931
-3.0864677907479487
-3.0680043742529195
-3.006459652602933
-2.9510694031179288
-3.037232013427927
-3.037232013427927
-3.055695429922928
-3.0618499020879373
-3.080313318582939
-3.055695429922928
-3.055695429922928
-3.037232013427927
-3.0618499020879373
-3.0680043742529195
-3.0680043742529195
-3.055695429922928
-3.0680043742529195
-3.0864677907479487
-3.092622262912931
-3.0987767350779407
-3.1049312072429505
-3.092622262912931
-3.055695429922928
-3.0618499020879373
-3.074158846417929
-3.0618499020879373
-3.0680043742529195
-3.043386485592936
-3.055695429922928
-3.049540957757918
-3.049540957757918
-3.0618499020879373
-3.074158846417929
-3.037232013427927
-3.0249230690979347
-3.0618499020879373
-3.043386485592936
-3.055695429922928
-3.0680043742529195
-3.0618499020879373
-3.074158846417929
-3.0680043742529195
-3.0618499020879373
-3.037232013427927
-3.0126141247679152
-3.0003051804379233
-2.994150708272913
-2.9202970422929075
-2.932605986622927
-2.975687291777912
-3.018768596932925
-3.037232013427927
-3.0680043742529195
-3.0618499020879373
-3.037232013427927
-3.018768596932925
-3.0310775412629165
-3.006459652602933
-2.760280766002876
-2.600264489712873
-3.055695429922928
-2.96953281961293
-2.9879962361079313
-2.9879962361079313
-2.9879962361079313
-2.9879962361079313
-3.2280206505429785
-3.4188092876580036
-3.117240151572942
-3.0680043742529195
-3.055695429922928
-3.0310775412629165
-3.0310775412629165
-3.043386485592936
-3.1049312072429505
-3.055695429922928
-3.037232013427927
-3.049540957757918
-3.049540957757918
-3.043386485592936
-3.049540957757918
-3.018768596932925
-3.0310775412629165
-3.055695429922928
-3.0249230690979347
-3.0126141247679152
-3.006459652602933
-3.006459652602933
-3.074158846417929
-3.043386485592936
-3.0249230690979347
-3.049540957757918
-3.043386485592936
-3.037232013427927
-3.0249230690979347
-3.018768596932925
-3.0310775412629165
-3.0310775412629165
-3.0249230690979347
-3.037232013427927
-3.0126141247679152
-2.9572238752829105
-3.018768596932925
-3.0126141247679152
-3.0003051804379233
-2.981841763942921
-2.96953281961293
-2.96953281961293
-3.006459652602933
-3.018768596932925
-3.0126141247679152
-3.018768596932925
-3.0126141247679152
-3.0249230690979347
-2.994150708272913
-2.9633783474479203
-2.895679153632896
-2.5694921288878514
-2.96953281961293
-2.9202970422929075
-2.9510694031179288
-3.178784873222984
-3.38803692683301
-3.0864677907479487
-3.018768596932925
-3.018768596932925
-2.9879962361079313
-2.994150708272913
-3.0003051804379233
-3.018768596932925
-3.117240151572942
-3.0618499020879373
-3.0310775412629165
-3.0310775412629165
-3.0310775412629165
-3.043386485592936
-3.0310775412629165
-3.0249230690979347
-3.049540957757918
-3.043386485592936
-3.037232013427927
-3.037232013427927
-3.0310775412629165
-3.0003051804379233
-2.96953281961293
-3.037232013427927
-3.049540957757918
-3.037232013427927
-3.049540957757918
-3.037232013427927
-3.049540957757918
-3.037232013427927
-3.037232013427927
-3.043386485592936
-3.055695429922928
-3.0310775412629165
-3.018768596932925
-3.0126141247679152
-3.049540957757918
-3.043386485592936
-3.0249230690979347
-3.043386485592936
-3.043386485592936
-3.0310775412629165
-3.043386485592936
-3.043386485592936
-3.049540957757918
-3.049540957757918
-3.074158846417929
-3.037232013427927
-3.018768596932925
-3.0126141247679152
-3.018768596932925
-3.0618499020879373
-3.049540957757918
-3.049540957757918
-3.0249230690979347
-3.049540957757918
-3.037232013427927
-3.006459652602933
-2.8649067928079033
-3.0864677907479487
-3.160321456727955
-3.055695429922928
-3.018768596932925
-3.018768596932925
-3.0249230690979347
-3.0618499020879373
-3.049540957757918
-3.037232013427927
-3.0126141247679152
-3.018768596932925
-3.037232013427927
-3.043386485592936
-3.0310775412629165
-3.037232013427927
-3.0310775412629165
-3.018768596932925
-3.018768596932925
-2.9879962361079313
-2.9879962361079313
-3.0003051804379233
-3.0003051804379233
-3.0126141247679152
-3.018768596932925
-3.0310775412629165
-3.0310775412629165
-3.0249230690979347
-3.0310775412629165
-3.0618499020879373
-3.043386485592936
-3.043386485592936
-3.037232013427927
-3.037232013427927
-3.0310775412629165
-3.055695429922928
-3.055695429922928
-3.043386485592936
-3.043386485592936
-3.0618499020879373
-3.049540957757918
-3.043386485592936
-3.043386485592936
-3.0618499020879373
-3.049540957757918
-3.0618499020879373
-3.0249230690979347
-3.0126141247679152
-3.0126141247679152
-3.0987767350779407
-3.0680043742529195
-3.018768596932925
-3.0618499020879373
-3.074158846417929
-3.074158846417929
-3.055695429922928
-3.0618499020879373
-3.0864677907479487
-2.9572238752829105
-2.7171994608478913
-2.944914930952919
-3.0126141247679152
-2.9202970422929075
-2.975687291777912
-2.9879962361079313
-3.0003051804379233
-2.994150708272913
-3.344955621677997
-3.258793011367972
-3.049540957757918
-3.043386485592936
-3.0864677907479487
-3.092622262912931
-3.1049312072429505
-3.117240151572942
-3.117240151572942
-3.1664759288929645
-3.215711706212987
-3.1357035680679433
-3.1049312072429505
-3.0864677907479487
-3.0680043742529195
-3.0864677907479487
-3.0987767350779407
-3.074158846417929
-3.0618499020879373
-3.0680043742529195
-3.0680043742529195
-3.0680043742529195
-3.049540957757918
-3.037232013427927
-3.074158846417929
-3.0680043742529195
-3.037232013427927
-3.055695429922928
-3.0618499020879373
-3.0618499020879373
-3.055695429922928
-2.8895246814679143
-3.1295490959029335
-3.1357035680679433
-3.043386485592936
-3.0618499020879373
-3.037232013427927
-3.0310775412629165
-3.074158846417929
-3.0310775412629165
-3.0618499020879373
-3.037232013427927
-3.0310775412629165
-3.0249230690979347
-3.043386485592936
-3.043386485592936
-3.037232013427927
-3.037232013427927
-3.055695429922928
-3.049540957757918
-3.0249230690979347
-3.018768596932925
-3.006459652602933
-3.037232013427927
-3.006459652602933
-2.871061264972913
-3.080313318582939
-3.154166984562973
-3.0618499020879373
-3.049540957757918
-3.049540957757918
-3.049540957757918
-3.055695429922928
-3.043386485592936
-3.043386485592936
-3.043386485592936
-3.074158846417929
-3.0680043742529195
-3.0680043742529195
-3.080313318582939
-3.0680043742529195
-3.074158846417929
-3.080313318582939
-3.080313318582939
-3.074158846417929
-3.0864677907479487
-3.092622262912931
-3.080313318582939
-3.092622262912931
-3.0618499020879373
-3.080313318582939
-3.1295490959029335
-3.1049312072429505
-3.092622262912931
-3.0987767350779407
-3.0987767350779407
-2.9141425701278982
-3.172630401057975
-3.178784873222984
-3.117240151572942
-3.0987767350779407
-3.1049312072429505
-3.0987767350779407
-3.074158846417929
-3.074158846417929
-3.117240151572942
-3.0680043742529195
-3.0618499020879373
-3.0680043742529195
-3.080313318582939
-3.055695429922928
-3.0618499020879373
-3.092622262912931
-3.080313318582939
-3.0680043742529195
-3.0680043742529195
-3.0618499020879373
-3.049540957757918
-3.049540957757918
-3.092622262912931
-3.080313318582939
-3.080313318582939
-3.0680043742529195
-2.907988097962916
-2.6371913227028756
-3.0310775412629165
-3.018768596932925
-3.049540957757918
-3.437272704153005
-3.277256427862973
-3.092622262912931
-3.074158846417929
-3.055695429922928
-3.1110856794079322
-3.0864677907479487
-3.0126141247679152
-2.754126293837894
-2.723353933012873
-3.080313318582939
-3.117240151572942
-3.043386485592936
-3.0618499020879373
-3.074158846417929
-3.184939345387966
-3.5418987309580316
-3.2280206505429785
-3.117240151572942
-3.1480125123979352
-3.0987767350779407
-3.117240151572942
-3.1110856794079322
-3.1049312072429505
-3.092622262912931
-3.0864677907479487
-3.0864677907479487
-3.0864677907479487
-3.092622262912931
-3.0864677907479487
-3.0987767350779407
-3.074158846417929
-3.049540957757918
-3.1049312072429505
-3.1049312072429505
-3.092622262912931
-3.0864677907479487
-3.080313318582939
-3.092622262912931
-3.0864677907479487
-3.0864677907479487
-3.0864677907479487
-3.0864677907479487
-3.0680043742529195
-3.0680043742529195
-3.0618499020879373
-3.0249230690979347
-3.1295490959029335
-3.0987767350779407
-3.080313318582939
-3.074158846417929
-3.080313318582939
-3.080313318582939
-3.080313318582939
-3.074158846417929
-3.055695429922928
-3.0864677907479487
-3.055695429922928
-3.0618499020879373
-3.0680043742529195
-3.0310775412629165
-3.1110856794079322
-3.0864677907479487
-3.0864677907479487
-3.1049312072429505
-3.1049312072429505
-3.1049312072429505
-3.0987767350779407
-3.1049312072429505
-3.080313318582939
-3.0864677907479487
-2.9264515144579173
-3.0618499020879373
-3.191093817552976
-3.092622262912931
-3.0987767350779407
-3.0987767350779407
-3.080313318582939
-3.074158846417929
-3.055695429922928
-3.0126141247679152
-3.006459652602933
-3.0003051804379233
-2.9879962361079313
-3.006459652602933
-3.018768596932925
-3.043386485592936
-3.092622262912931
-3.1110856794079322
-3.160321456727955
-3.1357035680679433
-3.1233946237379517
-3.1110856794079322
-3.092622262912931
-3.055695429922928
-3.0864677907479487
-3.074158846417929
-3.080313318582939
-3.080313318582939
-3.0680043742529195
-3.0680043742529195
-3.0680043742529195
-3.055695429922928
-3.0618499020879373
-3.0864677907479487
-3.080313318582939
-3.074158846417929
-3.049540957757918
-3.0680043742529195
-3.074158846417929
-3.0618499020879373
-3.0680043742529195
-3.0680043742529195
-3.0680043742529195
-3.037232013427927
-3.037232013427927
-3.018768596932925
-2.96953281961293
-2.797207598992907
-2.8402889041478923
-2.9879962361079313
-3.055695429922928
-2.9633783474479203
-3.0003051804379233
-3.018768596932925
-3.172630401057975
-3.492662953638009
-3.178784873222984
-3.092622262912931
-3.049540957757918
-3.049540957757918
-3.0680043742529195
-3.092622262912931
-3.049540957757918
-3.049540957757918
-3.037232013427927
-3.043386485592936
-3.043386485592936
-3.049540957757918
-3.043386485592936
-3.0310775412629165
-3.0310775412629165
-3.037232013427927
-3.0249230690979347
-3.0249230690979347
-3.0249230690979347
-3.080313318582939
-3.043386485592936
-3.037232013427927
-3.0618499020879373
-3.055695429922928
-3.037232013427927
-3.055695429922928
-3.043386485592936
-3.055695429922928
-3.0680043742529195
-3.0618499020879373
-3.080313318582939
-3.074158846417929
-3.0680043742529195
-3.141858040232953
-3.092622262912931
-3.1049312072429505
-3.1110856794079322
-3.1049312072429505
-3.0987767350779407
-3.1049312072429505
-3.0864677907479487
-3.092622262912931
-3.0987767350779407
-3.074158846417929
-3.074158846417929
-3.0864677907479487
-3.055695429922928
-3.1049312072429505
-3.0987767350779407
-3.0864677907479487
-3.080313318582939
-3.0864677907479487
-3.080313318582939
-3.0987767350779407
-2.9202970422929075
-3.1233946237379517
-3.191093817552976
-3.092622262912931
-3.092622262912931
-3.0864677907479487
-3.0310775412629165
-3.1110856794079322
-3.1110856794079322
-3.0864677907479487
-3.074158846417929
-3.080313318582939
-3.080313318582939
-3.055695429922928
-3.055695429922928
-3.055695429922928
-3.074158846417929
-3.074158846417929
-3.0680043742529195
-3.0680043742529195
-3.055695429922928
-3.0987767350779407
-3.0680043742529195
-3.074158846417929
-3.074158846417929
-3.0680043742529195
-3.0680043742529195
-3.074158846417929
-3.074158846417929
-3.092622262912931
-3.0680043742529195
-3.0618499020879373
-3.0680043742529195
-3.049540957757918
-3.006459652602933
-3.074158846417929
-3.074158846417929
-3.0680043742529195
-3.0618499020879373
-3.049540957757918
-3.0680043742529195
-3.0864677907479487
-3.0987767350779407
-3.080313318582939
-3.0864677907479487
-3.092622262912931
-3.0864677907479487
-3.0680043742529195
-3.049540957757918
-3.037232013427927
-3.049540957757918
-3.0618499020879373
-3.049540957757918
-3.055695429922928
-3.092622262912931
-3.055695429922928
-3.0249230690979347
-3.043386485592936
-2.8895246814679143
-2.674118155692878
-2.8525978484779113
-2.9141425701278982
-3.172630401057975
-3.492662953638009
-3.1357035680679433
-3.074158846417929
-3.080313318582939
-3.043386485592936
-3.0249230690979347
-3.037232013427927
-3.018768596932925
-3.0310775412629165
-3.0249230690979347
-3.0249230690979347
-3.0249230690979347
-3.018768596932925
-3.0003051804379233
-3.018768596932925
-3.0310775412629165
-3.037232013427927
-3.0126141247679152
-3.0249230690979347
-3.0310775412629165
-3.055695429922928
-3.037232013427927
-3.0310775412629165
-3.037232013427927
-3.037232013427927
-3.0310775412629165
-2.994150708272913
-3.0126141247679152
-3.037232013427927
-3.074158846417929
-3.0310775412629165
-3.043386485592936
-3.0618499020879373
-3.049540957757918
-3.043386485592936
-3.037232013427927
-3.037232013427927
-3.0126141247679152
-2.9633783474479203
-2.9264515144579173
-2.901833625797906
-2.907988097962916
-2.9264515144579173
-2.981841763942921
-3.006459652602933
-3.037232013427927
-3.055695429922928
-3.037232013427927
-3.037232013427927
-3.0310775412629165
-2.9879962361079313
-2.981841763942921
-3.006459652602933
-3.018768596932925
-2.994150708272913
-2.9879962361079313
-2.9879962361079313
-3.018768596932925
-2.975687291777912
-2.821825487652891
-3.0249230690979347
-3.1233946237379517
-3.018768596932925
-3.0126141247679152
-3.006459652602933
-2.994150708272913
-2.994150708272913
-3.0003051804379233
-2.9879962361079313
-2.994150708272913
-2.8649067928079033
-2.9202970422929075
-2.9879962361079313
-3.0003051804379233
-3.0126141247679152
-3.006459652602933
-3.0126141247679152
-2.994150708272913
-2.6925815721878803
-2.8033620711578893
-2.871061264972913
-2.9387604587879093
-2.9510694031179288
-2.9572238752829105
-3.092622262912931
-3.154166984562973
-3.4311182319879947
-3.184939345387966
-3.049540957757918
-3.018768596932925
-3.006459652602933
-3.006459652602933
-3.0003051804379233
-2.9879962361079313
-2.994150708272913
-3.0310775412629165
-3.0126141247679152
-3.006459652602933
-2.96953281961293
-3.043386485592936
-3.018768596932925
-3.0003051804379233
-2.9879962361079313
-2.994150708272913
-3.006459652602933
-3.0126141247679152
-3.006459652602933
-3.0249230690979347
-3.0310775412629165
-3.018768596932925
-3.0249230690979347
-3.006459652602933
-2.9572238752829105
-3.0249230690979347
-3.018768596932925
-3.006459652602933
-3.018768596932925
-2.858752320642893
-2.587955545382853
-2.975687291777912
-2.9879962361079313
-3.0003051804379233
-2.9879962361079313
-2.981841763942921
-3.0126141247679152
-3.357264566007989
-3.2403295948729705
-3.0003051804379233
-3.037232013427927
-3.043386485592936
-3.043386485592936
-3.055695429922928
-3.043386485592936
-3.074158846417929
-3.018768596932925
-3.006459652602933
-3.043386485592936
-3.043386485592936
-3.043386485592936
-3.018768596932925
-3.0618499020879373
-3.141858040232953
-3.074158846417929
-3.0680043742529195
-3.049540957757918
-3.043386485592936
-3.037232013427927
-3.043386485592936
-3.043386485592936
-3.0618499020879373
-3.043386485592936
-3.0249230690979347
-3.0310775412629165
-3.0310775412629165
-3.0310775412629165
-3.080313318582939
-3.0864677907479487
-3.037232013427927
-3.0310775412629165
-3.043386485592936
-3.055695429922928
-3.049540957757918
-3.037232013427927
-3.037232013427927
-3.006459652602933
-3.0680043742529195
-3.0618499020879373
-3.049540957757918
-3.0310775412629165
-3.0249230690979347
-3.049540957757918
-3.037232013427927
-3.0310775412629165
-3.043386485592936
-3.0618499020879373
-3.043386485592936
-3.0249230690979347
-3.0249230690979347
-3.049540957757918
-3.037232013427927
-3.0310775412629165
-2.871061264972913
-3.0618499020879373
-3.1110856794079322
-3.080313318582939
-3.037232013427927
-3.055695429922928
-3.043386485592936
-3.006459652602933
-3.0249230690979347
-3.049540957757918
-3.055695429922928
-3.049540957757918
-3.0310775412629165
-3.037232013427927
-3.018768596932925
-3.018768596932925
-2.994150708272913
-3.049540957757918
-3.0310775412629165
-3.0310775412629165
-3.0126141247679152
-3.0310775412629165
-3.0310775412629165
-3.037232013427927
-3.0310775412629165
-3.018768596932925
-3.0003051804379233
-3.018768596932925
-3.018768596932925
-3.0003051804379233
-2.994150708272913
-3.0249230690979347
-3.0126141247679152
-3.0126141247679152
-2.994150708272913
-3.018768596932925
-3.0310775412629165
-3.0249230690979347
-3.0310775412629165
-3.043386485592936
-3.0310775412629165
-3.037232013427927
-3.018768596932925
-3.018768596932925
-3.0310775412629165
-3.0680043742529195
-3.0310775412629165
-3.0618499020879373
-3.0310775412629165
-3.037232013427927
-3.043386485592936
-3.049540957757918
-3.0310775412629165
-3.037232013427927
-3.037232013427927
-3.0310775412629165
-3.0249230690979347
-3.037232013427927
-2.8895246814679143
-2.747971821672884
-2.8895246814679143
-2.981841763942921
-3.369573510338009
-3.2034027618829675
-3.018768596932925
-2.9879962361079313
-2.975687291777912
-3.006459652602933
-3.049540957757918
-3.0680043742529195
-3.074158846417929
-3.1049312072429505
-3.043386485592936
-3.117240151572942
-3.0680043742529195
-3.043386485592936
-3.055695429922928
-3.037232013427927
-3.037232013427927
-3.037232013427927
-3.037232013427927
-3.0126141247679152
-3.018768596932925
-3.043386485592936
-3.049540957757918
-3.043386485592936
-2.9879962361079313
-3.0680043742529195
-3.055695429922928
-3.055695429922928
-3.037232013427927
-3.0249230690979347
-3.0310775412629165
-3.0249230690979347
-3.0310775412629165
-3.0249230690979347
-3.0249230690979347
-3.018768596932925
-3.018768596932925
-2.9879962361079313
-2.944914930952919
-2.96953281961293
-3.0126141247679152
-2.981841763942921
-3.0003051804379233
-3.0126141247679152
-3.0003051804379233
-2.981841763942921
-2.975687291777912
-2.981841763942921
-3.0003051804379233
-2.9879962361079313
-2.981841763942921
-2.981841763942921
-2.975687291777912
-3.043386485592936
-3.049540957757918
-3.043386485592936
-3.0618499020879373
-3.037232013427927
-3.043386485592936
-3.018768596932925
-2.8649067928079033
-3.092622262912931
-3.154166984562973
-3.0987767350779407
-3.080313318582939
-3.055695429922928
-3.043386485592936
-3.074158846417929
-3.080313318582939
-3.055695429922928
