-1.9971262175427773
-2.015589634037779
-2.0217441062027888
-2.0217441062027888
-2.0278985783677985
-2.0463619948628
-2.0463619948628
-2.052516467027782
-2.0586709391927913
-2.0586709391927913
-2.064825411357801
-2.064825411357801
-2.064825411357801
-2.070979883522784
-2.083288827852803
-2.083288827852803
-2.089443300017785
-2.089443300017785
-2.083288827852803
-2.0955977721827947
-2.083288827852803
-2.052516467027782
-2.0217441062027888
-1.9971262175427773
-1.9786628010477763
-2.009435161872797
-2.0217441062027888
-2.009435161872797
-2.070979883522784
-2.150988021667799
-2.200223798987821
-2.212532743317813
-2.2186872154828228
-2.2679229928028177
-2.2925408814628288
-2.261768520637808
-2.2309961598128147
-2.200223798987821
-2.1817603824928202
-2.200223798987821
-2.1571424938328088
-2.2063782711528033
-2.212532743317813
-2.200223798987821
-2.187914854657802
-2.1817603824928202
-2.187914854657802
-2.1817603824928202
-2.187914854657802
-2.194069326822812
-2.187914854657802
-2.194069326822812
-2.200223798987821
-2.194069326822812
-2.2063782711528033
-2.2063782711528033
-2.2063782711528033
-2.2063782711528033
-2.2063782711528033
-2.212532743317813
-2.194069326822812
-2.150988021667799
-2.1632969659978185
-2.1817603824928202
-2.194069326822812
-2.212532743317813
-2.212532743317813
-2.212532743317813
-2.2063782711528033
-2.2186872154828228
-2.212532743317813
-2.2186872154828228
-2.2186872154828228
-2.2186872154828228
-2.2186872154828228
-2.2679229928028177
-2.255614048472826
-2.224841687647805
-2.2186872154828228
-2.2063782711528033
-2.200223798987821
-2.194069326822812
-2.194069326822812
-2.194069326822812
-2.194069326822812
-2.187914854657802
-2.1817603824928202
-2.187914854657802
-2.187914854657802
-2.212532743317813
-2.2186872154828228
-2.212532743317813
-2.2186872154828228
-2.224841687647805
-2.2309961598128147
-2.2433051041428067
-2.255614048472826
-2.2679229928028177
-2.2802319371328093
-2.286386409297819
-2.298695353627811
-2.3110042979578305
-2.3171587701228398
-2.304849825792821
-2.329467714452832
-2.3417766587828237
-2.3417766587828237
-2.335622186617841
-2.347931130947833
-2.347931130947833
-2.360240075277825
-2.360240075277825
-2.3663945474428347
-2.3663945474428347
-2.360240075277825
-2.372549019607845
-2.3663945474428347
-2.347931130947833
-2.347931130947833
-2.3540856031128428
-2.3663945474428347
-2.360240075277825
-2.3663945474428347
-2.360240075277825
-2.3663945474428347
-2.372549019607845
-2.360240075277825
-2.3663945474428347
-2.372549019607845
-2.372549019607845
-2.360240075277825
-2.3663945474428347
-2.372549019607845
-2.372549019607845
-2.3663945474428347
-2.3848579639378364
-2.378703491772827
-2.372549019607845
-2.372549019607845
-2.372549019607845
-2.378703491772827
-2.3848579639378364
-2.378703491772827
-2.3848579639378364
-2.378703491772827
-2.3848579639378364
-2.391012436102846
-2.3971669082678284
-2.3971669082678284
-2.391012436102846
-2.391012436102846
-2.403321380432838
-2.403321380432838
-2.3971669082678284
-2.4156303247628297
-2.409475852597848
-2.4217847969278394
-2.434093741257831
-2.4279392690928487
-2.4156303247628297
-2.434093741257831
-2.483329518577854
-2.3971669082678284
-2.3848579639378364
-2.391012436102846
-2.403321380432838
-2.409475852597848
-2.4648661020828517
-2.4587116299178424
-2.434093741257831
-2.434093741257831
-2.4279392690928487
-2.4156303247628297
-2.4156303247628297
-2.434093741257831
-2.434093741257831
-2.4279392690928487
-2.4279392690928487
-2.4217847969278394
-2.4217847969278394
-2.4156303247628297
-2.4279392690928487
-2.378703491772827
-2.434093741257831
-2.434093741257831
-2.4279392690928487
-2.4279392690928487
-2.4156303247628297
-2.378703491772827
-2.409475852597848
-2.4156303247628297
-2.4279392690928487
-2.4217847969278394
-2.4279392690928487
-2.4217847969278394
-2.434093741257831
-2.4402482134228407
-2.4279392690928487
-2.4217847969278394
-2.4525571577528327
-2.4402482134228407
-2.4587116299178424
-2.507947407237865
-2.471020574247862
-2.4587116299178424
-2.434093741257831
-2.434093741257831
-2.4525571577528327
-2.434093741257831
-2.4217847969278394
-2.4156303247628297
-2.3971669082678284
-2.409475852597848
-2.4156303247628297
-2.4217847969278394
-2.4217847969278394
-2.4217847969278394
-2.434093741257831
-2.4279392690928487
-2.434093741257831
-2.434093741257831
-2.4402482134228407
-2.434093741257831
-2.446402685587851
-2.471020574247862
-2.403321380432838
-2.4279392690928487
-2.4279392690928487
-2.434093741257831
-2.434093741257831
-2.4217847969278394
-2.4217847969278394
-2.4217847969278394
-2.434093741257831
-2.4402482134228407
-2.434093741257831
-2.434093741257831
-2.4402482134228407
-2.4279392690928487
-2.409475852597848
-2.378703491772827
-2.347931130947833
-2.3171587701228398
-2.2925408814628288
-2.286386409297819
-2.3110042979578305
-2.360240075277825
-2.403321380432838
-2.477175046412844
-2.434093741257831
-2.618727906207874
-3.178784873222984
-2.8279799598179
-2.711044988682881
-2.624882378372884
-2.3848579639378364
-1.7324839144477464
-2.4648661020828517
-2.55718318455786
-2.6064189618778553
-2.544874240227868
-2.5325652958978484
-2.526410823732866
-2.5141018794028467
-2.520256351567857
-2.526410823732866
-2.55718318455786
-2.587955545382853
-2.520256351567857
-2.4894839907428636
-2.483329518577854
-2.4587116299178424
-2.446402685587851
-2.4402482134228407
-2.434093741257831
-2.4217847969278394
-2.4217847969278394
-2.434093741257831
-2.4217847969278394
-2.4156303247628297
-2.4217847969278394
-2.4156303247628297
-2.3110042979578305
-2.360240075277825
-1.689402609292734
-1.6586302484677409
-2.434093741257831
-2.335622186617841
-2.335622186617841
-2.249459576307816
-2.2186872154828228
-2.2063782711528033
-2.1632969659978185
-2.2679229928028177
-2.249459576307816
-2.2371506319778245
-2.2802319371328093
-2.3171587701228398
-2.3110042979578305
-2.2925408814628288
-2.2186872154828228
-2.3417766587828237
-2.360240075277825
-2.323313242287821
-2.3110042979578305
-2.298695353627811
-2.2925408814628288
-2.2802319371328093
-2.286386409297819
-2.255614048472826
-2.3417766587828237
-2.3971669082678284
-2.3971669082678284
-2.409475852597848
-2.409475852597848
-2.4156303247628297
-2.434093741257831
-2.434093741257831
-2.434093741257831
-2.434093741257831
-2.4525571577528327
-2.4587116299178424
-2.4648661020828517
-2.471020574247862
-2.477175046412844
-2.483329518577854
-2.477175046412844
-2.4894839907428636
-2.483329518577854
-2.483329518577854
-2.4894839907428636
-2.483329518577854
-2.483329518577854
-2.483329518577854
-2.477175046412844
-2.483329518577854
-2.477175046412844
-2.477175046412844
-2.471020574247862
-2.477175046412844
-2.55718318455786
-2.501792935072855
-2.434093741257831
-2.4402482134228407
-2.4587116299178424
-2.4648661020828517
-2.4587116299178424
-2.4648661020828517
-2.5141018794028467
-2.5141018794028467
-2.483329518577854
-2.4587116299178424
-2.4648661020828517
-2.4648661020828517
-2.4525571577528327
-2.4525571577528327
-2.4587116299178424
-2.4402482134228407
-2.446402685587851
-2.4402482134228407
-2.446402685587851
-2.4402482134228407
-2.446402685587851
-2.434093741257831
-2.4402482134228407
-2.4402482134228407
-2.434093741257831
-2.434093741257831
-2.4279392690928487
-2.434093741257831
-2.434093741257831
-2.4279392690928487
-2.4279392690928487
-2.434093741257831
-2.4279392690928487
-2.4279392690928487
-2.4279392690928487
-2.4279392690928487
-2.4279392690928487
-2.434093741257831
-2.434093741257831
-2.4279392690928487
-2.4279392690928487
-2.4402482134228407
-2.4279392690928487
-2.4279392690928487
-2.434093741257831
-2.446402685587851
-2.4402482134228407
-2.4402482134228407
-2.434093741257831
-2.434093741257831
-2.434093741257831
-2.4279392690928487
-2.4279392690928487
-2.434093741257831
-2.434093741257831
-2.4279392690928487
-2.4217847969278394
-2.4156303247628297
-2.4156303247628297
-2.4217847969278394
-2.4217847969278394
-2.446402685587851
-2.434093741257831
-2.483329518577854
-2.409475852597848
-2.403321380432838
-2.409475852597848
-2.409475852597848
-2.4217847969278394
-2.477175046412844
-2.4648661020828517
-2.4402482134228407
-2.446402685587851
-2.446402685587851
-2.434093741257831
-2.434093741257831
-2.4217847969278394
-2.4279392690928487
-2.4279392690928487
-2.4217847969278394
-2.4156303247628297
-2.4156303247628297
-2.4217847969278394
-2.4156303247628297
-2.4156303247628297
-2.4217847969278394
-2.403321380432838
-2.403321380432838
-2.3971669082678284
-2.409475852597848
-2.409475852597848
-2.4156303247628297
-2.409475852597848
-2.4217847969278394
-2.4156303247628297
-2.409475852597848
-2.409475852597848
-2.4156303247628297
-2.4217847969278394
-2.4156303247628297
-2.372549019607845
-2.360240075277825
-2.3848579639378364
-2.403321380432838
-2.409475852597848
-2.409475852597848
-2.409475852597848
-2.403321380432838
-2.403321380432838
-2.403321380432838
-2.403321380432838
-2.403321380432838
-2.409475852597848
-2.409475852597848
-2.446402685587851
-2.446402685587851
-2.434093741257831
-2.403321380432838
-2.391012436102846
-2.3540856031128428
-2.3171587701228398
-2.2740774649678275
-2.255614048472826
-2.2433051041428067
-2.2679229928028177
-2.3110042979578305
-2.391012436102846
-2.4402482134228407
-2.483329518577854
-2.507947407237865
-2.5141018794028467
-2.501792935072855
-2.477175046412844
-2.4525571577528327
-2.4217847969278394
-2.403321380432838
-2.3971669082678284
-2.3971669082678284
-2.391012436102846
-2.3971669082678284
-2.403321380432838
-2.3971669082678284
-2.391012436102846
-2.3971669082678284
-2.3971669082678284
-2.3971669082678284
-2.391012436102846
-2.3848579639378364
-2.3848579639378364
-2.391012436102846
-2.378703491772827
-2.378703491772827
-2.378703491772827
-2.372549019607845
-2.372549019607845
-2.378703491772827
-2.360240075277825
-2.323313242287821
-2.3417766587828237
-2.347931130947833
-2.3540856031128428
-2.3663945474428347
-2.360240075277825
-2.360240075277825
-2.360240075277825
-2.360240075277825
-2.360240075277825
-2.360240075277825
-2.3540856031128428
-2.3540856031128428
-2.360240075277825
-2.403321380432838
-2.372549019607845
-2.3540856031128428
-2.3417766587828237
-2.329467714452832
-2.323313242287821
-2.3110042979578305
-2.3110042979578305
-2.298695353627811
-2.2925408814628288
-2.2925408814628288
-2.286386409297819
-2.286386409297819
-2.2925408814628288
-2.347931130947833
-2.2740774649678275
-2.3171587701228398
-2.304849825792821
-2.2925408814628288
-2.2925408814628288
-2.304849825792821
-2.3110042979578305
-2.323313242287821
-2.329467714452832
-2.347931130947833
-2.347931130947833
-2.3540856031128428
-2.3540856031128428
-2.3663945474428347
-2.378703491772827
-2.391012436102846
-2.3848579639378364
-2.403321380432838
-2.403321380432838
-2.3971669082678284
-2.3971669082678284
-2.403321380432838
-2.403321380432838
-2.403321380432838
-2.403321380432838
-2.4217847969278394
-2.409475852597848
-2.409475852597848
-2.4156303247628297
-2.4217847969278394
-2.4156303247628297
-2.4217847969278394
-2.4156303247628297
-2.4217847969278394
-2.409475852597848
-2.4156303247628297
-2.4156303247628297
-2.403321380432838
-2.409475852597848
-2.409475852597848
-2.409475852597848
-2.403321380432838
-2.4156303247628297
-2.4156303247628297
-2.403321380432838
-2.409475852597848
-2.409475852597848
-2.403321380432838
-2.409475852597848
-2.409475852597848
-2.3971669082678284
-2.403321380432838
-2.3971669082678284
-2.403321380432838
-2.3971669082678284
-2.391012436102846
-2.403321380432838
-2.3971669082678284
-2.403321380432838
-2.391012436102846
-2.391012436102846
-2.483329518577854
-2.618727906207874
-2.150988021667799
-2.3663945474428347
-2.4217847969278394
-2.4217847969278394
-2.4156303247628297
-2.403321380432838
-2.261768520637808
-2.372549019607845
-2.2433051041428067
-2.3110042979578305
-2.304849825792821
-2.2925408814628288
-2.286386409297819
-2.2802319371328093
-2.298695353627811
-2.2802319371328093
-2.150988021667799
-2.3171587701228398
-2.323313242287821
-2.298695353627811
-2.347931130947833
-2.4156303247628297
-2.3971669082678284
-2.323313242287821
-2.261768520637808
-2.501792935072855
-2.4402482134228407
-2.446402685587851
-2.4525571577528327
-2.4279392690928487
-2.3971669082678284
-2.3110042979578305
-2.249459576307816
-2.372549019607845
-2.2186872154828228
-2.194069326822812
-2.2679229928028177
-2.212532743317813
-2.212532743317813
-2.1632969659978185
-2.1632969659978185
-2.2740774649678275
-2.261768520637808
-2.2925408814628288
-2.298695353627811
-2.3417766587828237
-2.360240075277825
-2.261768520637808
-2.2371506319778245
-2.347931130947833
-2.4402482134228407
-2.391012436102846
-2.3540856031128428
-2.335622186617841
-2.329467714452832
-2.2679229928028177
-2.329467714452832
-1.9601993845527748
-1.437069250527695
-2.778744182497905
-2.372549019607845
-2.378703491772827
-2.3971669082678284
-1.9171180793977614
-2.9387604587879093
-2.8279799598179
-1.8863457185727683
-2.409475852597848
-2.471020574247862
-2.471020574247862
-2.483329518577854
-2.5141018794028467
-2.877215737137895
-2.563337656722869
-2.483329518577854
-2.477175046412844
-2.409475852597848
-2.286386409297819
-2.483329518577854
-2.2679229928028177
-2.501792935072855
-2.4402482134228407
-2.434093741257831
-2.434093741257831
-2.4279392690928487
-2.4217847969278394
-2.3663945474428347
-2.2740774649678275
-2.5141018794028467
-2.434093741257831
-2.4525571577528327
-2.4217847969278394
-2.4648661020828517
-2.4587116299178424
-2.378703491772827
-2.347931130947833
-2.483329518577854
-2.391012436102846
-2.3663945474428347
-2.329467714452832
-2.323313242287821
-2.323313242287821
-2.3417766587828237
-2.403321380432838
-2.477175046412844
-2.4894839907428636
-2.501792935072855
-2.507947407237865
-2.507947407237865
-2.477175046412844
-2.4525571577528327
-2.4279392690928487
-2.4156303247628297
-2.409475852597848
-2.409475852597848
-2.3971669082678284
-2.3971669082678284
-2.3971669082678284
-2.391012436102846
-2.3971669082678284
-2.3971669082678284
-2.3971669082678284
-2.391012436102846
-2.3848579639378364
-2.3848579639378364
-2.3848579639378364
-2.3848579639378364
-2.3971669082678284
-2.372549019607845
-2.378703491772827
-2.3848579639378364
-2.3848579639378364
-2.378703491772827
-2.372549019607845
-2.3540856031128428
-2.3540856031128428
-2.3540856031128428
-2.360240075277825
-2.3663945474428347
-2.3663945474428347
-2.372549019607845
-2.372549019607845
-2.3663945474428347
-2.3663945474428347
-2.3663945474428347
-2.3540856031128428
-2.3540856031128428
-2.347931130947833
-2.3848579639378364
-2.3663945474428347
-2.3540856031128428
-2.3417766587828237
-2.329467714452832
-2.3171587701228398
-2.3171587701228398
-2.3110042979578305
-2.298695353627811
-2.2925408814628288
-2.2925408814628288
-2.286386409297819
-2.2925408814628288
-2.2802319371328093
-2.286386409297819
-2.2802319371328093
-2.286386409297819
-2.2925408814628288
-2.298695353627811
-2.298695353627811
-2.304849825792821
-2.3171587701228398
-2.323313242287821
-2.329467714452832
-2.3417766587828237
-2.347931130947833
-2.360240075277825
-2.3663945474428347
-2.372549019607845
-2.3848579639378364
-2.3848579639378364
-2.409475852597848
-2.471020574247862
-2.403321380432838
-2.4402482134228407
-2.4217847969278394
-2.4156303247628297
-2.4156303247628297
-2.4156303247628297
-2.409475852597848
-2.409475852597848
-2.403321380432838
-2.403321380432838
-2.4156303247628297
-2.4156303247628297
-2.409475852597848
-2.3971669082678284
-2.403321380432838
-2.403321380432838
-2.403321380432838
-2.3971669082678284
-2.403321380432838
-2.403321380432838
-2.3971669082678284
-2.403321380432838
-2.403321380432838
-2.403321380432838
-2.403321380432838
-2.3971669082678284
-2.3971669082678284
-2.391012436102846
-2.391012436102846
-2.3848579639378364
-2.3848579639378364
-2.391012436102846
-2.3971669082678284
-2.3848579639378364
-2.3848579639378364
-2.391012436102846
-2.391012436102846
-2.3848579639378364
-2.391012436102846
-2.3848579639378364
-2.391012436102846
-2.391012436102846
-2.3971669082678284
-2.3971669082678284
-2.391012436102846
-2.403321380432838
-2.3971669082678284
-2.3971669082678284
-2.3971669082678284
-2.391012436102846
-2.391012436102846
-2.3848579639378364
-2.347931130947833
-2.360240075277825
-2.378703491772827
-2.3848579639378364
-2.3971669082678284
-2.391012436102846
-2.3971669082678284
-2.391012436102846
-2.3971669082678284
-2.3971669082678284
-2.4156303247628297
-2.3848579639378364
-2.391012436102846
-2.403321380432838
-2.434093741257831
-2.4279392690928487
-2.409475852597848
-2.409475852597848
-2.3971669082678284
-2.403321380432838
-2.403321380432838
-2.3848579639378364
-2.391012436102846
-2.391012436102846
-2.3848579639378364
-2.391012436102846
-2.3848579639378364
-2.391012436102846
-2.378703491772827
-2.3971669082678284
-2.391012436102846
-2.391012436102846
-2.3848579639378364
-2.391012436102846
-2.3848579639378364
-2.3848579639378364
-2.3848579639378364
-2.378703491772827
-2.3848579639378364
-2.3848579639378364
-2.378703491772827
-2.3848579639378364
-2.378703491772827
-2.3971669082678284
-2.378703491772827
-2.378703491772827
-2.3663945474428347
-2.3663945474428347
-2.372549019607845
-2.372549019607845
-2.372549019607845
-2.378703491772827
-2.3663945474428347
-2.372549019607845
-2.378703491772827
-2.372549019607845
-2.3663945474428347
-2.378703491772827
-2.372549019607845
-2.372549019607845
-2.372549019607845
-2.372549019607845
-2.372549019607845
-2.378703491772827
-2.378703491772827
-2.378703491772827
-2.378703491772827
-2.391012436102846
-2.403321380432838
-2.4648661020828517
-2.3663945474428347
-2.3540856031128428
-2.360240075277825
-2.372549019607845
-2.3971669082678284
-2.4279392690928487
-2.409475852597848
-2.3971669082678284
-2.391012436102846
-2.391012436102846
-2.372549019607845
-2.372549019607845
-2.3540856031128428
-2.329467714452832
-2.2802319371328093
-2.255614048472826
-2.2309961598128147
-2.224841687647805
-2.2371506319778245
-2.286386409297819
-2.3417766587828237
-2.403321380432838
-2.446402685587851
-2.446402685587851
-2.4587116299178424
-2.4648661020828517
-2.4525571577528327
-2.434093741257831
-2.403321380432838
-2.391012436102846
-2.378703491772827
-2.3663945474428347
-2.3663945474428347
-2.3663945474428347
-2.360240075277825
-2.3540856031128428
-2.360240075277825
-2.360240075277825
-2.3540856031128428
-2.3540856031128428
-2.3540856031128428
-2.3540856031128428
-2.3540856031128428
-2.3540856031128428
-2.360240075277825
-2.372549019607845
-2.3663945474428347
-2.360240075277825
-2.3540856031128428
-2.3540856031128428
-2.347931130947833
-2.347931130947833
-2.347931130947833
-2.347931130947833
-2.335622186617841
-2.3417766587828237
-2.329467714452832
-2.3110042979578305
-2.3171587701228398
-2.3171587701228398
-2.323313242287821
-2.3171587701228398
-2.329467714452832
-2.298695353627811
-2.304849825792821
-2.304849825792821
-2.304849825792821
-2.304849825792821
-2.304849825792821
-2.298695353627811
-2.2925408814628288
-2.286386409297819
-2.286386409297819
-2.2740774649678275
-2.2679229928028177
-2.335622186617841
-2.2925408814628288
-2.2371506319778245
-2.2433051041428067
-2.249459576307816
-2.255614048472826
-2.255614048472826
-2.2679229928028177
-2.3171587701228398
-2.3171587701228398
-2.298695353627811
-2.298695353627811
-2.3110042979578305
-2.3171587701228398
-2.3171587701228398
-2.329467714452832
-2.347931130947833
-2.3417766587828237
-2.3540856031128428
-2.3540856031128428
-2.360240075277825
-2.372549019607845
-2.372549019607845
-2.378703491772827
-2.378703491772827
-2.3848579639378364
-2.3848579639378364
-2.3848579639378364
-2.391012436102846
-2.3848579639378364
-2.391012436102846
-2.391012436102846
-2.3848579639378364
-2.3971669082678284
-2.3971669082678284
-2.3971669082678284
-2.391012436102846
-2.391012436102846
-2.3848579639378364
-2.3971669082678284
-2.391012436102846
-2.3971669082678284
-2.3848579639378364
-2.3848579639378364
-2.3848579639378364
-2.3971669082678284
-2.446402685587851
-2.3971669082678284
-2.409475852597848
-2.3971669082678284
-2.391012436102846
-2.3848579639378364
-2.372549019607845
-2.378703491772827
-2.372549019607845
-2.378703491772827
-2.378703491772827
-2.372549019607845
-2.3663945474428347
-2.3663945474428347
-2.378703491772827
-2.372549019607845
-2.372549019607845
-2.378703491772827
-2.372549019607845
-2.372549019607845
-2.372549019607845
-2.372549019607845
-2.378703491772827
-2.372549019607845
-2.378703491772827
-2.378703491772827
-2.3848579639378364
-2.378703491772827
-2.378703491772827
-2.378703491772827
-2.3848579639378364
-2.3848579639378364
-2.378703491772827
-2.3848579639378364
-2.372549019607845
-2.378703491772827
-2.391012436102846
-2.378703491772827
-2.391012436102846
-2.378703491772827
-2.378703491772827
-2.3848579639378364
-2.378703491772827
-2.378703491772827
-2.378703491772827
-2.3848579639378364
-2.378703491772827
-2.3848579639378364
-2.378703491772827
-2.3848579639378364
-2.3848579639378364
-2.391012436102846
-2.391012436102846
-2.391012436102846
-2.391012436102846
-2.391012436102846
-2.3971669082678284
-2.3971669082678284
-2.391012436102846
-2.3971669082678284
-2.3971669082678284
-2.391012436102846
-2.391012436102846
-2.3971669082678284
-2.3848579639378364
-2.391012436102846
-2.391012436102846
-2.391012436102846
-2.391012436102846
-2.3848579639378364
-2.3848579639378364
-2.391012436102846
-2.3848579639378364
-2.3848579639378364
-2.391012436102846
-2.391012436102846
-2.391012436102846
-2.3848579639378364
-2.3971669082678284
-2.3971669082678284
-2.403321380432838
-2.391012436102846
-2.3971669082678284
-2.3971669082678284
-2.3971669082678284
-2.3848579639378364
-2.3848579639378364
-2.3971669082678284
-2.403321380432838
-2.391012436102846
-2.3848579639378364
-2.391012436102846
-2.3848579639378364
-2.3971669082678284
-2.391012436102846
-2.3971669082678284
-2.403321380432838
-2.403321380432838
-2.403321380432838
-2.403321380432838
-2.403321380432838
-2.409475852597848
-2.4217847969278394
-2.409475852597848
-2.409475852597848
-2.409475852597848
-2.4217847969278394
-2.4217847969278394
-2.4156303247628297
-2.4156303247628297
-2.409475852597848
-2.4156303247628297
-2.409475852597848
-2.403321380432838
-2.403321380432838
-2.403321380432838
-2.403321380432838
-2.4156303247628297
-2.409475852597848
-2.403321380432838
-2.403321380432838
-2.372549019607845
-2.3848579639378364
-2.2740774649678275
-2.2371506319778245
-2.2309961598128147
-2.2371506319778245
-2.3110042979578305
-2.3971669082678284
-2.4279392690928487
-2.4894839907428636
-2.520256351567857
-2.520256351567857
-2.5141018794028467
-2.483329518577854
-2.477175046412844
-2.4402482134228407
-2.4156303247628297
-2.409475852597848
-2.4156303247628297
-2.4156303247628297
-2.409475852597848
-2.409475852597848
-2.409475852597848
-2.403321380432838
-2.4156303247628297
-2.409475852597848
-2.4156303247628297
-2.4279392690928487
-2.4217847969278394
-2.4217847969278394
-2.4217847969278394
-2.403321380432838
-2.403321380432838
-2.403321380432838
-2.3971669082678284
-2.3971669082678284
-2.403321380432838
-2.3971669082678284
-2.3971669082678284
-2.3971669082678284
-2.391012436102846
-2.378703491772827
-2.378703491772827
-2.378703491772827
-2.360240075277825
-2.3540856031128428
-2.360240075277825
-2.3663945474428347
-2.3663945474428347
-2.3848579639378364
-2.3971669082678284
-2.391012436102846
-2.3848579639378364
-2.372549019607845
-2.3663945474428347
-2.360240075277825
-2.3540856031128428
-2.347931130947833
-2.3540856031128428
-2.347931130947833
-2.335622186617841
-2.335622186617841
-2.335622186617841
-2.323313242287821
-2.323313242287821
-2.3171587701228398
-2.3171587701228398
-2.304849825792821
-2.3110042979578305
-2.3110042979578305
-2.3110042979578305
-2.3110042979578305
-2.3110042979578305
-2.3171587701228398
-2.329467714452832
-2.335622186617841
-2.3417766587828237
-2.360240075277825
-2.3663945474428347
-2.372549019607845
-2.378703491772827
-2.3971669082678284
-2.3971669082678284
-2.403321380432838
-2.4156303247628297
-2.4217847969278394
-2.4217847969278394
-2.4279392690928487
-2.4217847969278394
-2.4217847969278394
-2.4279392690928487
-2.4279392690928487
-2.4279392690928487
-2.434093741257831
-2.434093741257831
-2.4402482134228407
-2.434093741257831
-2.434093741257831
-2.434093741257831
-2.434093741257831
-2.4402482134228407
-2.4402482134228407
-2.434093741257831
-2.4279392690928487
-2.4217847969278394
-2.434093741257831
-2.4217847969278394
-2.4279392690928487
-2.4279392690928487
-2.4279392690928487
-2.4279392690928487
-2.4279392690928487
-2.4217847969278394
-2.409475852597848
-2.4156303247628297
-2.4156303247628297
-2.4279392690928487
-2.4217847969278394
-2.4279392690928487
-2.4217847969278394
-2.4279392690928487
-2.4217847969278394
-2.434093741257831
-2.4894839907428636
-2.4525571577528327
-2.4587116299178424
-2.4525571577528327
-2.4402482134228407
-2.434093741257831
-2.4279392690928487
-2.434093741257831
-2.434093741257831
-2.4279392690928487
-2.434093741257831
-2.434093741257831
-2.434093741257831
-2.4402482134228407
-2.434093741257831
-2.434093741257831
-2.434093741257831
-2.4156303247628297
-2.4217847969278394
-2.434093741257831
-2.4279392690928487
-2.434093741257831
-2.4402482134228407
-2.434093741257831
-2.4525571577528327
-2.501792935072855
-2.4279392690928487
-2.4217847969278394
-2.4217847969278394
-2.4217847969278394
-2.4279392690928487
-2.446402685587851
-2.4587116299178424
-2.495638462907845
-2.471020574247862
-2.4525571577528327
-2.446402685587851
-2.4402482134228407
-2.446402685587851
-2.434093741257831
-2.434093741257831
-2.4402482134228407
-2.434093741257831
-2.4279392690928487
-2.4279392690928487
-2.4217847969278394
-2.4279392690928487
-2.4279392690928487
-2.434093741257831
-2.434093741257831
-2.434093741257831
-2.4402482134228407
-2.4279392690928487
-2.434093741257831
-2.4279392690928487
-2.4279392690928487
-2.4402482134228407
-2.4402482134228407
-2.4402482134228407
-2.4279392690928487
-2.434093741257831
-2.434093741257831
-2.434093741257831
-2.4279392690928487
-2.4279392690928487
-2.434093741257831
-2.4279392690928487
-2.4279392690928487
-2.4279392690928487
-2.4279392690928487
-2.4217847969278394
-2.434093741257831
-2.434093741257831
-2.409475852597848
-2.4156303247628297
-2.4217847969278394
-2.4217847969278394
-2.4156303247628297
-2.4156303247628297
-2.4156303247628297
-2.4279392690928487
-2.4156303247628297
-2.4156303247628297
-2.4156303247628297
-2.4156303247628297
-2.4279392690928487
-2.4217847969278394
-2.4279392690928487
-2.4525571577528327
-2.4217847969278394
-2.434093741257831
-2.434093741257831
-2.4402482134228407
-2.4402482134228407
-2.434093741257831
-2.4402482134228407
-2.4525571577528327
-2.446402685587851
-2.4402482134228407
-2.4402482134228407
-2.446402685587851
-2.434093741257831
-2.4279392690928487
-2.446402685587851
-2.4402482134228407
-2.4402482134228407
-2.4402482134228407
-2.4402482134228407
-2.4402482134228407
-2.434093741257831
-2.434093741257831
-2.4156303247628297
-2.378703491772827
-2.3417766587828237
-2.3110042979578305
-2.2925408814628288
-2.2925408814628288
-2.323313242287821
-2.378703491772827
-2.4587116299178424
-2.526410823732866
-2.55718318455786
-2.5941100175478624
-2.538719768062857
-2.5141018794028467
-2.483329518577854
-2.4648661020828517
-2.4894839907428636
-2.483329518577854
-2.4648661020828517
-2.4587116299178424
-2.4648661020828517
-2.4525571577528327
-2.4525571577528327
-2.446402685587851
-2.446402685587851
-2.446402685587851
-2.434093741257831
-2.4402482134228407
-2.4402482134228407
-2.4402482134228407
-2.446402685587851
-2.4217847969278394
-2.434093741257831
-2.4402482134228407
-2.4402482134228407
-2.446402685587851
-2.4402482134228407
-2.4402482134228407
-2.434093741257831
-2.4279392690928487
-2.4279392690928487
-2.4217847969278394
-2.4279392690928487
-2.4279392690928487
-2.4217847969278394
-2.4217847969278394
-2.4217847969278394
-2.391012436102846
-2.403321380432838
-2.409475852597848
-2.403321380432838
-2.3971669082678284
-2.403321380432838
-2.403321380432838
-2.391012436102846
-2.3971669082678284
-2.391012436102846
-2.391012436102846
-2.372549019607845
-2.372549019607845
-2.3663945474428347
-2.372549019607845
-2.378703491772827
-2.372549019607845
-2.3540856031128428
-2.347931130947833
-2.3540856031128428
-2.347931130947833
-2.3540856031128428
-2.3540856031128428
-2.360240075277825
-2.3663945474428347
-2.3663945474428347
-2.372549019607845
-2.391012436102846
-2.372549019607845
-2.3971669082678284
-2.409475852597848
-2.4156303247628297
-2.434093741257831
-2.4402482134228407
-2.446402685587851
-2.446402685587851
-2.4525571577528327
-2.4648661020828517
-2.4587116299178424
-2.471020574247862
-2.483329518577854
-2.477175046412844
-2.471020574247862
-2.477175046412844
-2.4894839907428636
-2.4894839907428636
-2.483329518577854
-2.483329518577854
-2.495638462907845
-2.4894839907428636
-2.4894839907428636
-2.483329518577854
-2.483329518577854
-2.4894839907428636
-2.483329518577854
-2.4894839907428636
-2.477175046412844
-2.4648661020828517
-2.471020574247862
-2.4587116299178424
-2.4402482134228407
-2.4156303247628297
-2.3540856031128428
-2.194069326822812
-2.391012436102846
-2.378703491772827
-2.3663945474428347
-2.391012436102846
-2.4217847969278394
-2.446402685587851
-2.4894839907428636
-2.563337656722869
-2.600264489712873
-2.5325652958978484
-2.544874240227868
-2.5325652958978484
-2.526410823732866
-2.520256351567857
-2.4279392690928487
-2.3848579639378364
-2.471020574247862
-2.3971669082678284
-2.3971669082678284
-2.403321380432838
-2.372549019607845
-1.9848172732127856
-1.6586302484677409
-3.0126141247679152
-2.723353933012873
-2.5694921288878514
-2.55718318455786
-2.600264489712873
-2.581801073217871
-2.563337656722869
-2.471020574247862
-2.507947407237865
-2.5694921288878514
-2.4894839907428636
-2.4217847969278394
-2.3971669082678284
-2.563337656722869
-2.471020574247862
-2.3663945474428347
-2.495638462907845
-2.501792935072855
-2.4894839907428636
-2.507947407237865
-2.5141018794028467
-2.495638462907845
-2.507947407237865
-2.3848579639378364
-2.544874240227868
-2.5141018794028467
-2.446402685587851
-2.563337656722869
-2.4894839907428636
-2.4587116299178424
-2.409475852597848
-2.2371506319778245
-2.4587116299178424
-2.4217847969278394
-2.4402482134228407
-2.483329518577854
-2.507947407237865
-2.5141018794028467
-2.471020574247862
-2.3663945474428347
-2.4156303247628297
-2.575646601052861
-2.507947407237865
-2.4587116299178424
-2.4587116299178424
-2.477175046412844
-2.4587116299178424
-2.4525571577528327
-2.581801073217871
-2.55718318455786
-2.55718318455786
-2.563337656722869
-2.5141018794028467
-2.477175046412844
-2.335622186617841
-2.4279392690928487
-2.477175046412844
-2.4156303247628297
-2.4525571577528327
-2.434093741257831
-2.446402685587851
-2.544874240227868
-2.981841763942921
-1.7940286360977609
-2.200223798987821
-2.4156303247628297
-2.4156303247628297
-2.446402685587851
-2.3971669082678284
-2.5141018794028467
-2.4217847969278394
-2.4587116299178424
-2.507947407237865
-2.5325652958978484
-2.5141018794028467
-2.495638462907845
-2.4894839907428636
-2.4525571577528327
-2.3110042979578305
-2.4279392690928487
-2.4217847969278394
-2.409475852597848
-2.255614048472826
-2.077134355687793
-2.3848579639378364
-2.4217847969278394
-2.372549019607845
-2.4648661020828517
-2.434093741257831
-2.434093741257831
-2.4279392690928487
-2.4156303247628297
-2.4402482134228407
-2.4156303247628297
-1.7509473309427481
-2.360240075277825
-2.575646601052861
-2.711044988682881
-2.495638462907845
-2.446402685587851
-2.434093741257831
-2.391012436102846
-2.4648661020828517
-2.477175046412844
-2.347931130947833
-2.3171587701228398
-2.3171587701228398
-2.323313242287821
-2.391012436102846
-2.434093741257831
-2.4525571577528327
-2.507947407237865
-2.507947407237865
-2.5141018794028467
-2.5141018794028467
-2.477175046412844
-2.446402685587851
-2.4279392690928487
-2.4279392690928487
-2.4156303247628297
-2.4279392690928487
-2.4648661020828517
-2.3971669082678284
-2.391012436102846
-2.3971669082678284
-2.403321380432838
-2.446402685587851
-2.434093741257831
-2.4279392690928487
-2.4156303247628297
-2.4156303247628297
-2.409475852597848
-2.403321380432838
-2.409475852597848
-2.409475852597848
-2.3971669082678284
-2.403321380432838
-2.3971669082678284
-2.3971669082678284
-2.391012436102846
-2.403321380432838
-2.409475852597848
-2.409475852597848
-2.3971669082678284
-2.403321380432838
-2.391012436102846
-2.391012436102846
-2.391012436102846
-2.391012436102846
-2.3848579639378364
-2.378703491772827
-2.372549019607845
-2.372549019607845
-2.3540856031128428
-2.360240075277825
-2.360240075277825
-2.3540856031128428
-2.347931130947833
-2.3417766587828237
-2.335622186617841
-2.323313242287821
-2.323313242287821
-2.3110042979578305
-2.3110042979578305
-2.304849825792821
-2.3110042979578305
-2.3110042979578305
-2.298695353627811
-2.298695353627811
-2.304849825792821
-2.304849825792821
-2.304849825792821
-2.3110042979578305
-2.3171587701228398
-2.323313242287821
-2.329467714452832
-2.335622186617841
-2.3417766587828237
-2.3540856031128428
-2.360240075277825
-2.3663945474428347
-2.372549019607845
-2.3848579639378364
-2.391012436102846
-2.403321380432838
-2.391012436102846
-2.403321380432838
-2.4156303247628297
-2.360240075277825
-2.403321380432838
-2.4525571577528327
-2.4402482134228407
-2.4279392690928487
-2.434093741257831
-2.4156303247628297
-2.4156303247628297
-2.403321380432838
-2.4156303247628297
-2.409475852597848
-2.4156303247628297
-2.4156303247628297
-2.4217847969278394
-2.4156303247628297
-2.409475852597848
-2.4217847969278394
-2.409475852597848
-2.409475852597848
-2.4156303247628297
-2.4156303247628297
-2.4156303247628297
-2.4217847969278394
-2.4217847969278394
-2.4217847969278394
-2.4217847969278394
-2.4156303247628297
-2.4156303247628297
-2.4217847969278394
-2.4156303247628297
-2.409475852597848
-2.4217847969278394
-2.4217847969278394
-2.409475852597848
-2.409475852597848
-2.409475852597848
-2.409475852597848
-2.409475852597848
-2.4156303247628297
-2.403321380432838
-2.4156303247628297
-2.403321380432838
-2.409475852597848
-2.4156303247628297
-2.409475852597848
-2.409475852597848
-2.4217847969278394
-2.4217847969278394
-2.4156303247628297
-2.4156303247628297
-2.403321380432838
-2.409475852597848
-2.4156303247628297
-2.4156303247628297
-2.4279392690928487
-2.4894839907428636
-2.4525571577528327
-2.434093741257831
-2.4156303247628297
-2.4156303247628297
-2.409475852597848
-2.403321380432838
-2.409475852597848
-2.403321380432838
-2.403321380432838
-2.403321380432838
-2.403321380432838
-2.403321380432838
-2.3971669082678284
-2.403321380432838
-2.403321380432838
-2.3971669082678284
-2.403321380432838
-2.3971669082678284
-2.3971669082678284
-2.391012436102846
-2.403321380432838
-2.3971669082678284
-2.391012436102846
-2.403321380432838
-2.3971669082678284
-2.391012436102846
-2.391012436102846
-2.391012436102846
-2.3971669082678284
-2.3971669082678284
-2.3971669082678284
-2.403321380432838
-2.3971669082678284
-2.391012436102846
-2.3971669082678284
-2.3971669082678284
-2.3848579639378364
-2.391012436102846
-2.391012436102846
-2.391012436102846
-2.391012436102846
-2.3848579639378364
-2.3848579639378364
-2.3848579639378364
-2.391012436102846
-2.3848579639378364
-2.3848579639378364
-2.391012436102846
-2.378703491772827
-2.3848579639378364
-2.3848579639378364
-2.391012436102846
-2.3971669082678284
-2.3971669082678284
-2.391012436102846
-2.3971669082678284
-2.3971669082678284
-2.391012436102846
-2.391012436102846
-2.3971669082678284
-2.391012436102846
-2.3971669082678284
-2.409475852597848
-2.378703491772827
-2.391012436102846
-2.391012436102846
-2.3971669082678284
-2.3971669082678284
-2.3971669082678284
-2.403321380432838
-2.403321380432838
-2.3971669082678284
-2.403321380432838
-2.403321380432838
-2.3971669082678284
-2.391012436102846
-2.391012436102846
-2.3848579639378364
-2.3663945474428347
-2.3417766587828237
-2.304849825792821
-2.2679229928028177
-2.255614048472826
-2.261768520637808
-2.261768520637808
-2.304849825792821
-2.3663945474428347
-2.4279392690928487
-2.4648661020828517
-2.483329518577854
-2.483329518577854
-2.495638462907845
-2.483329518577854
-2.471020574247862
-2.4587116299178424
-2.4217847969278394
-2.4156303247628297
-2.403321380432838
-2.403321380432838
-2.391012436102846
-2.391012436102846
-2.391012436102846
-2.3971669082678284
-2.391012436102846
-2.3848579639378364
-2.3848579639378364
-2.378703491772827
-2.378703491772827
-2.378703491772827
-2.3848579639378364
-2.3848579639378364
-2.378703491772827
-2.372549019607845
-2.372549019607845
-2.378703491772827
-2.372549019607845
-2.372549019607845
-2.347931130947833
-2.360240075277825
-2.372549019607845
-2.372549019607845
-2.4156303247628297
-2.347931130947833
-2.3417766587828237
-2.3417766587828237
-2.372549019607845
-2.4156303247628297
-2.378703491772827
-2.3663945474428347
-2.3540856031128428
-2.3540856031128428
-2.347931130947833
-2.3417766587828237
-2.335622186617841
-2.329467714452832
-2.323313242287821
-2.3171587701228398
-2.3110042979578305
-2.3110042979578305
-2.304849825792821
-2.304849825792821
-2.304849825792821
-2.298695353627811
-2.298695353627811
-2.2925408814628288
-2.2925408814628288
-2.2925408814628288
-2.286386409297819
-2.2925408814628288
-2.286386409297819
-2.298695353627811
-2.304849825792821
-2.3110042979578305
-2.3171587701228398
-2.323313242287821
-2.335622186617841
-2.3417766587828237
-2.347931130947833
-2.360240075277825
-2.3663945474428347
-2.3663945474428347
-2.378703491772827
-2.378703491772827
-2.3848579639378364
-2.403321380432838
-2.477175046412844
-2.3971669082678284
-2.3663945474428347
-2.3848579639378364
-2.3848579639378364
-2.3971669082678284
-2.3971669082678284
-2.409475852597848
-2.4587116299178424
-2.446402685587851
-2.4279392690928487
-2.4279392690928487
-2.409475852597848
-2.3663945474428347
-2.378703491772827
-2.3848579639378364
-2.391012436102846
-2.3971669082678284
-2.3971669082678284
-2.391012436102846
-2.3971669082678284
-2.391012436102846
-2.391012436102846
-2.403321380432838
-2.3971669082678284
-2.391012436102846
-2.403321380432838
-2.4279392690928487
-2.434093741257831
-2.4217847969278394
-2.409475852597848
-2.403321380432838
-2.403321380432838
-2.403321380432838
-2.403321380432838
-2.403321380432838
-2.3971669082678284
-2.403321380432838
-2.3971669082678284
-2.403321380432838
-2.3971669082678284
-2.391012436102846
-2.3971669082678284
-2.403321380432838
-2.3971669082678284
-2.403321380432838
-2.3971669082678284
-2.403321380432838
-2.3971669082678284
-2.403321380432838
-2.3971669082678284
-2.3971669082678284
-2.391012436102846
-2.391012436102846
-2.391012436102846
-2.3848579639378364
-2.391012436102846
-2.3971669082678284
-2.3971669082678284
-2.3971669082678284
-2.3971669082678284
-2.391012436102846
-2.391012436102846
-2.409475852597848
-2.3848579639378364
-2.3848579639378364
-2.3848579639378364
-2.3848579639378364
-2.391012436102846
-2.3848579639378364
-2.391012436102846
-2.3971669082678284
-2.3971669082678284
-2.3848579639378364
-2.3848579639378364
-2.391012436102846
-2.3848579639378364
-2.3971669082678284
-2.4402482134228407
-2.4279392690928487
-2.409475852597848
-2.3971669082678284
-2.3971669082678284
-2.3848579639378364
-2.3848579639378364
-2.3848579639378364
-2.3848579639378364
-2.391012436102846
-2.378703491772827
-2.378703491772827
-2.378703491772827
-2.378703491772827
-2.3848579639378364
-2.372549019607845
-2.378703491772827
-2.378703491772827
-2.3848579639378364
-2.372549019607845
-2.3663945474428347
-2.378703491772827
-2.3663945474428347
-2.372549019607845
-2.3663945474428347
-2.360240075277825
-2.360240075277825
-2.3663945474428347
-2.372549019607845
-2.372549019607845
-2.3663945474428347
-2.3663945474428347
-2.360240075277825
-2.360240075277825
-2.360240075277825
-2.3663945474428347
-2.3663945474428347
-2.3663945474428347
-2.378703491772827
-2.372549019607845
-2.378703491772827
-2.378703491772827
-2.372549019607845
-2.372549019607845
-2.372549019607845
-2.378703491772827
-2.372549019607845
-2.3848579639378364
-2.3848579639378364
-2.391012436102846
-2.378703491772827
-2.378703491772827
-2.378703491772827
-2.378703491772827
-2.372549019607845
-2.3848579639378364
-2.3848579639378364
-2.3848579639378364
-2.378703491772827
-2.372549019607845
-2.360240075277825
-2.335622186617841
-2.298695353627811
-2.2802319371328093
-2.2371506319778245
-2.224841687647805
-2.224841687647805
-2.261768520637808
-2.323313242287821
-2.391012436102846
-2.446402685587851
-2.4587116299178424
-2.4648661020828517
-2.471020574247862
-2.4587116299178424
-2.4217847969278394
-2.3971669082678284
-2.3848579639378364
-2.378703491772827
-2.372549019607845
-2.3663945474428347
-2.3663945474428347
-2.360240075277825
-2.3663945474428347
-2.360240075277825
-2.360240075277825
-2.3663945474428347
-2.372549019607845
-2.3540856031128428
-2.3540856031128428
-2.347931130947833
-2.3540856031128428
-2.3540856031128428
-2.3540856031128428
-2.3417766587828237
-2.3417766587828237
-2.347931130947833
-2.347931130947833
-2.347931130947833
-2.335622186617841
-2.3417766587828237
-2.335622186617841
-2.335622186617841
-2.3417766587828237
-2.329467714452832
-2.323313242287821
-2.323313242287821
-2.329467714452832
-2.329467714452832
-2.323313242287821
-2.329467714452832
-2.323313242287821
-2.3171587701228398
-2.3110042979578305
-2.3110042979578305
-2.3110042979578305
-2.298695353627811
-2.298695353627811
-2.2925408814628288
-2.2925408814628288
-2.2802319371328093
-2.286386409297819
-2.329467714452832
-2.255614048472826
-2.249459576307816
-2.255614048472826
-2.286386409297819
-2.3110042979578305
-2.2925408814628288
-2.2740774649678275
-2.2740774649678275
-2.2679229928028177
-2.2679229928028177
-2.255614048472826
-2.2740774649678275
-2.286386409297819
-2.298695353627811
-2.3110042979578305
-2.323313242287821
-2.323313242287821
-2.335622186617841
-2.3417766587828237
-2.3540856031128428
-2.360240075277825
-2.360240075277825
-2.372549019607845
-2.378703491772827
-2.3971669082678284
-2.403321380432838
-2.3971669082678284
-2.3971669082678284
-2.391012436102846
-2.3971669082678284
-2.3971669082678284
-2.3971669082678284
-2.391012436102846
-2.3971669082678284
-2.391012436102846
-2.3971669082678284
-2.391012436102846
-2.378703491772827
-2.3417766587828237
-2.3540856031128428
-2.372549019607845
-2.378703491772827
-2.378703491772827
-2.3848579639378364
-2.391012436102846
-2.3971669082678284
-2.3971669082678284
-2.3971669082678284
-2.391012436102846
-2.391012436102846
-2.3971669082678284
-2.3971669082678284
-2.4402482134228407
-2.4402482134228407
-2.4156303247628297
-2.409475852597848
-2.409475852597848
-2.3971669082678284
-2.409475852597848
-2.3971669082678284
-2.391012436102846
-2.391012436102846
-2.403321380432838
-2.372549019607845
-2.378703491772827
-2.378703491772827
-2.3663945474428347
-2.372549019607845
-2.378703491772827
-2.378703491772827
-2.372549019607845
-2.378703491772827
-2.378703491772827
-2.372549019607845
-2.3848579639378364
-2.3848579639378364
-2.3848579639378364
-2.391012436102846
-2.3848579639378364
-2.3848579639378364
-2.403321380432838
-2.403321380432838
-2.403321380432838
-2.403321380432838
-2.3971669082678284
-2.3971669082678284
-2.3971669082678284
-2.391012436102846
-2.3971669082678284
-2.3971669082678284
-2.403321380432838
-2.3971669082678284
-2.403321380432838
-2.3971669082678284
-2.391012436102846
-2.3971669082678284
-2.391012436102846
-2.3971669082678284
-2.3971669082678284
-2.3971669082678284
-2.403321380432838
-2.3971669082678284
-2.409475852597848
-2.409475852597848
-2.403321380432838
-2.403321380432838
-2.403321380432838
-2.403321380432838
-2.403321380432838
-2.403321380432838
-2.3971669082678284
-2.3971669082678284
-2.403321380432838
-2.409475852597848
-2.5694921288878514
-2.501792935072855
-2.501792935072855
-2.501792935072855
-2.507947407237865
-2.520256351567857
-2.1448335495027893
-1.9601993845527748
-2.834134431982911
-2.6433457948678853
-2.6064189618778553
-2.618727906207874
-2.624882378372884
-2.631036850537866
-2.5694921288878514
-2.754126293837894
-2.8525978484779113
-2.575646601052861
-2.526410823732866
-2.495638462907845
-2.483329518577854
-2.483329518577854
-2.249459576307816
-1.5540042216627135
-2.3110042979578305
-2.5141018794028467
-2.581801073217871
-2.6064189618778553
-2.587955545382853
-2.612573434042864
-2.575646601052861
-2.5941100175478624
-2.612573434042864
-2.600264489712873
-2.624882378372884
-2.612573434042864
-2.729508405177883
-3.308028788687994
-2.778744182497905
-2.6371913227028756
-2.6618092113628857
-2.563337656722869
-2.563337656722869
-2.5694921288878514
-2.581801073217871
-2.587955545382853
-2.477175046412844
-2.6064189618778553
-2.600264489712873
-2.55718318455786
-2.538719768062857
-2.600264489712873
-2.655654739197877
-2.5941100175478624
-2.446402685587851
-2.649500267032867
-2.581801073217871
-2.477175046412844
-2.434093741257831
-2.403321380432838
-2.3971669082678284
-2.4279392690928487
-2.3663945474428347
-2.6433457948678853
-2.587955545382853
-2.446402685587851
-2.612573434042864
-2.477175046412844
-2.360240075277825
-2.4587116299178424
-3.1233946237379517
-1.9355814958927628
-2.120215660842805
-2.495638462907845
-2.587955545382853
-2.631036850537866
-2.674118155692878
-2.612573434042864
-2.618727906207874
-2.563337656722869
-2.680272627857888
-2.631036850537866
-2.5325652958978484
-2.520256351567857
-2.471020574247862
-2.4156303247628297
-2.4402482134228407
-2.483329518577854
-2.409475852597848
-2.4648661020828517
-2.4279392690928487
-2.471020574247862
-2.544874240227868
-2.3417766587828237
-2.495638462907845
-2.575646601052861
-2.4587116299178424
-2.4279392690928487
-2.3971669082678284
-2.372549019607845
-2.3971669082678284
-1.0554919762976458
-2.5941100175478624
-3.3141832608529764
-2.5694921288878514
-2.471020574247862
-2.4279392690928487
-2.077134355687793
-1.6709391927977324
-2.009435161872797
-2.409475852597848
-2.4217847969278394
-2.4217847969278394
-2.446402685587851
-2.471020574247862
-2.446402685587851
-2.4279392690928487
-2.3663945474428347
-2.631036850537866
-2.5325652958978484
-2.483329518577854
-2.711044988682881
-3.394191398997992
-2.772589710332896
-2.5141018794028467
-2.3110042979578305
-2.5141018794028467
-2.4525571577528327
-1.9848172732127856
-1.5724676381577152
-3.184939345387966
-2.729508405177883
-2.667963683527869
-2.9879962361079313
-3.2711019556979917
-2.821825487652891
-2.7418173495078744
-2.766435238167886
-2.6433457948678853
-2.575646601052861
-2.483329518577854
-2.483329518577854
-2.649500267032867
-2.5941100175478624
-2.6433457948678853
-2.723353933012873
-2.7848986546628876
-2.877215737137895
-2.821825487652891
-2.8402889041478923
-2.858752320642893
-2.9202970422929075
-2.7418173495078744
-2.5694921288878514
-2.4402482134228407
-2.335622186617841
-2.187914854657802
-2.2063782711528033
-2.2925408814628288
-2.378703491772827
-2.4217847969278394
-2.520256351567857
-2.649500267032867
-2.754126293837894
-2.624882378372884
-3.1233946237379517
-3.049540957757918
-2.9633783474479203
-2.871061264972913
-2.760280766002876
-2.587955545382853
-2.446402685587851
-2.261768520637808
-2.304849825792821
-2.187914854657802
-2.1694514381628007
-2.1694514381628007
-2.2186872154828228
-1.6955570814577436
-1.8801912464077586
-2.409475852597848
-2.6618092113628857
-2.68642710002287
-2.680272627857888
-2.649500267032867
-2.55718318455786
-2.446402685587851
-2.2802319371328093
-2.138679077337807
-2.2063782711528033
-2.114061188677796
-2.3110042979578305
-3.492662953638009
-2.2309961598128147
-2.114061188677796
-2.4402482134228407
-2.5141018794028467
-2.6925815721878803
-2.6433457948678853
-2.631036850537866
-2.612573434042864
-2.520256351567857
-2.4525571577528327
-2.335622186617841
-2.4217847969278394
-2.581801073217871
-2.544874240227868
-2.723353933012873
-2.723353933012873
-2.723353933012873
-2.711044988682881
-2.6371913227028756
-2.7171994608478913
-2.7171994608478913
-2.600264489712873
-2.4894839907428636
-2.477175046412844
-2.409475852597848
-2.378703491772827
-2.3663945474428347
-2.495638462907845
-2.858752320642893
-2.68642710002287
-2.544874240227868
-2.526410823732866
-2.538719768062857
-2.471020574247862
-2.323313242287821
-2.495638462907845
-2.4894839907428636
-2.4648661020828517
-2.5141018794028467
-2.55102871239285
-2.563337656722869
-2.3540856031128428
-2.0586709391927913
-2.4402482134228407
-2.3417766587828237
-2.3663945474428347
-2.335622186617841
-2.347931130947833
-2.360240075277825
-2.2925408814628288
-2.200223798987821
-2.477175046412844
-2.446402685587851
-2.4402482134228407
-2.477175046412844
-2.3848579639378364
-2.391012436102846
-1.990971745377768
-1.510922916507701
-2.612573434042864
-2.2740774649678275
-2.2433051041428067
-2.261768520637808
-2.298695353627811
-2.3110042979578305
-2.347931130947833
-2.747971821672884
-2.754126293837894
-2.4894839907428636
-2.4402482134228407
-2.403321380432838
-2.538719768062857
-2.446402685587851
-2.378703491772827
-2.378703491772827
-2.483329518577854
-2.4217847969278394
-2.446402685587851
-2.4279392690928487
-2.409475852597848
-2.409475852597848
-2.3540856031128428
-2.335622186617841
-2.304849825792821
-2.2433051041428067
-2.3971669082678284
-2.3110042979578305
-2.347931130947833
-2.347931130947833
-2.2371506319778245
-2.471020574247862
-2.526410823732866
-2.4894839907428636
-2.520256351567857
-2.477175046412844
-2.4156303247628297
-2.3848579639378364
-2.2925408814628288
-2.255614048472826
-2.4402482134228407
-2.3663945474428347
-2.360240075277825
-2.3848579639378364
-2.3663945474428347
-2.3417766587828237
-2.2802319371328093
-2.5325652958978484
-2.483329518577854
-2.4525571577528327
-2.4402482134228407
-2.4648661020828517
-2.477175046412844
-2.3540856031128428
-2.3417766587828237
-2.4894839907428636
-2.3663945474428347
-2.347931130947833
-2.3171587701228398
-2.304849825792821
-2.3171587701228398
-2.2740774649678275
-1.9048091350677696
-2.7418173495078744
-1.5970855268177266
-2.1079067165127863
-2.298695353627811
-2.2371506319778245
-2.446402685587851
-2.347931130947833
-2.7418173495078744
-2.6618092113628857
-2.403321380432838
-2.403321380432838
-2.434093741257831
-2.4402482134228407
-2.446402685587851
-2.378703491772827
-2.526410823732866
-2.575646601052861
-2.520256351567857
-2.495638462907845
-2.735662877342893
-2.495638462907845
-2.360240075277825
-2.212532743317813
-2.3110042979578305
-2.3171587701228398
-2.3110042979578305
-2.323313242287821
-2.3417766587828237
-2.3848579639378364
-2.391012436102846
-2.286386409297819
-2.501792935072855
-2.2802319371328093
-2.077134355687793
-2.2925408814628288
-2.323313242287821
-2.329467714452832
-2.298695353627811
-2.1694514381628007
-2.4156303247628297
-2.3417766587828237
-2.329467714452832
-2.323313242287821
-2.286386409297819
-2.2740774649678275
-2.175605910327811
-1.9848172732127856
-2.015589634037779
-2.187914854657802
-2.187914854657802
-2.347931130947833
-2.2802319371328093
-2.3848579639378364
-2.434093741257831
-2.4587116299178424
-2.7171994608478913
-2.711044988682881
-2.2309961598128147
-1.8371099412527454
-2.9510694031179288
-2.446402685587851
-2.335622186617841
-2.797207598992907
-2.6433457948678853
-2.304849825792821
-2.2740774649678275
-2.304849825792821
-2.335622186617841
-2.3663945474428347
-2.323313242287821
-2.3971669082678284
-2.4587116299178424
-2.409475852597848
-2.477175046412844
-2.471020574247862
-2.495638462907845
-2.544874240227868
-2.3848579639378364
-2.471020574247862
-2.477175046412844
-2.403321380432838
-2.403321380432838
-2.391012436102846
-2.360240075277825
-2.335622186617841
-2.2063782711528033
-2.4402482134228407
-2.409475852597848
-2.409475852597848
-2.298695353627811
-2.5325652958978484
-2.526410823732866
-2.495638462907845
-2.378703491772827
-2.655654739197877
-2.618727906207874
-2.575646601052861
-2.5325652958978484
-2.501792935072855
-2.471020574247862
-2.409475852597848
-2.2925408814628288
-2.501792935072855
-2.187914854657802
-2.360240075277825
-2.360240075277825
-2.329467714452832
-2.347931130947833
-2.3110042979578305
-2.261768520637808
-2.5325652958978484
-2.477175046412844
-2.477175046412844
-2.4587116299178424
-2.507947407237865
-2.507947407237865
-2.4279392690928487
-2.3110042979578305
-2.471020574247862
-2.3540856031128428
-2.378703491772827
-3.0126141247679152
-1.6647847206327224
-1.892500190737778
-2.0955977721827947
-2.200223798987821
-2.360240075277825
-2.2925408814628288
-2.261768520637808
-2.286386409297819
-2.329467714452832
-2.3417766587828237
-2.3971669082678284
-2.4156303247628297
-2.391012436102846
-2.298695353627811
-2.3110042979578305
-2.360240075277825
-2.4156303247628297
-2.4648661020828517
-2.3417766587828237
-2.55718318455786
-2.520256351567857
-2.4894839907428636
-2.4894839907428636
-2.378703491772827
-2.3417766587828237
-2.495638462907845
-2.378703491772827
-2.5941100175478624
-2.483329518577854
-2.483329518577854
-2.4587116299178424
-2.4279392690928487
-2.4156303247628297
-2.3971669082678284
-2.2433051041428067
-2.538719768062857
-2.4648661020828517
-2.335622186617841
-2.187914854657802
-2.4525571577528327
-2.446402685587851
-2.347931130947833
-2.2309961598128147
-2.2802319371328093
-2.120215660842805
-2.009435161872797
-1.972508328882766
-1.9601993845527748
-1.954044912387765
-1.9478904402227823
-1.9355814958927628
-1.9294270237277809
-1.9048091350677696
-1.8678823020777668
-1.855573357747775
-1.849418885582765
-1.855573357747775
-1.9048091350677696
-2.015589634037779
-1.990971745377768
-2.0586709391927913
-2.083288827852803
-2.1017522443478045
-2.114061188677796
-2.1263701330077875
-2.120215660842805
-2.1325246051727973
-2.1079067165127863
-2.089443300017785
-2.077134355687793
-2.070979883522784
-2.070979883522784
-2.077134355687793
-2.077134355687793
-2.077134355687793
-2.083288827852803
-2.077134355687793
-2.077134355687793
-2.077134355687793
-2.083288827852803
-2.083288827852803
-2.089443300017785
-2.1017522443478045
-2.089443300017785
-2.089443300017785
-2.1017522443478045
-2.1079067165127863
-2.1079067165127863
-2.114061188677796
-2.120215660842805
-2.120215660842805
-2.120215660842805
-2.120215660842805
-2.120215660842805
-2.114061188677796
-2.1017522443478045
-2.120215660842805
-2.120215660842805
-2.1263701330077875
-2.1263701330077875
-2.120215660842805
-2.1263701330077875
-2.1325246051727973
-2.1325246051727973
-2.1325246051727973
-2.138679077337807
-2.1263701330077875
-2.120215660842805
-2.1263701330077875
-2.1325246051727973
-2.1263701330077875
-2.114061188677796
-2.114061188677796
-2.1079067165127863
-2.1079067165127863
-2.1017522443478045
-2.1079067165127863
-2.1079067165127863
-2.0955977721827947
-2.1017522443478045
-2.1079067165127863
-2.1263701330077875
-2.1079067165127863
-2.077134355687793
-2.1017522443478045
-2.1263701330077875
-2.1448335495027893
-2.1694514381628007
-2.1571424938328088
-2.187914854657802
-2.2186872154828228
-2.2186872154828228
-2.2309961598128147
-2.2371506319778245
-2.249459576307816
-2.255614048472826
-2.2679229928028177
-2.3110042979578305
-2.304849825792821
-2.2925408814628288
-2.286386409297819
-2.2740774649678275
-2.2740774649678275
-2.2740774649678275
-2.2740774649678275
-2.2802319371328093
-2.2802319371328093
-2.2802319371328093
-2.286386409297819
-2.286386409297819
-2.2802319371328093
-2.2740774649678275
-2.2802319371328093
-2.2802319371328093
-2.2740774649678275
-2.286386409297819
-2.2802319371328093
-2.286386409297819
-2.2802319371328093
-2.286386409297819
-2.286386409297819
-2.286386409297819
-2.2925408814628288
-2.2802319371328093
-2.286386409297819
-2.2925408814628288
-2.304849825792821
-2.2925408814628288
-2.2925408814628288
-2.298695353627811
-2.2925408814628288
-2.2925408814628288
-2.286386409297819
-2.286386409297819
-2.286386409297819
-2.298695353627811
-2.298695353627811
-2.2925408814628288
-2.2925408814628288
-2.304849825792821
-2.378703491772827
-2.2925408814628288
-2.286386409297819
-2.298695353627811
-2.3540856031128428
-2.347931130947833
-2.323313242287821
-2.323313242287821
-2.3110042979578305
-2.3171587701228398
-2.3110042979578305
-2.335622186617841
-2.3971669082678284
-2.298695353627811
-2.286386409297819
-2.298695353627811
-2.3110042979578305
-2.3110042979578305
-2.323313242287821
-2.335622186617841
-2.378703491772827
-2.3540856031128428
-2.3417766587828237
-2.335622186617841
-2.335622186617841
-2.329467714452832
-2.323313242287821
-2.3171587701228398
-2.3171587701228398
-2.329467714452832
-2.329467714452832
-2.323313242287821
-2.335622186617841
-2.335622186617841
-2.329467714452832
-2.323313242287821
-2.329467714452832
-2.335622186617841
-2.3417766587828237
-2.3417766587828237
-2.329467714452832
-2.329467714452832
-2.335622186617841
-2.3417766587828237
-2.3540856031128428
-2.3540856031128428
-2.347931130947833
-2.3417766587828237
-2.3417766587828237
-2.347931130947833
-2.347931130947833
-2.3417766587828237
-2.347931130947833
-2.3417766587828237
-2.3417766587828237
-2.3417766587828237
-2.347931130947833
-2.347931130947833
-2.3417766587828237
-2.347931130947833
-2.335622186617841
-2.3417766587828237
-2.3417766587828237
-2.335622186617841
-2.335622186617841
-2.335622186617841
-2.335622186617841
-2.347931130947833
-2.347931130947833
-2.335622186617841
-2.3417766587828237
-2.3540856031128428
-2.3417766587828237
-2.347931130947833
-2.360240075277825
-2.372549019607845
-2.329467714452832
-2.347931130947833
-2.3540856031128428
-2.360240075277825
-2.347931130947833
-2.360240075277825
-2.347931130947833
-2.3540856031128428
-2.3540856031128428
-2.360240075277825
-2.360240075277825
-2.3540856031128428
-2.3540856031128428
-2.360240075277825
-2.3663945474428347
-2.360240075277825
-2.3540856031128428
-2.3417766587828237
-2.3171587701228398
-2.286386409297819
-2.249459576307816
-2.224841687647805
-2.212532743317813
-2.2186872154828228
-2.255614048472826
-2.3110042979578305
-2.3848579639378364
-2.4402482134228407
-2.446402685587851
-2.4648661020828517
-2.4648661020828517
-2.4525571577528327
-2.4279392690928487
-2.391012436102846
-2.372549019607845
-2.3663945474428347
-2.360240075277825
-2.360240075277825
-2.372549019607845
-2.3663945474428347
-2.3663945474428347
-2.360240075277825
-2.360240075277825
-2.3540856031128428
-2.3540856031128428
-2.378703491772827
-2.4402482134228407
-2.335622186617841
-2.323313242287821
-2.335622186617841
-2.329467714452832
-2.3417766587828237
-2.347931130947833
-2.360240075277825
-2.409475852597848
-2.391012436102846
-2.3663945474428347
-2.3540856031128428
-2.347931130947833
-2.347931130947833
-2.3417766587828237
-2.3417766587828237
-2.3417766587828237
-2.347931130947833
-2.335622186617841
-2.3417766587828237
-2.335622186617841
-2.335622186617841
-2.329467714452832
-2.329467714452832
-2.323313242287821
-2.3171587701228398
-2.3110042979578305
-2.3110042979578305
-2.304849825792821
-2.304849825792821
-2.298695353627811
-2.286386409297819
-2.2802319371328093
-2.2802319371328093
-2.286386409297819
-2.2802319371328093
-2.2802319371328093
-2.2679229928028177
-2.2740774649678275
-2.2740774649678275
-2.2740774649678275
-2.2740774649678275
-2.2802319371328093
-2.2802319371328093
-2.2925408814628288
-2.304849825792821
-2.304849825792821
-2.3171587701228398
-2.323313242287821
-2.329467714452832
-2.347931130947833
-2.3540856031128428
-2.3663945474428347
-2.372549019607845
-2.3848579639378364
-2.3971669082678284
-2.391012436102846
-2.391012436102846
-2.3971669082678284
-2.403321380432838
-2.403321380432838
-2.4156303247628297
-2.4279392690928487
-2.4279392690928487
-2.3971669082678284
-2.409475852597848
-2.403321380432838
-2.403321380432838
-2.403321380432838
-2.403321380432838
-2.403321380432838
-2.403321380432838
-2.403321380432838
-2.3971669082678284
-2.3971669082678284
-2.378703491772827
-2.378703491772827
-2.378703491772827
-2.3848579639378364
-2.3848579639378364
-2.378703491772827
-2.3848579639378364
-2.3848579639378364
-2.391012436102846
-2.3848579639378364
-2.3848579639378364
-2.3971669082678284
-2.391012436102846
-2.3848579639378364
-2.391012436102846
-2.409475852597848
-2.391012436102846
-2.3848579639378364
-2.391012436102846
-2.391012436102846
-2.3848579639378364
-2.378703491772827
-2.3848579639378364
-2.372549019607845
-2.372549019607845
-2.3848579639378364
-2.372549019607845
-2.378703491772827
-2.3663945474428347
-2.360240075277825
-2.3663945474428347
-2.3663945474428347
-2.3663945474428347
-2.372549019607845
-2.378703491772827
-2.391012436102846
-2.378703491772827
-2.3848579639378364
-2.378703491772827
-2.3848579639378364
-2.3848579639378364
-2.378703491772827
-2.360240075277825
-2.360240075277825
-2.3848579639378364
-2.378703491772827
-2.391012436102846
-2.4279392690928487
-2.372549019607845
-2.360240075277825
-2.3848579639378364
-2.4402482134228407
-2.4156303247628297
-2.403321380432838
-2.403321380432838
-2.391012436102846
-2.3971669082678284
-2.4402482134228407
-2.4156303247628297
-2.403321380432838
-2.3971669082678284
-2.391012436102846
-2.3848579639378364
-2.391012436102846
-2.3848579639378364
-2.391012436102846
-2.3971669082678284
-2.378703491772827
-2.3848579639378364
-2.378703491772827
-2.378703491772827
-2.3663945474428347
-2.372549019607845
-2.378703491772827
-2.3848579639378364
-2.378703491772827
-2.3848579639378364
-2.3848579639378364
-2.3848579639378364
-2.378703491772827
-2.378703491772827
-2.372549019607845
-2.372549019607845
-2.372549019607845
-2.3663945474428347
-2.3663945474428347
-2.3663945474428347
-2.3663945474428347
-2.360240075277825
-2.360240075277825
-2.3663945474428347
-2.372549019607845
-2.3663945474428347
-2.3663945474428347
-2.372549019607845
-2.372549019607845
-2.3663945474428347
-2.378703491772827
-2.378703491772827
-2.3663945474428347
-2.3848579639378364
-2.372549019607845
-2.378703491772827
-2.378703491772827
-2.372549019607845
-2.372549019607845
-2.372549019607845
-2.378703491772827
-2.378703491772827
-2.3848579639378364
-2.391012436102846
-2.360240075277825
-2.3663945474428347
-2.378703491772827
-2.3848579639378364
-2.372549019607845
-2.3663945474428347
-2.360240075277825
-2.3540856031128428
-2.329467714452832
-2.2925408814628288
-2.255614048472826
-2.2309961598128147
-2.2186872154828228
-2.224841687647805
-2.261768520637808
-2.323313242287821
-2.3848579639378364
-2.4279392690928487
-2.495638462907845
-2.4648661020828517
-2.434093741257831
-2.4402482134228407
-2.4279392690928487
-2.3971669082678284
-2.3848579639378364
-2.372549019607845
-2.409475852597848
-2.409475852597848
-2.391012436102846
-2.378703491772827
-2.3663945474428347
-2.3663945474428347
-2.3663945474428347
-2.372549019607845
-2.3663945474428347
-2.372549019607845
-2.360240075277825
-2.3663945474428347
-2.372549019607845
-2.372549019607845
-2.372549019607845
-2.372549019607845
-2.372549019607845
-2.372549019607845
-2.3540856031128428
-2.360240075277825
-2.3663945474428347
-2.3663945474428347
-2.360240075277825
-2.360240075277825
-2.360240075277825
-2.360240075277825
-2.3540856031128428
-2.3540856031128428
-2.3417766587828237
-2.347931130947833
-2.3417766587828237
-2.360240075277825
-2.391012436102846
-2.323313242287821
-2.3110042979578305
-2.3110042979578305
-2.3110042979578305
-2.3110042979578305
-2.304849825792821
-2.3171587701228398
-2.3417766587828237
-2.3171587701228398
-2.3110042979578305
-2.286386409297819
-2.2802319371328093
-2.2802319371328093
-2.2679229928028177
-2.2740774649678275
-2.2740774649678275
-2.2679229928028177
-2.2679229928028177
-2.2679229928028177
-2.2740774649678275
-2.2802319371328093
-2.2925408814628288
-2.304849825792821
-2.304849825792821
-2.323313242287821
-2.323313242287821
-2.3417766587828237
-2.347931130947833
-2.3540856031128428
-2.3663945474428347
-2.378703491772827
-2.378703491772827
-2.372549019607845
-2.378703491772827
-2.391012436102846
-2.391012436102846
-2.391012436102846
-2.3848579639378364
-2.391012436102846
-2.391012436102846
-2.391012436102846
-2.391012436102846
-2.3848579639378364
-2.3848579639378364
-2.391012436102846
-2.3848579639378364
-2.391012436102846
-2.3848579639378364
-2.391012436102846
-2.391012436102846
-2.391012436102846
-2.3848579639378364
-2.391012436102846
-2.391012436102846
-2.391012436102846
-2.3848579639378364
-2.372549019607845
-2.3848579639378364
-2.378703491772827
-2.3848579639378364
-2.378703491772827
-2.378703491772827
-2.391012436102846
-2.3663945474428347
-2.372549019607845
-2.372549019607845
-2.372549019607845
-2.360240075277825
-2.3663945474428347
-2.3663945474428347
-2.360240075277825
-2.360240075277825
-2.3663945474428347
-2.360240075277825
-2.3663945474428347
-2.3663945474428347
-2.360240075277825
-2.360240075277825
-2.360240075277825
-2.360240075277825
-2.372549019607845
-2.372549019607845
-2.3663945474428347
-2.3663945474428347
-2.360240075277825
-2.3663945474428347
-2.372549019607845
-2.372549019607845
-2.3663945474428347
-2.3663945474428347
-2.372549019607845
-2.3663945474428347
-2.3663945474428347
-2.372549019607845
-2.372549019607845
-2.372549019607845
-2.3663945474428347
-2.372549019607845
-2.360240075277825
-2.3663945474428347
-2.378703491772827
-2.378703491772827
-2.3663945474428347
-2.372549019607845
-2.3663945474428347
-2.3663945474428347
-2.372549019607845
-2.3663945474428347
-2.372549019607845
-2.378703491772827
-2.372549019607845
-2.3663945474428347
-2.3663945474428347
-2.3663945474428347
-2.3663945474428347
-2.3663945474428347
-2.372549019607845
-2.378703491772827
-2.372549019607845
-2.3663945474428347
-2.3848579639378364
-2.4402482134228407
-2.3540856031128428
-2.347931130947833
-2.3848579639378364
-2.409475852597848
-2.3848579639378364
-2.378703491772827
-2.378703491772827
-2.372549019607845
-2.372549019607845
-2.360240075277825
-2.3663945474428347
-2.3663945474428347
-2.372549019607845
-2.360240075277825
-2.3540856031128428
-2.360240075277825
-2.3540856031128428
-2.3663945474428347
-2.360240075277825
-2.360240075277825
-2.360240075277825
-2.360240075277825
-2.360240075277825
-2.360240075277825
-2.372549019607845
-2.378703491772827
-2.378703491772827
-2.378703491772827
-2.378703491772827
-2.378703491772827
-2.372549019607845
-2.372549019607845
-2.378703491772827
-2.372549019607845
-2.3971669082678284
-2.391012436102846
-2.3848579639378364
-2.378703491772827
-2.372549019607845
-2.3663945474428347
-2.3663945474428347
-2.372549019607845
-2.3663945474428347
-2.360240075277825
-2.347931130947833
-2.329467714452832
-2.2925408814628288
-2.249459576307816
-2.2309961598128147
-2.2371506319778245
-2.2371506319778245
-2.261768520637808
-2.3171587701228398
-2.3848579639378364
-2.434093741257831
-2.446402685587851
-2.4587116299178424
-2.4648661020828517
-2.471020574247862
-2.446402685587851
-2.4156303247628297
-2.3848579639378364
-2.3848579639378364
-2.3663945474428347
-2.3663945474428347
-2.3663945474428347
-2.3663945474428347
-2.360240075277825
-2.360240075277825
-2.360240075277825
-2.3540856031128428
-2.347931130947833
-2.3540856031128428
-2.360240075277825
-2.3540856031128428
-2.3417766587828237
-2.3417766587828237
-2.3417766587828237
-2.3417766587828237
-2.3417766587828237
-2.3417766587828237
-2.3417766587828237
-2.347931130947833
-2.3417766587828237
-2.3417766587828237
-2.329467714452832
-2.3417766587828237
-2.3417766587828237
-2.335622186617841
-2.323313242287821
-2.298695353627811
-2.298695353627811
-2.304849825792821
-2.3110042979578305
-2.3171587701228398
-2.3171587701228398
-2.3110042979578305
-2.3171587701228398
-2.3110042979578305
-2.3110042979578305
-2.298695353627811
-2.298695353627811
-2.286386409297819
-2.2925408814628288
-2.3110042979578305
-2.304849825792821
-2.2925408814628288
-2.2802319371328093
-2.2740774649678275
-2.2740774649678275
-2.2679229928028177
-2.2679229928028177
-2.261768520637808
-2.2679229928028177
-2.261768520637808
-2.261768520637808
-2.2679229928028177
-2.2740774649678275
-2.2740774649678275
-2.298695353627811
-2.329467714452832
-2.3663945474428347
-2.3110042979578305
-2.3171587701228398
-2.335622186617841
-2.3417766587828237
-2.3540856031128428
-2.3540856031128428
-2.391012436102846
-2.4217847969278394
-2.403321380432838
-2.391012436102846
-2.391012436102846
-2.3971669082678284
-2.3971669082678284
-2.3971669082678284
-2.403321380432838
-2.409475852597848
-2.3971669082678284
-2.391012436102846
-2.3971669082678284
-2.3848579639378364
-2.3971669082678284
-2.391012436102846
-2.403321380432838
-2.391012436102846
-2.391012436102846
-2.391012436102846
-2.3971669082678284
-2.391012436102846
-2.3848579639378364
-2.3971669082678284
-2.4648661020828517
-2.372549019607845
-2.347931130947833
-2.3663945474428347
-2.378703491772827
-2.372549019607845
-2.3848579639378364
-2.3971669082678284
-2.434093741257831
-2.4217847969278394
-2.409475852597848
-2.403321380432838
-2.3971669082678284
-2.3848579639378364
-2.3848579639378364
-2.3971669082678284
-2.391012436102846
-2.3848579639378364
-2.378703491772827
-2.3848579639378364
-2.378703491772827
-2.378703491772827
-2.378703491772827
-2.3848579639378364
-2.391012436102846
-2.391012436102846
-2.3848579639378364
-2.391012436102846
-2.3848579639378364
-2.3848579639378364
-2.3848579639378364
-2.391012436102846
-2.3848579639378364
-2.3848579639378364
-2.3848579639378364
-2.3848579639378364
-2.378703491772827
-2.378703491772827
-2.378703491772827
-2.391012436102846
-2.3848579639378364
-2.391012436102846
-2.3848579639378364
-2.3848579639378364
-2.378703491772827
-2.3848579639378364
-2.378703491772827
-2.378703491772827
-2.372549019607845
-2.372549019607845
-2.372549019607845
-2.3848579639378364
-2.3848579639378364
-2.3848579639378364
-2.378703491772827
-2.391012436102846
-2.3848579639378364
-2.378703491772827
-2.378703491772827
-2.378703491772827
-2.378703491772827
-2.378703491772827
-2.360240075277825
-2.378703491772827
-2.372549019607845
-2.372549019607845
-2.391012436102846
-2.378703491772827
-2.3848579639378364
-2.372549019607845
-2.378703491772827
-2.3848579639378364
-2.372549019607845
-2.378703491772827
-2.372549019607845
-2.372549019607845
-2.372549019607845
-2.378703491772827
-2.378703491772827
-2.372549019607845
-2.372549019607845
-2.378703491772827
-2.372549019607845
-2.372549019607845
-2.3663945474428347
-2.360240075277825
-2.372549019607845
-2.360240075277825
-2.360240075277825
-2.360240075277825
-2.372549019607845
-2.434093741257831
-2.347931130947833
-2.329467714452832
-2.378703491772827
-2.3971669082678284
-2.391012436102846
-2.378703491772827
-2.378703491772827
-2.372549019607845
-2.3848579639378364
-2.378703491772827
-2.3848579639378364
-2.391012436102846
-2.378703491772827
-2.378703491772827
-2.3848579639378364
-2.378703491772827
-2.3848579639378364
-2.3971669082678284
-2.3971669082678284
-2.391012436102846
-2.391012436102846
-2.3848579639378364
-2.3848579639378364
-2.378703491772827
-2.391012436102846
-2.3848579639378364
-2.391012436102846
-2.391012436102846
-2.3971669082678284
-2.391012436102846
-2.3971669082678284
-2.3848579639378364
-2.3848579639378364
-2.378703491772827
-2.3540856031128428
-2.3110042979578305
-2.2679229928028177
-2.249459576307816
-2.2371506319778245
-2.2371506319778245
-2.286386409297819
-2.347931130947833
-2.434093741257831
-2.471020574247862
-2.4648661020828517
-2.477175046412844
-2.4894839907428636
-2.483329518577854
-2.4525571577528327
-2.4279392690928487
-2.4156303247628297
-2.409475852597848
-2.409475852597848
-2.403321380432838
-2.3971669082678284
-2.403321380432838
-2.3971669082678284
-2.4217847969278394
-2.4156303247628297
-2.409475852597848
-2.409475852597848
-2.409475852597848
-2.4156303247628297
-2.3971669082678284
-2.403321380432838
-2.4156303247628297
-2.409475852597848
-2.403321380432838
-2.403321380432838
-2.3971669082678284
-2.403321380432838
-2.409475852597848
-2.4156303247628297
-2.4156303247628297
-2.409475852597848
-2.403321380432838
-2.3971669082678284
-2.3971669082678284
-2.3971669082678284
-2.3971669082678284
-2.391012436102846
-2.391012436102846
-2.378703491772827
-2.3848579639378364
-2.372549019607845
-2.372549019607845
-2.360240075277825
-2.360240075277825
-2.3540856031128428
-2.3540856031128428
-2.347931130947833
-2.3417766587828237
-2.3417766587828237
-2.323313242287821
-2.3171587701228398
-2.3171587701228398
-2.3110042979578305
-2.3110042979578305
-2.304849825792821
-2.304849825792821
-2.304849825792821
-2.3171587701228398
-2.3110042979578305
-2.3110042979578305
-2.3171587701228398
-2.323313242287821
-2.3171587701228398
-2.335622186617841
-2.335622186617841
-2.347931130947833
-2.360240075277825
-2.360240075277825
-2.3848579639378364
-2.391012436102846
-2.391012436102846
-2.409475852597848
-2.4156303247628297
-2.4156303247628297
-2.4156303247628297
-2.4217847969278394
-2.4402482134228407
-2.483329518577854
-2.4217847969278394
-2.4156303247628297
-2.4156303247628297
-2.4279392690928487
-2.434093741257831
-2.434093741257831
-2.477175046412844
-2.477175046412844
-2.4587116299178424
-2.4525571577528327
-2.4402482134228407
-2.434093741257831
-2.434093741257831
-2.4217847969278394
-2.4279392690928487
-2.434093741257831
-2.4217847969278394
-2.4156303247628297
-2.4217847969278394
-2.409475852597848
-2.409475852597848
-2.4156303247628297
-2.4217847969278394
-2.409475852597848
-2.409475852597848
-2.403321380432838
-2.3971669082678284
-2.403321380432838
-2.3971669082678284
-2.3971669082678284
-2.403321380432838
-2.3971669082678284
-2.3971669082678284
-2.403321380432838
-2.3848579639378364
-2.3971669082678284
-2.3971669082678284
-2.403321380432838
-2.3971669082678284
-2.403321380432838
-2.3971669082678284
-2.3971669082678284
-2.3971669082678284
-2.391012436102846
-2.3848579639378364
-2.3848579639378364
-2.3848579639378364
-2.3848579639378364
-2.378703491772827
-2.378703491772827
-2.378703491772827
-2.3848579639378364
-2.3848579639378364
-2.3971669082678284
-2.3848579639378364
-2.378703491772827
-2.3848579639378364
-2.3848579639378364
-2.378703491772827
-2.3848579639378364
-2.3848579639378364
-2.3971669082678284
-2.403321380432838
-2.3848579639378364
-2.391012436102846
-2.3848579639378364
-2.391012436102846
-2.3848579639378364
-2.3848579639378364
-2.391012436102846
-2.3848579639378364
-2.391012436102846
-2.3848579639378364
-2.3848579639378364
-2.378703491772827
-2.378703491772827
-2.378703491772827
-2.391012436102846
-2.378703491772827
-2.378703491772827
-2.378703491772827
-2.372549019607845
-2.372549019607845
-2.372549019607845
-2.3663945474428347
-2.372549019607845
-2.3663945474428347
-2.372549019607845
-2.372549019607845
-2.372549019607845
-2.3663945474428347
-2.360240075277825
-2.3663945474428347
-2.3663945474428347
-2.3540856031128428
-2.3540856031128428
-2.3540856031128428
-2.347931130947833
-2.3540856031128428
-2.3540856031128428
-2.3971669082678284
-2.378703491772827
-2.323313242287821
-2.323313242287821
-2.329467714452832
-2.329467714452832
-2.335622186617841
-2.335622186617841
-2.372549019607845
-2.3971669082678284
-2.3663945474428347
-2.3540856031128428
-2.347931130947833
-2.3540856031128428
-2.347931130947833
-2.360240075277825
-2.360240075277825
-2.3540856031128428
-2.347931130947833
-2.3417766587828237
-2.360240075277825
-2.4156303247628297
-2.335622186617841
-2.335622186617841
-2.3848579639378364
-2.3848579639378364
-2.3663945474428347
-2.3663945474428347
-2.3663945474428347
-2.360240075277825
-2.3663945474428347
-2.372549019607845
-2.378703491772827
-2.360240075277825
-2.372549019607845
-2.372549019607845
-2.372549019607845
-2.372549019607845
-2.3663945474428347
-2.3663945474428347
-2.3663945474428347
-2.360240075277825
-2.3540856031128428
-2.3540856031128428
-2.3663945474428347
-2.360240075277825
-2.360240075277825
-2.360240075277825
-2.323313242287821
-2.323313242287821
-2.323313242287821
-2.2925408814628288
-2.255614048472826
-2.2186872154828228
-2.187914854657802
-2.175605910327811
-2.194069326822812
-2.2371506319778245
-2.3171587701228398
-2.403321380432838
-2.4587116299178424
-2.477175046412844
-2.507947407237865
-2.495638462907845
-2.4648661020828517
-2.4156303247628297
-2.391012436102846
-2.3848579639378364
-2.372549019607845
-2.3663945474428347
-2.372549019607845
-2.378703491772827
-2.372549019607845
-2.3663945474428347
-2.360240075277825
-2.360240075277825
-2.360240075277825
-2.3540856031128428
-2.3540856031128428
-2.3663945474428347
-2.347931130947833
-2.3540856031128428
-2.347931130947833
-2.347931130947833
-2.3663945474428347
-2.335622186617841
-2.347931130947833
-2.3417766587828237
-2.3417766587828237
-2.3417766587828237
-2.335622186617841
-2.3417766587828237
-2.3417766587828237
-2.335622186617841
-2.335622186617841
-2.3417766587828237
-2.335622186617841
-2.323313242287821
-2.323313242287821
-2.329467714452832
-2.3171587701228398
-2.3171587701228398
-2.3171587701228398
-2.3171587701228398
-2.286386409297819
-2.286386409297819
-2.286386409297819
-2.286386409297819
-2.2802319371328093
-2.2679229928028177
-2.2679229928028177
-2.2740774649678275
-2.261768520637808
-2.255614048472826
-2.249459576307816
-2.255614048472826
-2.249459576307816
-2.2433051041428067
-2.255614048472826
-2.2679229928028177
-2.261768520637808
-2.261768520637808
-2.261768520637808
-2.2679229928028177
-2.2740774649678275
-2.2802319371328093
-2.2925408814628288
-2.304849825792821
-2.3171587701228398
-2.329467714452832
-2.335622186617841
-2.335622186617841
-2.347931130947833
-2.360240075277825
-2.3663945474428347
-2.378703491772827
-2.378703491772827
-2.378703491772827
-2.3848579639378364
-2.391012436102846
-2.3848579639378364
-2.3971669082678284
-2.4156303247628297
-2.4587116299178424
-2.3663945474428347
-2.3663945474428347
-2.3540856031128428
-2.3417766587828237
-2.360240075277825
-2.3848579639378364
-2.4402482134228407
-2.4217847969278394
-2.403321380432838
-2.403321380432838
-2.403321380432838
-2.3971669082678284
-2.3971669082678284
-2.391012436102846
-2.403321380432838
-2.403321380432838
-2.391012436102846
-2.3971669082678284
-2.391012436102846
-2.3848579639378364
-2.3848579639378364
-2.3971669082678284
-2.3971669082678284
-2.391012436102846
-2.3848579639378364
-2.3848579639378364
-2.391012436102846
-2.378703491772827
-2.378703491772827
-2.391012436102846
-2.3848579639378364
-2.4156303247628297
-2.4217847969278394
-2.403321380432838
-2.391012436102846
-2.3971669082678284
-2.391012436102846
-2.3971669082678284
-2.391012436102846
-2.3971669082678284
-2.3971669082678284
-2.391012436102846
-2.391012436102846
-2.3971669082678284
-2.391012436102846
-2.3971669082678284
-2.403321380432838
-2.3971669082678284
-2.403321380432838
-2.3971669082678284
-2.403321380432838
-2.3971669082678284
-2.391012436102846
-2.3971669082678284
-2.3971669082678284
-2.3971669082678284
-2.3971669082678284
-2.391012436102846
-2.3971669082678284
-2.391012436102846
-2.3971669082678284
-2.3971669082678284
-2.403321380432838
-2.378703491772827
-2.3971669082678284
-2.3971669082678284
-2.3971669082678284
-2.391012436102846
-2.378703491772827
-2.391012436102846
-2.409475852597848
-2.403321380432838
-2.403321380432838
-2.391012436102846
-2.391012436102846
-2.3971669082678284
-2.3971669082678284
-2.403321380432838
-2.3971669082678284
-2.3971669082678284
-2.403321380432838
-2.391012436102846
-2.3971669082678284
-2.3971669082678284
-2.391012436102846
-2.3971669082678284
-2.3971669082678284
-2.391012436102846
-2.391012436102846
-2.3971669082678284
-2.403321380432838
-2.3971669082678284
-2.403321380432838
-2.3971669082678284
-2.3971669082678284
-2.3971669082678284
-2.3971669082678284
-2.3848579639378364
-2.3848579639378364
-2.391012436102846
-2.391012436102846
-2.378703491772827
-2.3848579639378364
-2.391012436102846
-2.391012436102846
-2.3848579639378364
-2.3848579639378364
-2.391012436102846
-2.3848579639378364
-2.391012436102846
-2.378703491772827
-2.3848579639378364
-2.378703491772827
-2.378703491772827
-2.3848579639378364
-2.378703491772827
-2.378703491772827
-2.378703491772827
-2.372549019607845
-2.378703491772827
-2.391012436102846
-2.434093741257831
-2.3663945474428347
-2.372549019607845
-2.4217847969278394
-2.403321380432838
-2.403321380432838
-2.391012436102846
-2.3971669082678284
-2.3971669082678284
-2.391012436102846
-2.403321380432838
-2.3971669082678284
-2.3848579639378364
-2.3848579639378364
-2.391012436102846
-2.3848579639378364
-2.391012436102846
-2.378703491772827
-2.3848579639378364
-2.3848579639378364
-2.3848579639378364
-2.378703491772827
-2.378703491772827
-2.391012436102846
-2.3848579639378364
-2.378703491772827
-2.360240075277825
-2.335622186617841
-2.304849825792821
-2.255614048472826
-2.224841687647805
-2.212532743317813
-2.2063782711528033
-2.2433051041428067
-2.3171587701228398
-2.3971669082678284
-2.446402685587851
-2.4587116299178424
-2.471020574247862
-2.477175046412844
-2.471020574247862
-2.4587116299178424
-2.434093741257831
-2.403321380432838
-2.3971669082678284
-2.391012436102846
-2.391012436102846
-2.3848579639378364
-2.378703491772827
-2.378703491772827
-2.446402685587851
-2.372549019607845
-2.323313242287821
-2.347931130947833
-2.3540856031128428
-2.360240075277825
-2.360240075277825
-2.372549019607845
-2.4217847969278394
-2.403321380432838
-2.378703491772827
-2.378703491772827
-2.378703491772827
-2.372549019607845
-2.372549019607845
-2.372549019607845
-2.3663945474428347
-2.360240075277825
-2.360240075277825
-2.360240075277825
-2.360240075277825
-2.360240075277825
-2.3540856031128428
-2.3540856031128428
-2.347931130947833
-2.347931130947833
-2.3417766587828237
-2.3417766587828237
-2.335622186617841
-2.329467714452832
-2.323313242287821
-2.329467714452832
-2.329467714452832
-2.323313242287821
-2.3110042979578305
-2.304849825792821
-2.298695353627811
-2.298695353627811
-2.2925408814628288
-2.298695353627811
-2.286386409297819
-2.2740774649678275
-2.2740774649678275
-2.2679229928028177
-2.2679229928028177
-2.2802319371328093
-2.2740774649678275
-2.2802319371328093
-2.2802319371328093
-2.2802319371328093
-2.2925408814628288
-2.298695353627811
-2.3110042979578305
-2.323313242287821
-2.329467714452832
-2.347931130947833
-2.347931130947833
-2.3417766587828237
-2.323313242287821
-2.3417766587828237
-2.360240075277825
-2.372549019607845
-2.391012436102846
-2.409475852597848
-2.3848579639378364
-2.391012436102846
-2.3971669082678284
-2.3971669082678284
-2.403321380432838
-2.409475852597848
-2.4156303247628297
-2.4402482134228407
-2.507947407237865
-2.4156303247628297
-2.403321380432838
-2.3971669082678284
-2.403321380432838
-2.409475852597848
-2.4217847969278394
-2.4587116299178424
-2.446402685587851
-2.4279392690928487
-2.4217847969278394
-2.4156303247628297
-2.403321380432838
-2.3971669082678284
-2.4156303247628297
-2.4217847969278394
-2.4156303247628297
-2.3971669082678284
-2.3971669082678284
-2.3971669082678284
-2.3971669082678284
-2.3971669082678284
-2.403321380432838
-2.3971669082678284
-2.391012436102846
-2.3848579639378364
-2.391012436102846
-2.3848579639378364
-2.3848579639378364
-2.391012436102846
-2.391012436102846
-2.3971669082678284
-2.3848579639378364
-2.3848579639378364
-2.3848579639378364
-2.391012436102846
-2.391012436102846
-2.3971669082678284
-2.403321380432838
-2.391012436102846
-2.3848579639378364
-2.391012436102846
-2.378703491772827
-2.378703491772827
-2.3848579639378364
-2.378703491772827
-2.3848579639378364
-2.391012436102846
-2.3848579639378364
-2.391012436102846
-2.391012436102846
-2.3848579639378364
-2.378703491772827
-2.391012436102846
-2.3971669082678284
-2.3848579639378364
-2.391012436102846
-2.3971669082678284
-2.3971669082678284
-2.3848579639378364
-2.391012436102846
-2.391012436102846
-2.3971669082678284
-2.3971669082678284
-2.378703491772827
-2.3848579639378364
-2.391012436102846
-2.3971669082678284
-2.3971669082678284
-2.3971669082678284
-2.3848579639378364
-2.3971669082678284
-2.3971669082678284
-2.391012436102846
-2.3971669082678284
-2.391012436102846
-2.391012436102846
-2.391012436102846
-2.3971669082678284
-2.3848579639378364
-2.391012436102846
-2.391012436102846
-2.391012436102846
-2.378703491772827
-2.378703491772827
-2.391012436102846
-2.391012436102846
-2.3971669082678284
-2.391012436102846
-2.3848579639378364
-2.391012436102846
-2.3848579639378364
-2.391012436102846
-2.3848579639378364
-2.3848579639378364
-2.378703491772827
-2.3848579639378364
-2.378703491772827
-2.3848579639378364
-2.378703491772827
-2.3848579639378364
-2.372549019607845
-2.372549019607845
-2.3848579639378364
-2.378703491772827
-2.378703491772827
-2.3848579639378364
-2.3848579639378364
-2.3848579639378364
-2.3848579639378364
-2.3848579639378364
-2.391012436102846
-2.3848579639378364
-2.372549019607845
-2.3848579639378364
-2.3848579639378364
-2.3848579639378364
-2.3848579639378364
-2.3848579639378364
-2.3848579639378364
-2.391012436102846
-2.3971669082678284
-2.434093741257831
-2.3663945474428347
-2.391012436102846
-2.4279392690928487
-2.4156303247628297
-2.3663945474428347
-2.3663945474428347
-2.3663945474428347
-2.3540856031128428
-2.3417766587828237
-2.329467714452832
-2.286386409297819
-2.249459576307816
-2.249459576307816
-2.2433051041428067
-2.261768520637808
-2.298695353627811
-2.3663945474428347
-2.4402482134228407
-2.495638462907845
-2.501792935072855
-2.495638462907845
-2.501792935072855
-2.483329518577854
-2.4525571577528327
-2.4279392690928487
-2.409475852597848
-2.3971669082678284
-2.3848579639378364
-2.3848579639378364
-2.3848579639378364
-2.378703491772827
-2.378703491772827
-2.3848579639378364
-2.409475852597848
-2.391012436102846
-2.378703491772827
-2.372549019607845
-2.3663945474428347
-2.3663945474428347
-2.372549019607845
-2.3663945474428347
-2.360240075277825
-2.3663945474428347
-2.3540856031128428
-2.3540856031128428
-2.347931130947833
-2.323313242287821
-2.304849825792821
-2.3171587701228398
-2.335622186617841
-2.3417766587828237
-2.335622186617841
-2.335622186617841
-2.3417766587828237
-2.3417766587828237
-2.3417766587828237
-2.3417766587828237
-2.335622186617841
-2.329467714452832
-2.323313242287821
-2.329467714452832
-2.3540856031128428
-2.347931130947833
-2.3171587701228398
-2.3171587701228398
-2.3171587701228398
-2.3110042979578305
-2.304849825792821
-2.298695353627811
-2.286386409297819
-2.286386409297819
-2.2802319371328093
-2.2740774649678275
-2.2679229928028177
-2.249459576307816
-2.224841687647805
-2.2433051041428067
-2.249459576307816
-2.255614048472826
-2.261768520637808
-2.2740774649678275
-2.2740774649678275
-2.2802319371328093
-2.298695353627811
-2.2925408814628288
-2.3110042979578305
-2.3171587701228398
-2.329467714452832
-2.347931130947833
-2.378703491772827
-2.3848579639378364
-2.3848579639378364
-2.378703491772827
-2.3848579639378364
-2.3848579639378364
-2.391012436102846
-2.3971669082678284
-2.391012436102846
-2.3848579639378364
-2.378703491772827
-2.3848579639378364
-2.3848579639378364
-2.3848579639378364
-2.378703491772827
-2.3848579639378364
-2.378703491772827
-2.372549019607845
-2.378703491772827
-2.378703491772827
-2.372549019607845
-2.378703491772827
-2.372549019607845
-2.378703491772827
-2.378703491772827
-2.372549019607845
-2.378703491772827
-2.372549019607845
-2.378703491772827
-2.3971669082678284
-2.4217847969278394
-2.471020574247862
-2.446402685587851
-2.3848579639378364
-2.372549019607845
-2.3663945474428347
-2.3663945474428347
-2.372549019607845
-2.3971669082678284
-2.4217847969278394
-2.3971669082678284
-2.378703491772827
-2.378703491772827
-2.378703491772827
-2.372549019607845
-2.3663945474428347
-2.372549019607845
-2.3663945474428347
-2.3663945474428347
-2.3663945474428347
-2.372549019607845
-2.372549019607845
-2.372549019607845
-2.3663945474428347
-2.378703491772827
-2.3663945474428347
-2.360240075277825
-2.372549019607845
-2.372549019607845
-2.372549019607845
-2.372549019607845
-2.372549019607845
-2.372549019607845
-2.3663945474428347
-2.372549019607845
-2.3663945474428347
-2.372549019607845
-2.372549019607845
-2.3663945474428347
-2.3663945474428347
-2.372549019607845
-2.3663945474428347
-2.378703491772827
-2.3663945474428347
-2.3663945474428347
-2.372549019607845
-2.378703491772827
-2.360240075277825
-2.372549019607845
-2.3848579639378364
-2.372549019607845
-2.378703491772827
-2.378703491772827
-2.3663945474428347
-2.360240075277825
-2.372549019607845
-2.3663945474428347
-2.372549019607845
-2.372549019607845
-2.3663945474428347
-2.372549019607845
-2.372549019607845
-2.3663945474428347
-2.360240075277825
-2.372549019607845
-2.378703491772827
-2.3540856031128428
-2.360240075277825
-2.372549019607845
-2.3848579639378364
-2.378703491772827
-2.3848579639378364
-2.3848579639378364
-2.378703491772827
-2.3663945474428347
-2.3663945474428347
-2.3663945474428347
-2.3663945474428347
-2.372549019607845
-2.378703491772827
-2.3848579639378364
-2.378703491772827
-2.3663945474428347
-2.304849825792821
-2.3171587701228398
-2.347931130947833
-2.3540856031128428
-2.3663945474428347
-2.3663945474428347
-2.3540856031128428
-2.3540856031128428
-2.3663945474428347
-2.3663945474428347
-2.372549019607845
-2.3848579639378364
-2.378703491772827
-2.378703491772827
-2.4156303247628297
-2.4217847969278394
-2.403321380432838
-2.403321380432838
-2.3971669082678284
-2.403321380432838
-2.403321380432838
-2.3971669082678284
-2.391012436102846
-2.391012436102846
-2.3971669082678284
-2.3971669082678284
-2.3971669082678284
-2.3971669082678284
-2.391012436102846
-2.3971669082678284
-2.391012436102846
-2.391012436102846
-2.391012436102846
-2.391012436102846
-2.3848579639378364
-2.378703491772827
-2.3663945474428347
-2.335622186617841
-2.298695353627811
-2.261768520637808
-2.261768520637808
-2.304849825792821
-2.2186872154828228
-2.2925408814628288
-2.3848579639378364
-2.446402685587851
-2.477175046412844
-2.483329518577854
-2.4894839907428636
-2.483329518577854
-2.4648661020828517
-2.4402482134228407
-2.3971669082678284
-2.3848579639378364
-2.372549019607845
-2.372549019607845
-2.360240075277825
-2.372549019607845
-2.3663945474428347
-2.372549019607845
-2.3663945474428347
-2.3663945474428347
-2.372549019607845
-2.372549019607845
-2.372549019607845
-2.3663945474428347
-2.3663945474428347
-2.372549019607845
-2.378703491772827
-2.372549019607845
-2.3540856031128428
-2.360240075277825
-2.3540856031128428
-2.3540856031128428
-2.3540856031128428
-2.3540856031128428
-2.347931130947833
-2.3417766587828237
-2.3417766587828237
-2.335622186617841
-2.335622186617841
-2.335622186617841
-2.3417766587828237
-2.3417766587828237
-2.329467714452832
-2.323313242287821
-2.3171587701228398
-2.3171587701228398
-2.3171587701228398
-2.3171587701228398
-2.304849825792821
-2.3110042979578305
-2.298695353627811
-2.298695353627811
-2.286386409297819
-2.2740774649678275
-2.2679229928028177
-2.2679229928028177
-2.2679229928028177
-2.255614048472826
-2.2679229928028177
-2.261768520637808
-2.255614048472826
-2.261768520637808
-2.261768520637808
-2.2433051041428067
-2.255614048472826
-2.2679229928028177
-2.2740774649678275
-2.2679229928028177
-2.2740774649678275
-2.286386409297819
-2.298695353627811
-2.298695353627811
-2.323313242287821
-2.329467714452832
-2.329467714452832
-2.3417766587828237
-2.3417766587828237
-2.347931130947833
-2.360240075277825
-2.3663945474428347
-2.3848579639378364
-2.378703491772827
-2.372549019607845
-2.378703491772827
-2.372549019607845
-2.378703491772827
-2.3848579639378364
-2.391012436102846
-2.391012436102846
-2.3848579639378364
-2.391012436102846
-2.391012436102846
-2.391012436102846
-2.3848579639378364
-2.391012436102846
-2.378703491772827
-2.3971669082678284
-2.391012436102846
-2.378703491772827
-2.378703491772827
-2.391012436102846
-2.391012436102846
-2.3848579639378364
-2.391012436102846
-2.391012436102846
-2.391012436102846
-2.3848579639378364
-2.378703491772827
-2.378703491772827
-2.3848579639378364
-2.3848579639378364
-2.391012436102846
-2.378703491772827
-2.372549019607845
-2.372549019607845
-2.378703491772827
-2.378703491772827
-2.372549019607845
-2.378703491772827
-2.372549019607845
-2.3971669082678284
-2.434093741257831
-2.360240075277825
-2.3540856031128428
-2.360240075277825
-2.360240075277825
-2.360240075277825
-2.403321380432838
-2.434093741257831
-2.403321380432838
-2.391012436102846
-2.391012436102846
-2.378703491772827
-2.378703491772827
-2.378703491772827
-2.3848579639378364
-2.378703491772827
-2.372549019607845
-2.372549019607845
-2.372549019607845
-2.372549019607845
-2.3663945474428347
-2.3663945474428347
-2.378703491772827
-2.378703491772827
-2.3663945474428347
-2.3663945474428347
-2.3663945474428347
-2.3663945474428347
-2.3663945474428347
-2.372549019607845
-2.378703491772827
-2.378703491772827
-2.372549019607845
-2.3663945474428347
-2.360240075277825
-2.347931130947833
-2.360240075277825
-2.360240075277825
-2.3663945474428347
-2.3663945474428347
-2.3663945474428347
-2.360240075277825
-2.360240075277825
-2.360240075277825
-2.3663945474428347
-2.3663945474428347
-2.372549019607845
-2.3663945474428347
-2.3663945474428347
-2.372549019607845
-2.372549019607845
-2.372549019607845
-2.3663945474428347
-2.3663945474428347
-2.3663945474428347
-2.3663945474428347
-2.360240075277825
-2.3663945474428347
-2.360240075277825
-2.360240075277825
-2.360240075277825
-2.360240075277825
-2.3663945474428347
-2.3663945474428347
-2.347931130947833
-2.3540856031128428
-2.3540856031128428
-2.3540856031128428
-2.3540856031128428
-2.409475852597848
-2.3540856031128428
-2.335622186617841
-2.3417766587828237
-2.335622186617841
-2.335622186617841
-2.3417766587828237
-2.360240075277825
-2.409475852597848
-2.409475852597848
-2.391012436102846
-2.378703491772827
-2.372549019607845
-2.372549019607845
-2.372549019607845
-2.378703491772827
-2.378703491772827
-2.372549019607845
-2.372549019607845
-2.372549019607845
-2.3848579639378364
-2.372549019607845
-2.372549019607845
-2.3848579639378364
-2.378703491772827
-2.378703491772827
-2.378703491772827
-2.378703491772827
-2.3663945474428347
-2.3663945474428347
-2.3663945474428347
-2.372549019607845
-2.3663945474428347
-2.3663945474428347
-2.347931130947833
-2.329467714452832
-2.2802319371328093
-2.255614048472826
-2.2186872154828228
-2.212532743317813
-2.2063782711528033
-2.249459576307816
-2.304849825792821
-2.378703491772827
-2.4402482134228407
-2.4648661020828517
-2.4648661020828517
-2.4587116299178424
-2.4402482134228407
-2.403321380432838
-2.378703491772827
-2.372549019607845
-2.372549019607845
-2.409475852597848
-2.3417766587828237
-2.3663945474428347
-2.3848579639378364
-2.360240075277825
-2.347931130947833
-2.3540856031128428
-2.3417766587828237
-2.3417766587828237
-2.347931130947833
-2.347931130947833
-2.329467714452832
-2.298695353627811
-2.3110042979578305
-2.323313242287821
-2.329467714452832
-2.329467714452832
-2.335622186617841
-2.3417766587828237
-2.329467714452832
-2.329467714452832
-2.329467714452832
-2.335622186617841
-2.323313242287821
-2.323313242287821
-2.335622186617841
-2.372549019607845
-2.3540856031128428
-2.347931130947833
-2.329467714452832
-2.329467714452832
-2.329467714452832
-2.3171587701228398
-2.3110042979578305
-2.3110042979578305
-2.304849825792821
-2.2925408814628288
-2.2925408814628288
-2.2925408814628288
-2.2802319371328093
-2.2740774649678275
-2.2740774649678275
-2.2740774649678275
-2.261768520637808
-2.255614048472826
-2.255614048472826
-2.255614048472826
-2.255614048472826
-2.2433051041428067
-2.255614048472826
-2.249459576307816
-2.2433051041428067
-2.255614048472826
-2.255614048472826
-2.249459576307816
-2.261768520637808
-2.2740774649678275
-2.2802319371328093
-2.298695353627811
-2.298695353627811
-2.3110042979578305
-2.3171587701228398
-2.329467714452832
-2.3540856031128428
-2.329467714452832
-2.347931130947833
-2.360240075277825
-2.360240075277825
-2.372549019607845
-2.378703491772827
-2.378703491772827
-2.372549019607845
-2.372549019607845
-2.3848579639378364
-2.372549019607845
-2.378703491772827
-2.372549019607845
-2.378703491772827
-2.378703491772827
-2.378703491772827
-2.378703491772827
-2.391012436102846
-2.378703491772827
-2.378703491772827
-2.3848579639378364
-2.3848579639378364
-2.372549019607845
-2.372549019607845
-2.378703491772827
-2.372549019607845
-2.3663945474428347
-2.3663945474428347
-2.372549019607845
-2.372549019607845
-2.372549019607845
-2.372549019607845
-2.378703491772827
-2.378703491772827
-2.372549019607845
-2.372549019607845
-2.372549019607845
-2.372549019607845
-2.360240075277825
-2.3663945474428347
-2.3663945474428347
-2.3663945474428347
-2.372549019607845
-2.360240075277825
-2.360240075277825
-2.372549019607845
-2.360240075277825
-2.3663945474428347
-2.378703491772827
-2.372549019607845
-2.372549019607845
-2.3663945474428347
-2.3663945474428347
-2.360240075277825
-2.3663945474428347
-2.360240075277825
-2.378703491772827
-2.3848579639378364
-2.4217847969278394
-2.3540856031128428
-2.3417766587828237
-2.335622186617841
-2.347931130947833
-2.360240075277825
-2.403321380432838
-2.409475852597848
-2.3848579639378364
-2.3848579639378364
-2.378703491772827
-2.378703491772827
-2.372549019607845
-2.378703491772827
-2.372549019607845
-2.372549019607845
-2.3663945474428347
-2.378703491772827
-2.3848579639378364
-2.372549019607845
-2.378703491772827
-2.3540856031128428
-2.3663945474428347
-2.378703491772827
-2.378703491772827
-2.372549019607845
-2.3663945474428347
-2.372549019607845
-2.3663945474428347
-2.372549019607845
-2.378703491772827
-2.3663945474428347
-2.378703491772827
-2.378703491772827
-2.378703491772827
-2.372549019607845
-2.372549019607845
-2.372549019607845
-2.378703491772827
-2.372549019607845
-2.3663945474428347
-2.372549019607845
-2.372549019607845
-2.372549019607845
-2.3663945474428347
-2.391012436102846
-2.3848579639378364
-2.378703491772827
-2.372549019607845
-2.372549019607845
-2.372549019607845
-2.3663945474428347
-2.360240075277825
-2.3663945474428347
-2.3663945474428347
-2.3663945474428347
-2.360240075277825
-2.3540856031128428
-2.3540856031128428
-2.3540856031128428
-2.3663945474428347
-2.378703491772827
-2.372549019607845
-2.3848579639378364
-2.360240075277825
-2.360240075277825
-2.3663945474428347
-2.372549019607845
-2.372549019607845
-2.3848579639378364
-2.372549019607845
-2.372549019607845
-2.378703491772827
-2.360240075277825
-2.347931130947833
-2.360240075277825
-2.372549019607845
-2.372549019607845
-2.360240075277825
-2.360240075277825
-2.3663945474428347
-2.3663945474428347
-2.372549019607845
-2.3663945474428347
-2.372549019607845
-2.360240075277825
-2.347931130947833
-2.347931130947833
-2.329467714452832
-2.2802319371328093
-2.2433051041428067
-2.2186872154828228
-2.212532743317813
-2.2186872154828228
-2.261768520637808
-2.329467714452832
-2.3971669082678284
-2.434093741257831
-2.4525571577528327
-2.4525571577528327
-2.4587116299178424
-2.4525571577528327
-2.4279392690928487
-2.3971669082678284
-2.3848579639378364
-2.372549019607845
-2.360240075277825
-2.360240075277825
-2.360240075277825
-2.3663945474428347
-2.360240075277825
-2.347931130947833
-2.347931130947833
-2.347931130947833
-2.3540856031128428
-2.335622186617841
-2.3171587701228398
-2.3171587701228398
-2.329467714452832
-2.335622186617841
-2.3417766587828237
-2.3540856031128428
-2.391012436102846
-2.323313242287821
-2.3663945474428347
-2.378703491772827
-2.360240075277825
-2.347931130947833
-2.335622186617841
-2.347931130947833
-2.378703491772827
-2.3663945474428347
-2.360240075277825
-2.3417766587828237
-2.3417766587828237
-2.335622186617841
-2.329467714452832
-2.323313242287821
-2.329467714452832
-2.347931130947833
-2.3848579639378364
-2.298695353627811
-2.2802319371328093
-2.286386409297819
-2.2802319371328093
-2.286386409297819
-2.2802319371328093
-2.2925408814628288
-2.329467714452832
-2.304849825792821
-2.286386409297819
-2.2802319371328093
-2.2802319371328093
-2.2740774649678275
-2.2679229928028177
-2.261768520637808
-2.2679229928028177
-2.255614048472826
-2.249459576307816
-2.261768520637808
-2.2740774649678275
-2.2740774649678275
-2.2802319371328093
-2.2925408814628288
-2.304849825792821
-2.304849825792821
-2.3171587701228398
-2.3171587701228398
-2.329467714452832
-2.3417766587828237
-2.3417766587828237
-2.3540856031128428
-2.3540856031128428
-2.360240075277825
-2.372549019607845
-2.3663945474428347
-2.3663945474428347
-2.372549019607845
-2.378703491772827
-2.378703491772827
-2.378703491772827
-2.372549019607845
-2.378703491772827
-2.378703491772827
-2.372549019607845
-2.378703491772827
-2.3663945474428347
-2.3848579639378364
-2.372549019607845
-2.3663945474428347
-2.372549019607845
-2.3663945474428347
-2.3663945474428347
-2.3663945474428347
-2.372549019607845
-2.3663945474428347
-2.360240075277825
-2.3663945474428347
-2.3663945474428347
-2.372549019607845
-2.3540856031128428
-2.3663945474428347
-2.378703491772827
-2.391012436102846
-2.3540856031128428
-2.372549019607845
-2.378703491772827
-2.378703491772827
-2.372549019607845
-2.378703491772827
-2.378703491772827
-2.378703491772827
-2.372549019607845
-2.378703491772827
-2.372549019607845
-2.378703491772827
-2.3848579639378364
-2.378703491772827
-2.372549019607845
-2.3848579639378364
-2.378703491772827
-2.378703491772827
-2.378703491772827
-2.372549019607845
-2.372549019607845
-2.372549019607845
-2.378703491772827
-2.378703491772827
-2.372549019607845
-2.372549019607845
-2.372549019607845
-2.372549019607845
-2.378703491772827
-2.372549019607845
-2.378703491772827
-2.378703491772827
-2.378703491772827
-2.372549019607845
-2.378703491772827
-2.378703491772827
-2.378703491772827
-2.378703491772827
-2.391012436102846
-2.3971669082678284
-2.4525571577528327
-2.3663945474428347
-2.360240075277825
-2.360240075277825
-2.372549019607845
-2.3848579639378364
-2.4279392690928487
-2.4217847969278394
-2.403321380432838
-2.391012436102846
-2.3848579639378364
-2.378703491772827
-2.378703491772827
-2.3663945474428347
-2.378703491772827
-2.372549019607845
-2.372549019607845
-2.372549019607845
-2.3663945474428347
-2.3663945474428347
-2.372549019607845
-2.3663945474428347
-2.372549019607845
-2.360240075277825
-2.360240075277825
-2.3663945474428347
-2.3663945474428347
-2.378703491772827
-2.378703491772827
-2.3848579639378364
-2.372549019607845
-2.360240075277825
-2.3663945474428347
-2.372549019607845
-2.3663945474428347
-2.372549019607845
-2.378703491772827
-2.378703491772827
-2.378703491772827
-2.3848579639378364
-2.378703491772827
-2.378703491772827
-2.3848579639378364
-2.391012436102846
-2.3848579639378364
-2.391012436102846
-2.3971669082678284
-2.3971669082678284
-2.391012436102846
-2.3971669082678284
-2.3971669082678284
-2.391012436102846
-2.391012436102846
-2.403321380432838
-2.391012436102846
-2.323313242287821
-2.3848579639378364
-2.4894839907428636
-2.4402482134228407
-2.409475852597848
-2.391012436102846
-2.360240075277825
-2.323313242287821
-2.286386409297819
-2.261768520637808
-2.255614048472826
-2.2740774649678275
-2.304849825792821
-2.372549019607845
-2.4217847969278394
-2.4525571577528327
-2.4648661020828517
-2.471020574247862
-2.477175046412844
-2.477175046412844
-2.4648661020828517
-2.434093741257831
-2.409475852597848
-2.3971669082678284
-2.391012436102846
-2.3848579639378364
-2.378703491772827
-2.378703491772827
-2.372549019607845
-2.372549019607845
-2.372549019607845
-2.3663945474428347
-2.360240075277825
-2.3663945474428347
-2.360240075277825
-2.3663945474428347
-2.3540856031128428
-2.360240075277825
-2.360240075277825
-2.3663945474428347
-2.360240075277825
-2.3663945474428347
-2.3540856031128428
-2.360240075277825
-2.3540856031128428
-2.360240075277825
-2.360240075277825
-2.3540856031128428
-2.347931130947833
-2.347931130947833
-2.347931130947833
-2.3540856031128428
-2.360240075277825
-2.3540856031128428
-2.347931130947833
-2.3540856031128428
-2.3417766587828237
-2.3417766587828237
-2.335622186617841
-2.335622186617841
-2.335622186617841
-2.335622186617841
-2.323313242287821
-2.3171587701228398
-2.323313242287821
-2.304849825792821
-2.323313242287821
-2.391012436102846
-2.2925408814628288
-2.329467714452832
-2.3110042979578305
-2.298695353627811
-2.298695353627811
-2.298695353627811
-2.2925408814628288
-2.298695353627811
-2.2925408814628288
-2.304849825792821
-2.298695353627811
-2.304849825792821
-2.3110042979578305
-2.3171587701228398
-2.329467714452832
-2.3417766587828237
-2.3540856031128428
-2.360240075277825
-2.3663945474428347
-2.378703491772827
-2.3848579639378364
-2.3848579639378364
-2.391012436102846
-2.391012436102846
-2.403321380432838
-2.403321380432838
-2.3971669082678284
-2.403321380432838
-2.403321380432838
-2.403321380432838
-2.409475852597848
-2.403321380432838
-2.409475852597848
-2.403321380432838
-2.403321380432838
-2.409475852597848
-2.403321380432838
-2.403321380432838
-2.409475852597848
-2.409475852597848
-2.409475852597848
-2.409475852597848
-2.409475852597848
-2.3971669082678284
-2.3971669082678284
-2.3971669082678284
-2.3971669082678284
-2.391012436102846
-2.403321380432838
-2.3971669082678284
-2.391012436102846
-2.3848579639378364
-2.3971669082678284
-2.391012436102846
-2.391012436102846
-2.3971669082678284
-2.3971669082678284
-2.391012436102846
-2.391012436102846
-2.378703491772827
-2.3848579639378364
-2.403321380432838
-2.409475852597848
-2.3848579639378364
-2.3971669082678284
-2.391012436102846
-2.3848579639378364
-2.378703491772827
-2.378703491772827
-2.378703491772827
-2.3848579639378364
-2.391012436102846
-2.3848579639378364
-2.372549019607845
-2.3540856031128428
-2.360240075277825
-2.372549019607845
-2.3848579639378364
-2.3848579639378364
-2.3663945474428347
-2.372549019607845
-2.3663945474428347
-2.372549019607845
-2.3663945474428347
-2.3663945474428347
-2.372549019607845
-2.372549019607845
-2.4402482134228407
-2.4279392690928487
-2.378703491772827
-2.372549019607845
-2.372549019607845
-2.378703491772827
-2.372549019607845
-2.3848579639378364
-2.4279392690928487
-2.4279392690928487
-2.409475852597848
-2.3971669082678284
-2.3848579639378364
-2.3848579639378364
-2.378703491772827
-2.372549019607845
-2.3848579639378364
-2.372549019607845
-2.372549019607845
-2.372549019607845
-2.378703491772827
-2.372549019607845
-2.378703491772827
-2.378703491772827
-2.3848579639378364
-2.372549019607845
-2.3663945474428347
-2.372549019607845
-2.3663945474428347
-2.360240075277825
-2.3663945474428347
-2.347931130947833
-2.360240075277825
-2.403321380432838
-2.4279392690928487
-2.3540856031128428
-2.3417766587828237
-2.347931130947833
-2.3540856031128428
-2.378703491772827
-2.4156303247628297
-2.3971669082678284
-2.372549019607845
-2.3663945474428347
-2.372549019607845
-2.372549019607845
-2.360240075277825
-2.3663945474428347
-2.372549019607845
-2.360240075277825
-2.360240075277825
-2.360240075277825
-2.3663945474428347
-2.372549019607845
-2.372549019607845
-2.3663945474428347
-2.3663945474428347
-2.372549019607845
-2.378703491772827
-2.372549019607845
-2.3663945474428347
-2.372549019607845
-2.372549019607845
-2.372549019607845
-2.372549019607845
-2.3663945474428347
-2.3663945474428347
-2.372549019607845
-2.372549019607845
-2.3663945474428347
-2.360240075277825
-2.3540856031128428
-2.3417766587828237
-2.304849825792821
-2.2679229928028177
-2.2371506319778245
-2.2186872154828228
-2.212532743317813
-2.2186872154828228
-2.2802319371328093
-2.335622186617841
-2.403321380432838
-2.446402685587851
-2.4525571577528327
-2.4587116299178424
-2.446402685587851
-2.4402482134228407
-2.409475852597848
-2.372549019607845
-2.360240075277825
-2.360240075277825
-2.3540856031128428
-2.347931130947833
-2.3540856031128428
-2.347931130947833
-2.347931130947833
-2.3540856031128428
-2.360240075277825
-2.335622186617841
-2.329467714452832
-2.2925408814628288
-2.304849825792821
-2.323313242287821
-2.335622186617841
-2.335622186617841
-2.3417766587828237
-2.335622186617841
-2.347931130947833
-2.3417766587828237
-2.347931130947833
-2.3540856031128428
-2.3417766587828237
-2.347931130947833
-2.347931130947833
-2.3848579639378364
-2.378703491772827
-2.3663945474428347
-2.3540856031128428
-2.3540856031128428
-2.347931130947833
-2.3417766587828237
-2.3417766587828237
-2.335622186617841
-2.329467714452832
-2.329467714452832
-2.3171587701228398
-2.323313242287821
-2.3171587701228398
-2.3110042979578305
-2.3110042979578305
-2.298695353627811
-2.298695353627811
-2.2925408814628288
-2.286386409297819
-2.298695353627811
-2.2802319371328093
-2.286386409297819
-2.2740774649678275
-2.2802319371328093
-2.2802319371328093
-2.2802319371328093
-2.2802319371328093
-2.2802319371328093
-2.286386409297819
-2.2802319371328093
-2.2925408814628288
-2.2925408814628288
-2.298695353627811
-2.3110042979578305
-2.329467714452832
-2.3417766587828237
-2.3417766587828237
-2.347931130947833
-2.360240075277825
-2.360240075277825
-2.3848579639378364
-2.446402685587851
-2.378703491772827
-2.4156303247628297
-2.409475852597848
-2.3971669082678284
-2.403321380432838
-2.3971669082678284
-2.391012436102846
-2.3971669082678284
-2.409475852597848
-2.403321380432838
-2.3971669082678284
-2.3971669082678284
-2.403321380432838
-2.403321380432838
-2.409475852597848
-2.403321380432838
-2.409475852597848
-2.409475852597848
-2.409475852597848
-2.403321380432838
-2.3971669082678284
-2.403321380432838
-2.3971669082678284
-2.3971669082678284
-2.391012436102846
-2.403321380432838
-2.391012436102846
-2.391012436102846
-2.391012436102846
-2.391012436102846
-2.391012436102846
-2.403321380432838
-2.403321380432838
-2.3971669082678284
-2.403321380432838
-2.403321380432838
-2.403321380432838
-2.391012436102846
-2.391012436102846
-2.391012436102846
-2.403321380432838
-2.391012436102846
-2.391012436102846
-2.3971669082678284
-2.391012436102846
-2.391012436102846
-2.391012436102846
-2.391012436102846
-2.3971669082678284
-2.391012436102846
-2.391012436102846
-2.3971669082678284
-2.403321380432838
-2.403321380432838
-2.403321380432838
-2.3971669082678284
-2.403321380432838
-2.409475852597848
-2.409475852597848
-2.409475852597848
-2.3971669082678284
-2.409475852597848
-2.4156303247628297
-2.403321380432838
-2.403321380432838
-2.403321380432838
-2.403321380432838
-2.409475852597848
-2.403321380432838
-2.3971669082678284
-2.403321380432838
-2.409475852597848
-2.409475852597848
-2.403321380432838
-2.403321380432838
-2.3971669082678284
-2.403321380432838
-2.403321380432838
-2.4156303247628297
-2.4279392690928487
-2.4217847969278394
-2.391012436102846
-2.2433051041428067
-1.7878741639327511
-1.5847765824877347
-1.7509473309427481
-1.849418885582765
-1.9848172732127856
-2.323313242287821
-2.3971669082678284
-2.4402482134228407
-2.477175046412844
-2.495638462907845
-2.581801073217871
-2.409475852597848
-2.446402685587851
-2.538719768062857
-2.4217847969278394
-2.255614048472826
-2.483329518577854
-2.471020574247862
-2.409475852597848
-2.3663945474428347
-2.4402482134228407
-2.477175046412844
-2.483329518577854
-2.495638462907845
-2.5141018794028467
-2.538719768062857
-2.520256351567857
-2.391012436102846
-2.6371913227028756
-2.55102871239285
-2.600264489712873
-2.55718318455786
-2.575646601052861
-2.5941100175478624
-2.6371913227028756
-2.631036850537866
-2.815671015487909
-2.4587116299178424
-2.077134355687793
-3.658833702093051
-3.357264566007989
-3.4434271763180146
-3.535744258793022
-3.720378423743037
-4.354289056738125
-3.9173215330230713
-3.825004450548064
-3.8865491721980785
-3.9911751990030773
-4.077337809313103
-4.163500419623101
-4.292744335088139
-4.606622415503164
-4.452760611378142
-4.501996388698165
-4.8035655247832
-4.7112484423081895
-4.181963836118102
-3.825004450548064
-3.4865084814730274
-3.406500343328012
-3.1357035680679433
-3.0987767350779407
-2.8895246814679143
-2.821825487652891
-2.7171994608478913
-2.538719768062857
-2.5325652958978484
-2.6618092113628857
-2.600264489712873
-2.600264489712873
-2.6433457948678853
-2.8095165433228986
-2.772589710332896
-2.391012436102846
-2.4525571577528327
-3.412654815492993
-2.187914854657802
-2.797207598992907
-2.8402889041478923
-2.815671015487909
-2.7848986546628876
-2.7418173495078744
-3.074158846417929
-2.834134431982911
-2.600264489712873
-2.5325652958978484
-2.612573434042864
-2.507947407237865
-2.434093741257831
-2.261768520637808
-2.2925408814628288
-2.1632969659978185
-2.0586709391927913
-1.972508328882766
-1.892500190737778
-1.8124920525927626
-1.7263294422827367
-1.5601586938277234
-1.6278578876427194
-1.5293863330027024
-1.677093664962742
-1.6647847206327224
-1.7263294422827367
-1.7263294422827367
-1.7324839144477464
-1.7140204979527456
-1.8801912464077586
-1.8432644134177558
-1.8801912464077586
-1.954044912387765
-2.003280689707787
-2.003280689707787
-1.9478904402227823
-1.4062968897027015
-1.8740367742427766
-2.1017522443478045
-2.120215660842805
-2.083288827852803
-2.1263701330077875
-2.1571424938328088
-2.120215660842805
-2.2186872154828228
-2.3171587701228398
-2.261768520637808
-2.3171587701228398
-2.298695353627811
-2.323313242287821
-2.901833625797906
-2.631036850537866
-2.3110042979578305
-2.360240075277825
-2.2186872154828228
-2.187914854657802
-2.150988021667799
-2.1694514381628007
-2.1817603824928202
-2.255614048472826
-3.154166984562973
-1.830955469087764
-1.8801912464077586
-2.249459576307816
-2.0955977721827947
-2.2925408814628288
-2.335622186617841
-2.200223798987821
-2.4217847969278394
-2.4279392690928487
-2.4587116299178424
-2.501792935072855
-2.526410823732866
-2.55102871239285
-2.587955545382853
-2.4648661020828517
-2.7848986546628876
-2.778744182497905
-2.581801073217871
-2.8279799598179
-2.815671015487909
-2.3171587701228398
-1.7940286360977609
-3.5726710917830253
-3.363419038172999
-2.877215737137895
-2.7848986546628876
-2.7848986546628876
-2.766435238167886
-2.747971821672884
-2.7171994608478913
-2.729508405177883
-2.704890516517872
-2.7848986546628876
-2.797207598992907
-2.723353933012873
-2.729508405177883
-2.729508405177883
-2.667963683527869
-2.711044988682881
-2.877215737137895
-2.797207598992907
-2.797207598992907
-2.8033620711578893
-2.8033620711578893
-2.778744182497905
-2.5141018794028467
-2.4279392690928487
-2.760280766002876
-2.772589710332896
-2.766435238167886
-2.7171994608478913
-2.735662877342893
-2.6925815721878803
-2.587955545382853
-2.6925815721878803
-2.68642710002287
-2.655654739197877
-2.631036850537866
-2.563337656722869
-2.612573434042864
-2.8464433763129016
-2.600264489712873
-2.667963683527869
-2.618727906207874
-2.55102871239285
-2.5141018794028467
-2.5141018794028467
-2.544874240227868
-2.507947407237865
-2.329467714452832
-2.581801073217871
-2.5325652958978484
-2.5141018794028467
-2.446402685587851
-2.3848579639378364
-2.587955545382853
-2.483329518577854
-2.347931130947833
-2.5325652958978484
-2.434093741257831
-2.372549019607845
-2.298695353627811
-2.2925408814628288
-2.391012436102846
-3.074158846417929
-1.5724676381577152
-1.818646524757745
-2.138679077337807
-2.1263701330077875
-2.471020574247862
-2.544874240227868
-2.624882378372884
-2.655654739197877
-2.6925815721878803
-2.8895246814679143
-2.735662877342893
-2.6925815721878803
-2.600264489712873
-2.520256351567857
-2.4402482134228407
-2.249459576307816
-2.1817603824928202
-2.2679229928028177
-2.403321380432838
-2.323313242287821
-2.372549019607845
-2.403321380432838
-2.471020574247862
-2.471020574247862
-2.6064189618778553
-2.729508405177883
-2.735662877342893
-2.8033620711578893
-2.8525978484779113
-2.932605986622927
-2.9202970422929075
-2.120215660842805
-2.944914930952919
-3.1049312072429505
-2.624882378372884
-2.434093741257831
-2.4525571577528327
-2.329467714452832
-2.200223798987821
-2.0586709391927913
-2.1571424938328088
-2.083288827852803
-2.077134355687793
-2.0955977721827947
-2.138679077337807
-2.0586709391927913
-2.3663945474428347
-2.2371506319778245
-2.495638462907845
-2.409475852597848
-2.3663945474428347
-2.3417766587828237
-2.2802319371328093
-2.2063782711528033
-2.1694514381628007
-2.089443300017785
-2.255614048472826
-1.7632562752727399
-1.5293863330027024
-2.680272627857888
-2.3110042979578305
-2.3971669082678284
-2.378703491772827
-2.711044988682881
-2.981841763942921
-2.618727906207874
-2.563337656722869
-2.5694921288878514
-2.575646601052861
-2.575646601052861
-2.507947407237865
-2.507947407237865
-2.6064189618778553
-2.3848579639378364
-2.507947407237865
-2.5325652958978484
-2.360240075277825
-2.304849825792821
-2.138679077337807
-2.2679229928028177
-2.378703491772827
-2.347931130947833
-2.3417766587828237
-2.403321380432838
-2.4402482134228407
-2.4587116299178424
-2.329467714452832
-2.249459576307816
-2.2371506319778245
-2.2925408814628288
-2.2063782711528033
-2.1571424938328088
-2.1632969659978185
-2.175605910327811
-2.077134355687793
-2.347931130947833
-2.212532743317813
-2.212532743317813
-2.2186872154828228
-2.2186872154828228
-2.224841687647805
-2.2186872154828228
-2.083288827852803
-2.3171587701228398
-2.2679229928028177
-2.2679229928028177
-2.2740774649678275
-2.304849825792821
-2.360240075277825
-2.3663945474428347
-2.286386409297819
-2.5141018794028467
-2.446402685587851
-2.3971669082678284
-2.409475852597848
-2.3663945474428347
-2.286386409297819
-2.4217847969278394
-2.200223798987821
-2.3848579639378364
-2.446402685587851
-3.006459652602933
-1.7201749701177547
-1.9786628010477763
-2.2186872154828228
-2.1571424938328088
-2.114061188677796
-2.3417766587828237
-2.2371506319778245
-2.2433051041428067
-2.194069326822812
-2.335622186617841
-2.2740774649678275
-2.1571424938328088
-2.187914854657802
-2.347931130947833
-2.2802319371328093
-2.2679229928028177
-2.255614048472826
-2.2679229928028177
-2.249459576307816
-2.175605910327811
-2.2802319371328093
-2.3417766587828237
-2.200223798987821
-2.3848579639378364
-2.409475852597848
-2.4279392690928487
-2.4156303247628297
-2.347931130947833
-2.446402685587851
-2.409475852597848
-2.3417766587828237
-2.3110042979578305
-2.2679229928028177
-2.2309961598128147
-2.1448335495027893
-2.064825411357801
-2.0586709391927913
-2.1571424938328088
-2.138679077337807
-2.138679077337807
-2.1448335495027893
-2.1448335495027893
-2.114061188677796
-1.4924595000126994
-2.1079067165127863
-2.224841687647805
-2.150988021667799
-2.150988021667799
-2.150988021667799
-2.1632969659978185
-1.861727829912757
-1.7263294422827367
-2.347931130947833
-2.2309961598128147
-2.2433051041428067
-2.261768520637808
-2.261768520637808
-1.8801912464077586
-1.3878334732077002
-2.9141425701278982
-2.55718318455786
-2.329467714452832
-2.304849825792821
-2.2740774649678275
-2.372549019607845
-2.8649067928079033
-2.360240075277825
-2.224841687647805
-2.409475852597848
-2.391012436102846
-2.3540856031128428
-2.391012436102846
-2.4156303247628297
-2.4279392690928487
-2.3540856031128428
-2.403321380432838
-2.501792935072855
-2.391012436102846
-2.323313242287821
-1.9478904402227823
-2.120215660842805
-2.2433051041428067
-2.187914854657802
-2.2679229928028177
-2.2740774649678275
-2.2925408814628288
-2.3171587701228398
-2.3848579639378364
-2.477175046412844
-2.501792935072855
-2.477175046412844
-2.6433457948678853
-2.674118155692878
-2.9879962361079313
-2.834134431982911
-2.55718318455786
-2.4525571577528327
-2.378703491772827
-2.2063782711528033
-2.3417766587828237
-2.249459576307816
-2.212532743317813
-2.200223798987821
-2.2186872154828228
-2.2309961598128147
-2.249459576307816
-2.194069326822812
-2.4402482134228407
-2.5141018794028467
-2.4525571577528327
-2.4156303247628297
-2.4217847969278394
-2.409475852597848
-2.323313242287821
-2.2679229928028177
-2.501792935072855
-2.3971669082678284
-2.347931130947833
-2.372549019607845
-2.372549019607845
-2.520256351567857
-2.7418173495078744
-1.5170773886727107
-2.1263701330077875
-2.3848579639378364
-2.4279392690928487
-2.4217847969278394
-2.391012436102846
-2.409475852597848
-2.323313242287821
-2.3848579639378364
-2.4894839907428636
-2.446402685587851
-2.4156303247628297
-2.4648661020828517
-2.6433457948678853
-2.68642710002287
-2.3540856031128428
-2.3848579639378364
-2.3663945474428347
-2.298695353627811
-2.304849825792821
-2.3417766587828237
-2.3417766587828237
-2.378703491772827
-2.286386409297819
-2.4217847969278394
-2.4648661020828517
-2.4894839907428636
-2.409475852597848
-2.495638462907845
-2.526410823732866
-2.434093741257831
-2.286386409297819
-2.507947407237865
-2.4156303247628297
-2.378703491772827
-2.3848579639378364
-2.372549019607845
-2.378703491772827
-2.378703491772827
-2.261768520637808
-2.4587116299178424
-2.3171587701228398
-2.8895246814679143
-2.7171994608478913
-2.538719768062857
-2.471020574247862
-2.434093741257831
-2.4279392690928487
-2.507947407237865
-2.4217847969278394
-2.4156303247628297
-2.378703491772827
-2.335622186617841
-2.329467714452832
-2.2925408814628288
-2.064825411357801
-1.954044912387765
-1.818646524757745
-1.4062968897027015
-2.760280766002876
-2.4156303247628297
-2.3663945474428347
-2.323313242287821
-2.754126293837894
-2.7171994608478913
-2.4217847969278394
-2.372549019607845
-2.347931130947833
-2.3663945474428347
-2.3171587701228398
-2.2186872154828228
-2.495638462907845
-2.4402482134228407
-2.391012436102846
-2.378703491772827
-2.3540856031128428
-2.3663945474428347
-2.360240075277825
-2.255614048472826
-2.4587116299178424
-2.4894839907428636
-2.4525571577528327
-2.4894839907428636
-2.446402685587851
-2.600264489712873
-2.8033620711578893
-2.3848579639378364
-2.55102871239285
-2.544874240227868
