-3.1110856794079322
-3.074158846417929
-3.037232013427927
-2.96953281961293
-2.907988097962916
-2.895679153632896
-2.9510694031179288
-2.9141425701278982
-2.9510694031179288
-2.9510694031179288
-2.901833625797906
-2.901833625797906
-2.9202970422929075
-2.907988097962916
-2.9510694031179288
-2.9633783474479203
-2.9141425701278982
-2.8895246814679143
-2.9510694031179288
-2.932605986622927
-2.895679153632896
-2.871061264972913
-2.895679153632896
-2.9387604587879093
-2.883370209302905
-2.871061264972913
-2.8402889041478923
-2.932605986622927
-2.9202970422929075
-2.8033620711578893
-2.895679153632896
-3.0003051804379233
-3.0126141247679152
-2.9510694031179288
-2.9510694031179288
-3.055695429922928
-3.1049312072429505
-3.191093817552976
-3.1049312072429505
-3.0987767350779407
-3.080313318582939
-3.1295490959029335
-3.184939345387966
-3.25263853920299
-3.5911345082780266
-3.720378423743037
-3.7142239515780546
-3.726532895908047
-3.788077617558061
-3.837313394878056
-3.861931283538067
-3.9419394216830828
-3.7757686732280415
-3.2834109000279827
-3.5911345082780266
-3.837313394878056
-3.615752396938038
-3.6280613412680296
-3.664988174258033
-3.578825563948035
-3.5911345082780266
-3.5849800361130173
-3.609597924773028
-3.492662953638009
-3.357264566007989
-3.6034434526080172
-3.517280842298021
-3.381882454668
-3.344955621677997
-3.2834109000279827
-3.369573510338009
-3.338801149512988
-3.2711019556979917
-3.178784873222984
-3.1295490959029335
-3.080313318582939
-2.9510694031179288
-2.8895246814679143
-2.747971821672884
-2.6618092113628857
-2.618727906207874
-2.544874240227868
-2.2433051041428067
-2.224841687647805
-2.2309961598128147
-2.255614048472826
-2.335622186617841
-2.4279392690928487
-2.409475852597848
-2.3663945474428347
-2.329467714452832
-2.077134355687793
-0.427735815467567
-1.1724269474326645
-1.9601993845527748
-2.0278985783677985
-1.9786628010477763
-1.9601993845527748
-1.9355814958927628
-2.224841687647805
-3.2957198443579747
-2.563337656722869
-2.329467714452832
-2.3848579639378364
-2.4525571577528327
-2.4894839907428636
-2.735662877342893
-3.369573510338009
-2.975687291777912
-2.815671015487909
-2.8279799598179
-2.5325652958978484
-1.6709391927977324
-2.3540856031128428
-2.723353933012873
-3.578825563948035
-4.126573586633098
-3.178784873222984
-3.0003051804379233
-2.932605986622927
-2.901833625797906
-2.9879962361079313
-3.0003051804379233
-2.9879962361079313
-2.9510694031179288
-2.907988097962916
-2.901833625797906
-2.877215737137895
-2.8895246814679143
-2.8895246814679143
-2.877215737137895
-2.8895246814679143
-2.9264515144579173
-2.9510694031179288
-3.037232013427927
-3.258793011367972
-3.301874316522985
-3.24648406703798
-3.2218661783779687
-3.1295490959029335
-3.0126141247679152
-2.9202970422929075
-2.883370209302905
-2.877215737137895
-2.883370209302905
-2.834134431982911
-2.8095165433228986
-2.8095165433228986
-2.7910531268278973
-2.7418173495078744
-2.901833625797906
-2.8649067928079033
-2.9202970422929075
-2.9141425701278982
-2.9572238752829105
-2.9202970422929075
-2.944914930952919
-2.9572238752829105
-2.9387604587879093
-2.9572238752829105
-2.944914930952919
-2.895679153632896
-2.8649067928079033
-2.877215737137895
-3.1110856794079322
-3.037232013427927
-2.994150708272913
-3.0126141247679152
-3.117240151572942
-3.178784873222984
-3.2095572340479768
-3.191093817552976
-3.25263853920299
-3.344955621677997
-3.277256427862973
-2.747971821672884
-3.141858040232953
-3.2957198443579747
-3.0618499020879373
-3.0864677907479487
-3.074158846417929
-3.2095572340479768
-3.172630401057975
-3.141858040232953
-3.141858040232953
-3.160321456727955
-3.0987767350779407
-3.092622262912931
-3.080313318582939
-3.1480125123979352
-3.1295490959029335
-2.9879962361079313
-2.9572238752829105
-3.1357035680679433
-3.1110856794079322
-3.117240151572942
-3.25263853920299
-3.381882454668
-3.2711019556979917
-3.2218661783779687
-3.2341751227079882
-3.258793011367972
-3.191093817552976
-3.092622262912931
-2.9141425701278982
-2.9510694031179288
-3.2834109000279827
-3.1664759288929645
-3.080313318582939
-2.932605986622927
-3.0249230690979347
-3.055695429922928
-3.1110856794079322
-3.726532895908047
-3.8865491721980785
-3.6711426464230414
-3.4865084814730274
-3.4803540093080176
-3.449581648482997
-3.301874316522985
-3.517280842298021
-3.2280206505429785
-3.357264566007989
-3.5849800361130173
-3.449581648482997
-3.3203377330179857
-3.3511100938430074
-3.4311182319879947
-3.4188092876580036
-3.326492205182996
-3.338801149512988
-3.406500343328012
-3.412654815492993
-2.729508405177883
-1.3509066402176972
-2.680272627857888
-3.184939345387966
-3.1972482897179852
-3.191093817552976
-3.2280206505429785
-3.326492205182996
-4.341980112408136
-4.194272780448122
-3.4311182319879947
-3.2834109000279827
-3.2711019556979917
-3.326492205182996
-3.301874316522985
-3.535744258793022
-3.400345871163002
-3.338801149512988
-3.381882454668
-3.301874316522985
-3.308028788687994
-3.301874316522985
-3.400345871163002
-3.38803692683301
-3.2957198443579747
-3.308028788687994
-3.3511100938430074
-3.344955621677997
-3.301874316522985
-3.1972482897179852
-3.277256427862973
-3.3511100938430074
-3.3203377330179857
-3.289565372192993
-3.289565372192993
-3.289565372192993
-3.2280206505429785
-3.184939345387966
-3.141858040232953
-2.772589710332896
-3.289565372192993
-3.554207675288024
-3.2095572340479768
-3.301874316522985
-3.3511100938430074
-3.264947483532982
-3.1972482897179852
-3.191093817552976
-3.3203377330179857
-3.258793011367972
-3.184939345387966
-3.2218661783779687
-3.2341751227079882
-3.1049312072429505
-3.160321456727955
-3.154166984562973
-3.191093817552976
-3.0003051804379233
-3.160321456727955
-3.191093817552976
-3.172630401057975
-3.2218661783779687
-3.2403295948729705
-3.141858040232953
-2.6925815721878803
-3.3141832608529764
-3.677297118588053
-3.400345871163002
-3.369573510338009
-3.3326466773480057
-3.25263853920299
-3.2218661783779687
-3.3326466773480057
-3.338801149512988
-3.308028788687994
-3.277256427862973
-3.2711019556979917
-3.3141832608529764
-3.3141832608529764
-3.289565372192993
-3.25263853920299
-3.277256427862973
-3.2711019556979917
-3.258793011367972
-3.1480125123979352
-3.1664759288929645
-3.369573510338009
-3.2095572340479768
-3.160321456727955
-3.1664759288929645
-3.160321456727955
-3.1295490959029335
-3.1110856794079322
-3.055695429922928
-3.178784873222984
-3.092622262912931
-3.0618499020879373
-3.117240151572942
-3.117240151572942
-3.154166984562973
-3.184939345387966
-3.1233946237379517
-3.154166984562973
-3.1110856794079322
-3.1110856794079322
-3.117240151572942
-3.1295490959029335
-3.1357035680679433
-3.0987767350779407
-3.074158846417929
-3.0310775412629165
-3.0864677907479487
-3.0680043742529195
-2.981841763942921
-2.9141425701278982
-3.043386485592936
-3.0864677907479487
-3.0864677907479487
-3.092622262912931
-3.0864677907479487
-3.092622262912931
-3.080313318582939
-2.6925815721878803
-1.473996083517698
-2.901833625797906
-3.049540957757918
-4.126573586633098
-3.923476005188081
-3.400345871163002
-3.2218661783779687
-3.080313318582939
-3.043386485592936
-3.0310775412629165
-3.0126141247679152
-2.981841763942921
-3.018768596932925
-3.018768596932925
-2.981841763942921
-2.9879962361079313
-3.0310775412629165
-3.043386485592936
-2.96953281961293
-2.9572238752829105
-3.0126141247679152
-2.994150708272913
-2.975687291777912
-3.0003051804379233
-3.0126141247679152
-3.0249230690979347
-3.074158846417929
-2.981841763942921
-2.907988097962916
-2.9879962361079313
-3.0618499020879373
-3.006459652602933
-2.932605986622927
-3.0249230690979347
-3.117240151572942
-3.018768596932925
-3.018768596932925
-3.049540957757918
-3.049540957757918
-3.049540957757918
-3.074158846417929
-3.092622262912931
-3.074158846417929
-3.0680043742529195
-3.049540957757918
-3.0864677907479487
-3.080313318582939
-3.141858040232953
-3.1480125123979352
-3.0864677907479487
-2.2802319371328093
-1.4924595000126994
-2.624882378372884
-3.363419038172999
-3.037232013427927
-2.9633783474479203
-2.96953281961293
-3.006459652602933
-4.071183337148093
-3.8927036443630603
-3.1233946237379517
-2.9202970422929075
-3.074158846417929
-3.043386485592936
-3.0126141247679152
-3.018768596932925
-2.981841763942921
-2.9633783474479203
-3.0003051804379233
-2.9572238752829105
-2.9510694031179288
-2.9510694031179288
-2.994150708272913
-3.0249230690979347
-2.96953281961293
-2.9202970422929075
-3.1233946237379517
-3.0987767350779407
-3.0618499020879373
-3.0864677907479487
-3.1357035680679433
-3.215711706212987
-3.117240151572942
-3.0618499020879373
-3.074158846417929
-3.0864677907479487
-3.1110856794079322
-3.080313318582939
-3.0680043742529195
-3.0249230690979347
-3.178784873222984
-3.154166984562973
-3.154166984562973
-3.1664759288929645
-3.1233946237379517
-3.1110856794079322
-3.1233946237379517
-3.080313318582939
-3.037232013427927
-3.043386485592936
-3.037232013427927
-3.0310775412629165
-3.006459652602933
-2.975687291777912
-3.1295490959029335
-3.1110856794079322
-3.0618499020879373
-3.0680043742529195
-3.080313318582939
-3.074158846417929
-3.074158846417929
-3.049540957757918
-3.0680043742529195
-2.8895246814679143
-2.55102871239285
-3.38803692683301
-3.2957198443579747
-2.981841763942921
-2.6925815721878803
-2.975687291777912
-3.0864677907479487
-2.797207598992907
-1.91096360723278
-2.575646601052861
-2.9141425701278982
-3.0126141247679152
-2.994150708272913
-2.975687291777912
-3.2218661783779687
-4.348134584573144
-3.609597924773028
-3.1664759288929645
-3.369573510338009
-3.178784873222984
-3.0680043742529195
-3.018768596932925
-3.074158846417929
-3.037232013427927
-3.037232013427927
-3.0310775412629165
-2.975687291777912
-2.9879962361079313
-3.0310775412629165
-3.0249230690979347
-2.981841763942921
-2.981841763942921
-3.080313318582939
-3.1295490959029335
-3.018768596932925
-3.006459652602933
-3.043386485592936
-3.043386485592936
-3.037232013427927
-3.0249230690979347
-3.049540957757918
-3.049540957757918
-3.0249230690979347
-3.006459652602933
-3.0003051804379233
-2.994150708272913
-2.797207598992907
-2.9510694031179288
-3.018768596932925
-3.037232013427927
-3.043386485592936
-3.0249230690979347
-3.0680043742529195
-3.080313318582939
-3.0680043742529195
-3.0310775412629165
-3.018768596932925
-3.018768596932925
-3.018768596932925
-3.049540957757918
-3.437272704153005
-3.449581648482997
-3.1357035680679433
-3.1295490959029335
-3.074158846417929
-3.0618499020879373
-3.080313318582939
-3.055695429922928
-3.049540957757918
-3.074158846417929
-3.080313318582939
-2.581801073217871
-2.9879962361079313
-3.375727982502991
-2.7418173495078744
-2.9202970422929075
-3.006459652602933
-3.0618499020879373
-3.0680043742529195
-3.037232013427927
-3.0310775412629165
-3.0618499020879373
-3.117240151572942
-3.074158846417929
-3.037232013427927
-3.0618499020879373
-3.1110856794079322
-3.0310775412629165
-2.96953281961293
-3.154166984562973
-3.1049312072429505
-3.074158846417929
-3.055695429922928
-3.018768596932925
-3.0618499020879373
-3.074158846417929
-3.043386485592936
-3.055695429922928
-3.0987767350779407
-3.0987767350779407
-3.1049312072429505
-3.0249230690979347
-2.9633783474479203
-3.172630401057975
-3.1295490959029335
-3.0864677907479487
-3.092622262912931
-3.1110856794079322
-3.1357035680679433
-3.080313318582939
-3.0864677907479487
-3.141858040232953
-3.117240151572942
-3.080313318582939
-3.0680043742529195
-3.1049312072429505
-2.871061264972913
-2.600264489712873
-2.981841763942921
-3.0618499020879373
-3.0864677907479487
-3.0618499020879373
-3.0618499020879373
-3.080313318582939
-3.1049312072429505
-3.055695429922928
-3.0249230690979347
-3.0680043742529195
-3.1233946237379517
-2.735662877342893
-1.6401668319727392
-3.406500343328012
-3.5665166196180156
-4.495841916533155
-3.6280613412680296
-3.25263853920299
-3.2095572340479768
-3.1664759288929645
-3.1664759288929645
-3.1295490959029335
-2.68642710002287
-3.1664759288929645
-3.4803540093080176
-3.215711706212987
-3.184939345387966
-3.184939345387966
-3.2403295948729705
-3.172630401057975
-3.154166984562973
-3.1480125123979352
-3.141858040232953
-3.1049312072429505
-3.1049312072429505
-3.1295490959029335
-3.1110856794079322
-3.0864677907479487
-3.1233946237379517
-3.154166984562973
-3.0864677907479487
-3.0126141247679152
-3.184939345387966
-3.1664759288929645
-3.184939345387966
-3.1357035680679433
-3.117240151572942
-3.160321456727955
-3.1110856794079322
-3.0864677907479487
-3.1049312072429505
-3.117240151572942
-3.1233946237379517
-3.1110856794079322
-3.043386485592936
-3.1049312072429505
-3.25263853920299
-3.1357035680679433
-3.080313318582939
-3.117240151572942
-3.1110856794079322
-3.1049312072429505
-3.0864677907479487
-3.1233946237379517
-3.1233946237379517
-3.1295490959029335
-3.0987767350779407
-3.117240151572942
-3.117240151572942
-3.055695429922928
-3.154166984562973
-3.1480125123979352
-3.154166984562973
-3.1664759288929645
-3.080313318582939
-2.618727906207874
-3.2034027618829675
-3.615752396938038
-3.2034027618829675
-3.080313318582939
-3.1664759288929645
-3.1972482897179852
-3.117240151572942
-3.0680043742529195
-3.258793011367972
-3.2034027618829675
-3.1233946237379517
-3.141858040232953
-3.2034027618829675
-3.178784873222984
-3.154166984562973
-3.1233946237379517
-3.141858040232953
-3.178784873222984
-3.184939345387966
-3.154166984562973
-3.117240151572942
-3.0618499020879373
-3.2403295948729705
-3.172630401057975
-3.1110856794079322
-3.1295490959029335
-3.1110856794079322
-3.1110856794079322
-3.1110856794079322
-3.1295490959029335
-3.154166984562973
-3.172630401057975
-3.1357035680679433
-3.1357035680679433
-3.1110856794079322
-3.1295490959029335
-3.2403295948729705
-3.1972482897179852
-3.184939345387966
-3.1357035680679433
-3.1049312072429505
-3.1295490959029335
-3.178784873222984
-3.1295490959029335
-3.1110856794079322
-3.1233946237379517
-3.154166984562973
-3.1295490959029335
-3.080313318582939
-2.9264515144579173
-2.760280766002876
-3.0249230690979347
-3.074158846417929
-3.0680043742529195
-3.1233946237379517
-3.141858040232953
-2.932605986622927
-1.3078253350626845
-2.4648661020828517
-3.578825563948035
-3.184939345387966
-3.1110856794079322
-3.092622262912931
-3.080313318582939
-3.4988174258030194
-4.378906945398136
-3.4865084814730274
-3.2403295948729705
-3.2034027618829675
-3.160321456727955
-3.117240151572942
-3.1480125123979352
-3.154166984562973
-3.141858040232953
-3.1357035680679433
-3.141858040232953
-3.1049312072429505
-3.191093817552976
-3.5849800361130173
-3.344955621677997
-3.178784873222984
-3.1357035680679433
-3.1110856794079322
-3.1049312072429505
-3.1233946237379517
-3.0987767350779407
-3.0680043742529195
-3.074158846417929
-3.092622262912931
-3.1110856794079322
-3.018768596932925
-2.975687291777912
-2.9879962361079313
-3.080313318582939
-3.055695429922928
-3.080313318582939
-3.117240151572942
-3.117240151572942
-3.0987767350779407
-3.074158846417929
-3.117240151572942
-3.1110856794079322
-3.0864677907479487
-3.055695429922928
-3.117240151572942
-3.080313318582939
-3.0126141247679152
-3.1664759288929645
-3.1233946237379517
-3.1295490959029335
-3.0987767350779407
-3.1295490959029335
-3.092622262912931
-3.043386485592936
-3.0618499020879373
-3.006459652602933
-3.0126141247679152
-3.0680043742529195
-3.074158846417929
-3.037232013427927
-2.975687291777912
-2.7171994608478913
-3.2341751227079882
-3.504971897968029
-3.2218661783779687
-3.184939345387966
-3.1664759288929645
-3.0864677907479487
-3.0680043742529195
-3.1110856794079322
-3.117240151572942
-3.1233946237379517
-3.117240151572942
-3.160321456727955
-2.6987360443528896
-2.6987360443528896
-3.0126141247679152
-3.1110856794079322
-3.1480125123979352
-3.1480125123979352
-3.1480125123979352
-3.141858040232953
-3.1357035680679433
-3.160321456727955
-3.1664759288929645
-3.154166984562973
-3.1480125123979352
-3.092622262912931
-3.338801149512988
-3.529589786628012
-3.2341751227079882
-3.141858040232953
-3.080313318582939
-3.0618499020879373
-3.1295490959029335
-3.1295490959029335
-3.1110856794079322
-3.1233946237379517
-3.1664759288929645
-3.1664759288929645
-3.1664759288929645
-3.141858040232953
-3.0987767350779407
-3.25263853920299
-3.184939345387966
-3.1233946237379517
-3.2034027618829675
-3.1664759288929645
-3.1233946237379517
-3.141858040232953
-3.1295490959029335
-3.154166984562973
-3.1664759288929645
-3.1664759288929645
-3.1664759288929645
-3.1295490959029335
-2.994150708272913
-2.8033620711578893
-3.043386485592936
-2.735662877342893
-1.5355408051677124
-2.932605986622927
-3.7142239515780546
-4.298898807253121
-3.375727982502991
-3.154166984562973
-3.1233946237379517
-3.117240151572942
-3.1480125123979352
-3.1357035680679433
-3.191093817552976
-3.474199537143008
-3.338801149512988
-3.2034027618829675
-3.160321456727955
-3.160321456727955
-3.2095572340479768
-3.2034027618829675
-3.172630401057975
-3.191093817552976
-3.178784873222984
-3.172630401057975
-3.172630401057975
-3.172630401057975
-3.1480125123979352
-3.1295490959029335
-3.2095572340479768
-3.1972482897179852
-3.191093817552976
-3.184939345387966
-3.178784873222984
-3.2034027618829675
-3.178784873222984
-3.191093817552976
-3.2341751227079882
-3.2280206505429785
-3.178784873222984
-3.1972482897179852
-3.178784873222984
-3.2341751227079882
-3.3326466773480057
-3.2711019556979917
-3.24648406703798
-3.2218661783779687
-3.2280206505429785
-3.264947483532982
-3.2711019556979917
-3.25263853920299
-3.2218661783779687
-3.2834109000279827
-3.2711019556979917
-3.2403295948729705
-3.178784873222984
-3.141858040232953
-3.338801149512988
-3.289565372192993
-3.277256427862973
-3.3141832608529764
-3.289565372192993
-3.24648406703798
-3.24648406703798
-3.258793011367972
-3.2711019556979917
-2.778744182497905
-3.2834109000279827
-3.664988174258033
-3.338801149512988
-3.258793011367972
-3.344955621677997
-3.264947483532982
-3.2834109000279827
-3.25263853920299
-3.2218661783779687
-3.2341751227079882
-3.25263853920299
-3.2280206505429785
-3.215711706212987
-3.2034027618829675
-3.1972482897179852
-3.2034027618829675
-3.160321456727955
-3.049540957757918
-3.2711019556979917
-3.2957198443579747
-3.264947483532982
-3.2034027618829675
-3.2341751227079882
-3.2834109000279827
-3.1110856794079322
-2.747971821672884
-2.7848986546628876
-2.944914930952919
-2.9202970422929075
-2.9264515144579173
-2.8895246814679143
-2.538719768062857
-2.304849825792821
-2.8095165433228986
-3.0618499020879373
-3.141858040232953
-3.1110856794079322
-3.1480125123979352
-3.184939345387966
-3.2034027618829675
-2.834134431982911
-3.308028788687994
-3.615752396938038
-3.504971897968029
-3.504971897968029
-3.720378423743037
-4.237354085603107
-3.6834515907530343
-3.4988174258030194
-3.406500343328012
-3.381882454668
-3.449581648482997
-3.554207675288024
-3.5665166196180156
-3.468045064977998
-3.504971897968029
-3.664988174258033
-3.38803692683301
-2.4525571577528327
-3.2218661783779687
-3.658833702093051
-3.701915007248036
-3.6711426464230414
-3.6834515907530343
-4.637394776328185
-4.662012664988168
-3.9419394216830828
-3.855776811373057
-3.7942320897230712
-3.7511507845680576
-3.664988174258033
-3.394191398997992
-3.375727982502991
-3.412654815492993
-3.461890592813016
-3.406500343328012
-3.412654815492993
-3.25263853920299
-3.1295490959029335
-2.9202970422929075
-2.7910531268278973
-2.821825487652891
-2.674118155692878
-2.3110042979578305
-2.150988021667799
-2.187914854657802
-2.255614048472826
-2.224841687647805
-2.255614048472826
-2.409475852597848
-2.434093741257831
-2.4525571577528327
-2.5325652958978484
-2.5694921288878514
-2.6064189618778553
-2.655654739197877
-2.538719768062857
-2.507947407237865
-2.587955545382853
-2.575646601052861
-2.575646601052861
-2.501792935072855
-2.4894839907428636
-2.655654739197877
-2.631036850537866
-2.631036850537866
-2.704890516517872
-2.735662877342893
-2.760280766002876
-2.754126293837894
-2.778744182497905
-2.8525978484779113
-2.871061264972913
-2.8464433763129016
-2.8895246814679143
-2.8895246814679143
-2.8895246814679143
-2.96953281961293
-2.9510694031179288
-2.9202970422929075
-2.8464433763129016
-2.4156303247628297
-2.975687291777912
-3.2834109000279827
-2.9572238752829105
-2.871061264972913
-2.772589710332896
-1.467841611352716
-2.089443300017785
-2.680272627857888
-2.667963683527869
-2.8402889041478923
-2.747971821672884
-2.735662877342893
-2.907988097962916
-4.0404109763231
-3.492662953638009
-2.9141425701278982
-2.778744182497905
-2.754126293837894
-2.729508405177883
-2.68642710002287
-2.674118155692878
-2.6433457948678853
-2.5694921288878514
-2.7910531268278973
-2.575646601052861
-2.6371913227028756
-2.6371913227028756
-2.600264489712873
-2.674118155692878
-2.575646601052861
-2.544874240227868
-2.618727906207874
-2.6618092113628857
-2.6371913227028756
-2.631036850537866
-2.649500267032867
-2.507947407237865
-2.538719768062857
-2.6925815721878803
-2.711044988682881
-2.711044988682881
-2.729508405177883
-2.754126293837894
-2.760280766002876
-2.760280766002876
-2.7910531268278973
-2.772589710332896
-2.7910531268278973
-2.8095165433228986
-2.797207598992907
-2.723353933012873
-2.4648661020828517
-2.6925815721878803
-2.821825487652891
-2.821825487652891
-2.8649067928079033
-2.883370209302905
-2.55102871239285
-1.6401668319727392
-2.4217847969278394
-3.812695506218072
-3.720378423743037
-3.037232013427927
-2.907988097962916
-3.018768596932925
-3.4803540093080176
-3.141858040232953
-3.0310775412629165
-3.0126141247679152
-3.0249230690979347
-3.043386485592936
-3.0864677907479487
-3.1233946237379517
-3.1049312072429505
-3.074158846417929
-3.0003051804379233
-2.975687291777912
-2.9141425701278982
-2.877215737137895
-3.018768596932925
-3.043386485592936
-2.96953281961293
-2.9264515144579173
-2.9633783474479203
-2.9633783474479203
-2.8649067928079033
-2.8649067928079033
-2.8464433763129016
-2.858752320642893
-2.8649067928079033
-2.8464433763129016
-2.858752320642893
-2.8402889041478923
-2.797207598992907
-2.944914930952919
-2.871061264972913
-2.883370209302905
-2.858752320642893
-2.8649067928079033
-2.871061264972913
-2.8525978484779113
-2.895679153632896
-2.877215737137895
-2.871061264972913
-2.8895246814679143
-2.9264515144579173
-2.8525978484779113
-2.434093741257831
-2.618727906207874
-2.8095165433228986
-2.8525978484779113
-2.8402889041478923
-2.8095165433228986
-2.8279799598179
-2.8525978484779113
-2.858752320642893
-2.834134431982911
-2.8464433763129016
-2.8464433763129016
-2.8279799598179
-2.7910531268278973
-2.754126293837894
-3.3203377330179857
-3.344955621677997
-2.981841763942921
-2.883370209302905
-2.8525978484779113
-2.8649067928079033
-2.8402889041478923
-2.834134431982911
-2.8649067928079033
-2.821825487652891
-2.8279799598179
-2.8402889041478923
-2.7910531268278973
-2.723353933012873
-2.8279799598179
-2.821825487652891
-2.8649067928079033
-2.8402889041478923
-2.8279799598179
-2.821825487652891
-2.834134431982911
-2.8279799598179
-2.821825487652891
-2.797207598992907
-2.7848986546628876
-2.8095165433228986
-2.797207598992907
-2.8279799598179
-2.9141425701278982
-2.8649067928079033
-2.8649067928079033
-2.877215737137895
-2.877215737137895
-2.8525978484779113
-2.821825487652891
-2.834134431982911
-2.8033620711578893
-2.797207598992907
-2.821825487652891
-2.815671015487909
-2.778744182497905
-2.612573434042864
-2.7418173495078744
-2.8402889041478923
-2.8464433763129016
-2.8649067928079033
-2.8649067928079033
-2.8464433763129016
-2.858752320642893
-2.8279799598179
-2.8464433763129016
-2.8402889041478923
-2.815671015487909
-2.8464433763129016
-2.8464433763129016
-2.729508405177883
-2.5694921288878514
-2.4279392690928487
-1.615548943312728
-2.3417766587828237
-2.655654739197877
-2.747971821672884
-2.7848986546628876
-2.975687291777912
-4.151191475293109
-3.4865084814730274
-2.981841763942921
-2.895679153632896
-2.8402889041478923
-2.9202970422929075
-3.191093817552976
-3.006459652602933
-2.883370209302905
-2.901833625797906
-2.895679153632896
-2.895679153632896
-2.871061264972913
-2.821825487652891
-2.877215737137895
-2.8525978484779113
-2.8279799598179
-2.8525978484779113
-2.8525978484779113
-2.858752320642893
-2.944914930952919
-3.006459652602933
-2.8895246814679143
-2.901833625797906
-2.9141425701278982
-2.907988097962916
-2.877215737137895
-2.8895246814679143
-2.9141425701278982
-2.883370209302905
-2.858752320642893
-2.877215737137895
-2.9264515144579173
-2.871061264972913
-2.821825487652891
-2.9387604587879093
-2.858752320642893
-2.834134431982911
-2.815671015487909
-2.8525978484779113
-2.8525978484779113
-2.8525978484779113
-2.834134431982911
-2.821825487652891
-2.8464433763129016
-2.8279799598179
-2.8279799598179
-2.7848986546628876
-2.8033620711578893
-2.8095165433228986
-2.778744182497905
-2.7910531268278973
-2.7848986546628876
-2.8095165433228986
-2.766435238167886
-2.711044988682881
-2.649500267032867
-2.194069326822812
-2.7171994608478913
-2.994150708272913
-2.674118155692878
-2.5694921288878514
-2.507947407237865
-2.538719768062857
-2.55102871239285
-2.5694921288878514
-2.5325652958978484
-2.520256351567857
-2.501792935072855
-2.4894839907428636
-2.077134355687793
-2.520256351567857
-2.778744182497905
-2.581801073217871
-2.538719768062857
-2.4525571577528327
-2.378703491772827
-2.575646601052861
-2.55102871239285
-2.483329518577854
-2.4587116299178424
-2.538719768062857
-2.544874240227868
-2.55102871239285
-2.544874240227868
-2.55102871239285
-2.538719768062857
-2.55718318455786
-2.538719768062857
-2.575646601052861
-2.575646601052861
-2.729508405177883
-2.723353933012873
-2.8402889041478923
-2.674118155692878
-2.704890516517872
-2.747971821672884
-2.7171994608478913
-2.723353933012873
-2.760280766002876
-2.723353933012873
-2.68642710002287
-2.6925815721878803
-2.68642710002287
-2.6371913227028756
-2.600264489712873
-2.6371913227028756
-2.667963683527869
-2.649500267032867
-2.6371913227028756
-2.649500267032867
-2.600264489712873
-2.5694921288878514
-2.581801073217871
-2.563337656722869
-2.2433051041428067
-1.3201342793926762
-2.2925408814628288
-3.6711426464230414
-3.326492205182996
-2.8033620711578893
-2.538719768062857
-2.507947407237865
-2.507947407237865
-2.5141018794028467
-2.563337656722869
-2.477175046412844
-2.495638462907845
-2.618727906207874
-2.667963683527869
-2.655654739197877
-2.667963683527869
-2.618727906207874
-1.8863457185727683
-1.1601180031026725
-1.8371099412527454
-3.043386485592936
-2.8464433763129016
-2.6987360443528896
-2.667963683527869
-2.723353933012873
-3.461890592813016
-3.8434678670430653
-2.883370209302905
-2.6371913227028756
-2.520256351567857
-2.4894839907428636
-2.631036850537866
-2.495638462907845
-2.3848579639378364
-2.3171587701228398
-2.2679229928028177
-2.2309961598128147
-2.212532743317813
-2.194069326822812
-2.1694514381628007
-2.212532743317813
-2.2186872154828228
-2.2802319371328093
-2.304849825792821
-2.329467714452832
-2.471020574247862
-2.55718318455786
-2.526410823732866
-2.618727906207874
-2.631036850537866
-2.624882378372884
-2.6618092113628857
-2.6618092113628857
-2.6433457948678853
-2.667963683527869
-2.6618092113628857
-2.655654739197877
-2.680272627857888
-2.624882378372884
-2.563337656722869
-2.667963683527869
-2.624882378372884
-2.618727906207874
-2.624882378372884
-2.6925815721878803
-2.6618092113628857
-2.600264489712873
-2.587955545382853
-2.5325652958978484
-2.501792935072855
-2.4894839907428636
-2.434093741257831
-2.304849825792821
-1.9171180793977614
-1.9048091350677696
-1.9971262175427773
-1.9848172732127856
-1.9294270237277809
-1.9171180793977614
-1.9048091350677696
-1.818646524757745
-1.437069250527695
-2.2309961598128147
-2.507947407237865
-2.2679229928028177
-2.335622186617841
-2.4156303247628297
-2.760280766002876
-3.049540957757918
-2.7910531268278973
-2.797207598992907
-2.8279799598179
-2.8649067928079033
-2.834134431982911
-2.8649067928079033
-2.8895246814679143
-2.8649067928079033
-2.8525978484779113
-2.8464433763129016
-2.834134431982911
-2.7848986546628876
-2.674118155692878
-2.772589710332896
-2.8279799598179
-2.797207598992907
-2.766435238167886
-2.8402889041478923
-2.8895246814679143
-2.9264515144579173
-3.055695429922928
-3.1480125123979352
-3.0987767350779407
-3.178784873222984
-3.191093817552976
-3.141858040232953
-2.9141425701278982
-2.587955545382853
-3.1049312072429505
-3.074158846417929
-3.178784873222984
-3.338801149512988
-3.0987767350779407
-2.403321380432838
-3.1110856794079322
-3.5849800361130173
-4.052719920653092
-5.35131354746829
-6.477581953663436
-6.545281147478432
-5.517484295923303
-5.74519976602833
-5.080516772208249
-4.772793163958206
-4.668167137153178
-4.588158999008163
-4.514305333028156
-4.458915083543152
-4.409679306223158
-4.3173622237481215
-4.249663029933126
-4.2311996134381245
-4.2311996134381245
-4.120419114468116
-4.0342565041580905
-4.058874392818101
-4.0958012258081045
-4.028102031993082
-3.9850207268380964
-3.9850207268380964
-4.015793087663089
-3.972711782508076
-3.9111670608580615
-3.923476005188081
-3.898858116528071
-3.849622339208075
-3.8188499783830547
-3.7942320897230712
-3.781923145393051
-3.8434678670430653
-3.868085755703077
-3.7757686732280415
-3.781923145393051
-3.806541034053064
-3.7449963124030474
-3.7080694794130453
-3.738841840238039
-3.7142239515780546
-3.6834515907530343
-3.634215813433039
-3.664988174258033
-3.615752396938038
-3.548053203123014
-3.504971897968029
-3.615752396938038
-3.615752396938038
-3.511126370133011
-3.4557361206480066
-3.424963759823013
-3.437272704153005
-3.424963759823013
-3.412654815492993
-3.400345871163002
-3.474199537143008
-3.461890592813016
-3.357264566007989
-2.8402889041478923
-3.468045064977998
-3.9050125886930798
-3.4865084814730274
-3.4188092876580036
-3.4188092876580036
-3.406500343328012
-3.412654815492993
-3.357264566007989
-3.344955621677997
-3.369573510338009
-3.344955621677997
-3.301874316522985
-3.3326466773480057
-3.3141832608529764
-3.2095572340479768
-3.301874316522985
-3.3203377330179857
-3.277256427862973
-3.2711019556979917
-3.258793011367972
-3.24648406703798
-3.301874316522985
-3.3203377330179857
-3.2957198443579747
-3.2957198443579747
-3.3326466773480057
-3.38803692683301
-3.3326466773480057
-3.277256427862973
-3.4311182319879947
-3.406500343328012
-3.400345871163002
-3.357264566007989
-3.357264566007989
-3.406500343328012
-3.394191398997992
-3.357264566007989
-3.375727982502991
-3.375727982502991
-3.338801149512988
-3.3141832608529764
-3.326492205182996
-3.381882454668
-3.424963759823013
-3.394191398997992
-3.394191398997992
-3.38803692683301
-3.375727982502991
-3.4988174258030194
-3.301874316522985
-3.308028788687994
-2.9264515144579173
-3.406500343328012
-3.658833702093051
-3.412654815492993
-3.375727982502991
-3.25263853920299
-2.7418173495078744
-1.7201749701177547
-3.8434678670430653
-4.606622415503164
-3.658833702093051
-3.4557361206480066
-3.4311182319879947
-3.412654815492993
-3.38803692683301
-3.369573510338009
-3.381882454668
-3.424963759823013
-3.363419038172999
-3.394191398997992
-3.726532895908047
-3.529589786628012
-3.400345871163002
-3.369573510338009
-3.381882454668
-3.406500343328012
-3.394191398997992
-3.3203377330179857
-2.624882378372884
-1.8863457185727683
-1.9417359680577726
-2.114061188677796
-2.255614048472826
-2.403321380432838
-2.538719768062857
-2.655654739197877
-2.624882378372884
-2.711044988682881
-2.711044988682881
-2.674118155692878
-2.711044988682881
-2.778744182497905
-2.815671015487909
-2.9633783474479203
-3.0003051804379233
-2.9633783474479203
-2.9572238752829105
-2.9387604587879093
-3.055695429922928
-3.141858040232953
-2.9633783474479203
-3.0003051804379233
-3.018768596932925
-2.8402889041478923
-2.760280766002876
-2.8402889041478923
-2.680272627857888
-2.680272627857888
-2.8033620711578893
-2.8095165433228986
-2.815671015487909
-2.778744182497905
-2.680272627857888
-2.8402889041478923
-2.8525978484779113
-2.907988097962916
-2.907988097962916
-2.901833625797906
-2.9264515144579173
-2.901833625797906
-2.520256351567857
-3.1110856794079322
-3.412654815492993
-3.055695429922928
-3.092622262912931
-3.0680043742529195
-3.0987767350779407
-3.074158846417929
-3.049540957757918
-3.172630401057975
-3.184939345387966
-3.1480125123979352
-3.1357035680679433
-3.1480125123979352
-3.141858040232953
-3.092622262912931
-3.1049312072429505
-3.160321456727955
-3.2034027618829675
-3.1295490959029335
-3.037232013427927
-3.406500343328012
-3.381882454668
-3.2034027618829675
-3.1233946237379517
-2.3110042979578305
-2.575646601052861
-2.766435238167886
-2.944914930952919
-3.0126141247679152
-3.1295490959029335
-3.2095572340479768
-3.38803692683301
-4.471224027873144
-3.7511507845680576
-3.308028788687994
-3.0618499020879373
-3.055695429922928
-3.289565372192993
-3.406500343328012
-3.394191398997992
-3.2711019556979917
-3.172630401057975
-3.1295490959029335
-3.074158846417929
-3.092622262912931
-3.0618499020879373
-3.074158846417929
-2.944914930952919
-2.96953281961293
-3.1233946237379517
-3.1357035680679433
-3.178784873222984
-3.0987767350779407
-3.0003051804379233
-3.2034027618829675
-3.1664759288929645
-3.092622262912931
-2.8464433763129016
-1.9848172732127856
-2.6925815721878803
-3.0987767350779407
-3.172630401057975
-3.1295490959029335
-4.181963836118102
-4.403524834058148
-3.535744258793022
-3.381882454668
-3.424963759823013
-3.344955621677997
-3.357264566007989
-3.400345871163002
-3.437272704153005
-3.394191398997992
-3.215711706212987
-3.117240151572942
-3.363419038172999
-3.9419394216830828
-3.6219068691030203
-3.5234353144630304
-3.5418987309580316
-3.4803540093080176
-3.381882454668
-3.400345871163002
-3.344955621677997
-3.2834109000279827
-3.24648406703798
-3.2834109000279827
-3.215711706212987
-3.1110856794079322
-3.1480125123979352
-3.184939345387966
-3.289565372192993
-3.258793011367972
-3.264947483532982
-3.3203377330179857
-3.2711019556979917
-3.1357035680679433
-3.141858040232953
-3.289565372192993
-3.3203377330179857
-3.2280206505429785
-3.092622262912931
-3.0680043742529195
-3.1049312072429505
-3.357264566007989
-3.504971897968029
-3.3203377330179857
-3.2834109000279827
-3.289565372192993
-3.2834109000279827
-3.2218661783779687
-3.2280206505429785
-3.258793011367972
-3.25263853920299
-3.2341751227079882
-3.25263853920299
-3.2095572340479768
-3.1664759288929645
-3.043386485592936
-3.1664759288929645
-3.178784873222984
-2.7848986546628876
-3.2403295948729705
-3.578825563948035
-3.2957198443579747
-3.215711706212987
-3.2218661783779687
-3.178784873222984
-3.1233946237379517
-3.092622262912931
-3.092622262912931
-3.184939345387966
-3.154166984562973
-3.338801149512988
-3.2711019556979917
-3.178784873222984
-3.2034027618829675
-3.2034027618829675
-3.154166984562973
-3.1295490959029335
-3.160321456727955
-3.2034027618829675
-3.184939345387966
-3.191093817552976
-3.2034027618829675
-3.2403295948729705
-3.160321456727955
-3.258793011367972
-3.184939345387966
-3.2711019556979917
-3.258793011367972
-3.215711706212987
-3.2280206505429785
-3.25263853920299
-3.264947483532982
-3.2218661783779687
-3.1664759288929645
-3.154166984562973
-3.1295490959029335
-3.1110856794079322
-3.1357035680679433
-3.4557361206480066
-3.369573510338009
-3.184939345387966
-3.160321456727955
-3.117240151572942
-3.154166984562973
-3.184939345387966
-3.092622262912931
-3.1233946237379517
-3.2218661783779687
-3.172630401057975
-3.178784873222984
-3.178784873222984
-3.0864677907479487
-3.2403295948729705
-3.2218661783779687
-3.141858040232953
-3.0618499020879373
-2.624882378372884
-1.4863050278477177
-3.9973296711680857
-4.058874392818101
-3.289565372192993
-3.1295490959029335
-3.2957198443579747
-3.3141832608529764
-3.289565372192993
-3.178784873222984
-3.043386485592936
-3.080313318582939
-3.301874316522985
-3.264947483532982
-3.141858040232953
-3.1233946237379517
-3.184939345387966
-3.1664759288929645
-3.1357035680679433
-3.117240151572942
-3.172630401057975
-3.178784873222984
-3.1110856794079322
-3.141858040232953
-3.2341751227079882
-3.2341751227079882
-3.172630401057975
-3.0987767350779407
-3.117240151572942
-3.1110856794079322
-3.043386485592936
-3.0680043742529195
-3.092622262912931
-3.1357035680679433
-3.055695429922928
-3.0310775412629165
-3.018768596932925
-3.0310775412629165
-3.080313318582939
-3.154166984562973
-3.0987767350779407
-3.080313318582939
-3.1664759288929645
-3.1664759288929645
-3.1110856794079322
-3.1357035680679433
-3.1110856794079322
-3.0680043742529195
-3.018768596932925
-3.037232013427927
-3.0310775412629165
-2.944914930952919
-3.006459652602933
-3.1233946237379517
-3.0618499020879373
-3.0680043742529195
-3.0126141247679152
-3.0310775412629165
-3.055695429922928
-3.043386485592936
-3.0310775412629165
-3.080313318582939
-3.074158846417929
-3.0249230690979347
-2.526410823732866
-2.96953281961293
-3.344955621677997
-3.160321456727955
-3.1295490959029335
-3.0987767350779407
-3.0618499020879373
-3.049540957757918
-3.0680043742529195
-3.0618499020879373
-3.055695429922928
-3.043386485592936
-3.018768596932925
-2.981841763942921
-3.055695429922928
-3.0126141247679152
-2.704890516517872
-2.7848986546628876
-2.975687291777912
-3.0249230690979347
-3.0680043742529195
-3.055695429922928
-3.0864677907479487
-3.117240151572942
-2.507947407237865
-3.080313318582939
-3.474199537143008
-3.1357035680679433
-3.037232013427927
-2.907988097962916
-3.2095572340479768
-3.4311182319879947
-3.178784873222984
-3.1480125123979352
-3.2095572340479768
-3.369573510338009
-3.3141832608529764
-3.2095572340479768
-3.2341751227079882
-3.2218661783779687
-3.2034027618829675
-3.2403295948729705
-3.172630401057975
-3.1480125123979352
-3.092622262912931
-3.0864677907479487
-3.1664759288929645
-3.172630401057975
-3.178784873222984
-3.1972482897179852
-3.172630401057975
-3.160321456727955
-3.160321456727955
-3.191093817552976
-3.1664759288929645
-3.1295490959029335
-3.1480125123979352
-3.1357035680679433
-2.8649067928079033
-1.954044912387765
-3.141858040232953
-3.1664759288929645
-3.092622262912931
-3.24648406703798
-4.403524834058148
-3.788077617558061
-3.24648406703798
-3.1295490959029335
-3.117240151572942
-3.1110856794079322
-3.141858040232953
-3.1049312072429505
-3.080313318582939
-3.3141832608529764
-3.258793011367972
-3.1295490959029335
-3.1295490959029335
-3.1664759288929645
-3.141858040232953
-3.215711706212987
-3.117240151572942
-3.0864677907479487
-3.117240151572942
-3.1049312072429505
-3.0864677907479487
-3.0987767350779407
-2.981841763942921
-2.7171994608478913
-3.037232013427927
-3.1480125123979352
-3.1110856794079322
-3.0864677907479487
-3.0987767350779407
-3.1295490959029335
-3.178784873222984
-2.501792935072855
-1.6463213041377216
-2.434093741257831
-3.437272704153005
-3.191093817552976
-3.0310775412629165
-3.0310775412629165
-3.2095572340479768
-4.1573459474581185
-4.181963836118102
-3.369573510338009
-3.264947483532982
-3.2095572340479768
-3.184939345387966
-3.172630401057975
-3.2280206505429785
-3.2280206505429785
-3.178784873222984
-3.160321456727955
-3.1295490959029335
-3.1357035680679433
-3.1110856794079322
-3.0618499020879373
-3.117240151572942
-3.1480125123979352
-3.1357035680679433
-3.1233946237379517
-3.1233946237379517
-3.154166984562973
-3.172630401057975
-3.1664759288929645
-3.1480125123979352
-3.1233946237379517
-3.117240151572942
-3.092622262912931
-3.191093817552976
-3.1295490959029335
-3.1480125123979352
-3.117240151572942
-3.191093817552976
-3.1357035680679433
-3.1049312072429505
-3.1357035680679433
-3.1357035680679433
-3.1664759288929645
-3.178784873222984
-3.184939345387966
-3.1480125123979352
-3.117240151572942
-3.3203377330179857
-3.25263853920299
-3.215711706212987
-3.25263853920299
-3.289565372192993
-3.3141832608529764
-3.308028788687994
-3.3203377330179857
-3.3511100938430074
-3.3511100938430074
-3.326492205182996
-3.2957198443579747
-3.289565372192993
-3.258793011367972
-3.308028788687994
-2.8402889041478923
-3.554207675288024
-3.5911345082780266
-3.338801149512988
-3.308028788687994
-3.338801149512988
-3.338801149512988
-3.338801149512988
-3.344955621677997
-3.357264566007989
-3.400345871163002
-3.357264566007989
-3.264947483532982
-3.437272704153005
-3.4311182319879947
-3.38803692683301
-3.338801149512988
-3.344955621677997
-3.4188092876580036
-3.4311182319879947
-3.369573510338009
-3.0249230690979347
-2.3848579639378364
-4.2311996134381245
-3.849622339208075
-3.449581648482997
-3.357264566007989
-3.4188092876580036
-3.1480125123979352
-3.043386485592936
-3.2218661783779687
-3.24648406703798
-3.191093817552976
-3.2403295948729705
-3.289565372192993
-3.3203377330179857
-3.258793011367972
-3.2034027618829675
-3.3326466773480057
-3.308028788687994
-3.178784873222984
-3.2403295948729705
-3.338801149512988
-3.406500343328012
-3.369573510338009
-3.308028788687994
-3.2834109000279827
-3.375727982502991
-3.3511100938430074
-3.2711019556979917
-3.2341751227079882
-3.277256427862973
-3.38803692683301
-3.326492205182996
-3.154166984562973
-2.667963683527869
-3.037232013427927
-3.2280206505429785
-3.2834109000279827
-3.301874316522985
-3.3326466773480057
-3.24648406703798
-3.2095572340479768
-3.24648406703798
-3.3326466773480057
-3.308028788687994
-3.2834109000279827
-3.25263853920299
-3.38803692683301
-3.9542483660130747
-3.597288980443037
-3.344955621677997
-3.344955621677997
-3.344955621677997
-3.289565372192993
-3.2403295948729705
-3.2218661783779687
-3.25263853920299
-3.24648406703798
-3.2403295948729705
-3.2711019556979917
-3.2711019556979917
-3.191093817552976
-3.184939345387966
-3.25263853920299
-2.772589710332896
-3.308028788687994
-3.6280613412680296
-3.3326466773480057
-3.2834109000279827
-3.2280206505429785
-3.191093817552976
-3.2095572340479768
-3.277256427862973
-3.289565372192993
-3.2834109000279827
-3.2034027618829675
-3.2711019556979917
-3.326492205182996
-3.2403295948729705
-3.2403295948729705
-3.308028788687994
-3.2711019556979917
-3.2218661783779687
-3.1480125123979352
-3.2280206505429785
-3.338801149512988
-3.308028788687994
-3.277256427862973
-3.3141832608529764
-3.2834109000279827
-3.2218661783779687
-3.326492205182996
-3.301874316522985
-3.3203377330179857
-3.2957198443579747
-3.264947483532982
-3.2711019556979917
-3.3203377330179857
-3.326492205182996
-3.277256427862973
-3.277256427862973
-3.289565372192993
-3.308028788687994
-3.2834109000279827
-3.2403295948729705
-3.326492205182996
-3.3203377330179857
-3.301874316522985
-3.277256427862973
-3.25263853920299
-3.2403295948729705
-3.215711706212987
-3.2341751227079882
-3.2034027618829675
-3.1972482897179852
-3.215711706212987
-3.2218661783779687
-3.160321456727955
-3.0987767350779407
-3.25263853920299
-3.2403295948729705
-3.178784873222984
-2.8895246814679143
-2.0278985783677985
-2.704890516517872
-3.0003051804379233
-3.117240151572942
-3.6219068691030203
-4.471224027873144
-3.535744258793022
-3.2711019556979917
-3.160321456727955
-3.0618499020879373
-2.883370209302905
-3.092622262912931
-3.1480125123979352
-3.141858040232953
-3.141858040232953
-3.1480125123979352
-3.1664759288929645
-3.178784873222984
-3.154166984562973
-3.1110856794079322
-3.1295490959029335
-3.0987767350779407
-3.0680043742529195
-3.154166984562973
-3.449581648482997
-3.2403295948729705
-3.1233946237379517
-3.080313318582939
-3.0680043742529195
-3.1233946237379517
-3.0987767350779407
-3.0618499020879373
-3.080313318582939
-3.055695429922928
-3.037232013427927
-3.0680043742529195
-3.080313318582939
-3.037232013427927
-3.0618499020879373
-3.074158846417929
-3.0680043742529195
-3.080313318582939
-3.080313318582939
-3.0249230690979347
-3.049540957757918
-3.117240151572942
-3.049540957757918
-3.0126141247679152
-3.0680043742529195
-3.0987767350779407
-3.080313318582939
-3.037232013427927
-3.043386485592936
-3.2034027618829675
-3.1295490959029335
-3.055695429922928
-3.0987767350779407
-3.1357035680679433
-3.1295490959029335
-2.667963683527869
-3.0987767350779407
-3.400345871163002
-3.141858040232953
-2.674118155692878
-3.178784873222984
-3.535744258793022
-3.25263853920299
-3.191093817552976
-3.1233946237379517
-3.1049312072429505
-3.1480125123979352
-3.160321456727955
-3.1664759288929645
-3.1972482897179852
-3.2095572340479768
-3.2095572340479768
-3.154166984562973
-3.160321456727955
-3.2034027618829675
-3.1664759288929645
-3.0618499020879373
-3.191093817552976
-3.1972482897179852
-3.2280206505429785
-3.215711706212987
-3.178784873222984
-3.25263853920299
-3.2403295948729705
-3.154166984562973
-3.1049312072429505
-3.1233946237379517
-3.141858040232953
-3.1357035680679433
-3.092622262912931
-3.055695429922928
-3.215711706212987
-3.160321456727955
-3.1233946237379517
-3.1664759288929645
-3.1357035680679433
-3.1233946237379517
-3.1480125123979352
-3.1295490959029335
-3.141858040232953
-3.1480125123979352
-3.141858040232953
-2.907988097962916
-1.5170773886727107
-2.754126293837894
-3.184939345387966
-3.154166984562973
-3.141858040232953
-3.1357035680679433
-3.1295490959029335
-3.554207675288024
-4.520459805193168
-3.640370285598049
-3.308028788687994
-3.184939345387966
-3.191093817552976
-3.215711706212987
-2.815671015487909
-1.9971262175427773
-3.855776811373057
-3.369573510338009
-3.2341751227079882
-3.178784873222984
-3.154166984562973
-3.154166984562973
-3.1480125123979352
-3.1295490959029335
-3.0864677907479487
-3.1233946237379517
-3.154166984562973
-3.1233946237379517
-3.074158846417929
-3.2341751227079882
-3.406500343328012
-3.2095572340479768
-3.1480125123979352
-3.154166984562973
-3.160321456727955
-3.172630401057975
-3.092622262912931
-3.0680043742529195
-3.1110856794079322
-3.0987767350779407
-3.0618499020879373
-3.1049312072429505
-3.1480125123979352
-3.178784873222984
-3.3203377330179857
-3.2711019556979917
-3.160321456727955
-3.117240151572942
-3.1110856794079322
-3.1110856794079322
-3.1357035680679433
-3.0987767350779407
-3.037232013427927
-3.0126141247679152
-3.074158846417929
-3.1110856794079322
-3.037232013427927
-2.9202970422929075
-2.8095165433228986
-3.0126141247679152
-3.0864677907479487
-3.049540957757918
-3.1357035680679433
-3.055695429922928
-2.9202970422929075
-2.9633783474479203
-2.9572238752829105
-2.96953281961293
-3.0249230690979347
-3.055695429922928
-3.0126141247679152
-2.994150708272913
-3.2034027618829675
-3.1972482897179852
-3.117240151572942
-3.1233946237379517
-3.080313318582939
-3.006459652602933
-2.495638462907845
-3.055695429922928
-3.4188092876580036
-3.074158846417929
-2.981841763942921
-3.018768596932925
-3.0249230690979347
-2.9879962361079313
-2.7910531268278973
-2.9510694031179288
-2.9879962361079313
-2.9879962361079313
-2.9264515144579173
-3.0003051804379233
-2.994150708272913
-3.0003051804379233
-3.0249230690979347
-3.043386485592936
-3.080313318582939
-3.018768596932925
-2.9202970422929075
-2.9633783474479203
-3.258793011367972
-3.344955621677997
-3.1110856794079322
-3.092622262912931
-3.1480125123979352
-3.1357035680679433
-3.1110856794079322
-3.0987767350779407
-3.117240151572942
-3.160321456727955
-3.1357035680679433
-3.117240151572942
-3.172630401057975
-3.184939345387966
-3.1664759288929645
-3.308028788687994
-3.24648406703798
-3.264947483532982
-3.1664759288929645
-3.1295490959029335
-3.1664759288929645
-3.172630401057975
-3.1664759288929645
-3.1357035680679433
-3.1480125123979352
-3.160321456727955
-3.1295490959029335
-3.074158846417929
-2.96953281961293
-3.1480125123979352
-3.172630401057975
-3.154166984562973
-3.141858040232953
-3.154166984562973
-3.1357035680679433
-3.1972482897179852
-2.944914930952919
-2.003280689707787
-2.729508405177883
-3.018768596932925
-3.0864677907479487
-3.972711782508076
-4.181963836118102
-3.406500343328012
-3.2403295948729705
-3.184939345387966
-3.184939345387966
-3.2034027618829675
-3.178784873222984
-3.1480125123979352
-3.2280206505429785
-3.184939345387966
-3.141858040232953
-3.1233946237379517
-3.141858040232953
-3.1480125123979352
-3.1110856794079322
-3.049540957757918
-3.141858040232953
-3.178784873222984
-3.1480125123979352
-3.1480125123979352
-3.1664759288929645
-3.191093817552976
-3.191093817552976
-3.160321456727955
-3.141858040232953
-3.184939345387966
-3.172630401057975
-3.117240151572942
-3.141858040232953
-3.178784873222984
-3.24648406703798
-3.2034027618829675
-3.154166984562973
-3.191093817552976
-3.2280206505429785
-3.172630401057975
-3.117240151572942
-3.1110856794079322
-3.074158846417929
-3.043386485592936
-3.037232013427927
-3.055695429922928
-3.0864677907479487
-3.215711706212987
-3.215711706212987
-3.141858040232953
-3.1480125123979352
-3.2034027618829675
-3.2403295948729705
-3.24648406703798
-3.2403295948729705
-3.24648406703798
-3.160321456727955
-3.1295490959029335
-3.092622262912931
-3.043386485592936
-2.994150708272913
-2.8464433763129016
-2.538719768062857
-3.1295490959029335
-3.504971897968029
-3.178784873222984
-3.141858040232953
-3.1664759288929645
-3.080313318582939
-3.074158846417929
-3.0680043742529195
-3.0618499020879373
-3.037232013427927
-3.043386485592936
-3.055695429922928
-3.2095572340479768
-3.25263853920299
-3.160321456727955
-3.1295490959029335
-3.117240151572942
-3.1480125123979352
-3.1233946237379517
-3.0987767350779407
-3.080313318582939
-3.043386485592936
-3.0126141247679152
-3.0249230690979347
-3.055695429922928
-3.018768596932925
-2.5941100175478624
-2.631036850537866
-2.9879962361079313
-3.037232013427927
-3.037232013427927
-3.006459652602933
-3.037232013427927
-3.018768596932925
-2.5694921288878514
-3.0310775412629165
-3.2834109000279827
-3.049540957757918
-3.0126141247679152
-2.9572238752829105
-3.3326466773480057
-3.504971897968029
-3.1049312072429505
-3.0680043742529195
-3.0249230690979347
-3.0126141247679152
-3.043386485592936
-3.037232013427927
-2.9879962361079313
-3.037232013427927
-3.037232013427927
-3.0126141247679152
-2.981841763942921
-2.975687291777912
-2.901833625797906
-3.049540957757918
-2.9572238752829105
-2.612573434042864
-1.7078660257877356
-2.600264489712873
-2.871061264972913
-2.96953281961293
-3.018768596932925
-3.0310775412629165
-2.96953281961293
-3.037232013427927
-4.120419114468116
-3.7142239515780546
-2.9387604587879093
-3.0003051804379233
-2.96953281961293
-2.994150708272913
-2.975687291777912
-3.0003051804379233
-3.006459652602933
-3.049540957757918
-3.0310775412629165
-3.043386485592936
-3.0987767350779407
-3.080313318582939
-3.049540957757918
-3.006459652602933
-2.8464433763129016
-2.434093741257831
-2.8402889041478923
-2.944914930952919
-2.932605986622927
-2.96953281961293
-2.981841763942921
-3.0680043742529195
-2.96953281961293
-2.9879962361079313
-2.994150708272913
-3.006459652602933
-3.0310775412629165
-3.0003051804379233
-3.1110856794079322
-3.5911345082780266
-3.2280206505429785
-3.0618499020879373
-3.1664759288929645
-3.049540957757918
-2.9879962361079313
-3.0618499020879373
-3.0864677907479487
-3.0864677907479487
-3.043386485592936
-3.055695429922928
-3.0987767350779407
-3.074158846417929
-3.049540957757918
-3.055695429922928
-3.1295490959029335
-2.1632969659978185
-1.5847765824877347
-2.735662877342893
-3.4311182319879947
-3.1049312072429505
-2.994150708272913
-2.9879962361079313
-3.092622262912931
-4.188118308283112
-3.9111670608580615
-3.2218661783779687
-3.0987767350779407
-2.674118155692878
-2.871061264972913
-3.074158846417929
-3.1357035680679433
-3.1357035680679433
-3.1049312072429505
-3.0987767350779407
-3.1049312072429505
-3.055695429922928
-3.0310775412629165
-3.043386485592936
-3.018768596932925
-3.037232013427927
-3.049540957757918
-3.4988174258030194
-3.468045064977998
-3.154166984562973
-3.1049312072429505
-3.0864677907479487
-3.1357035680679433
-3.037232013427927
-2.981841763942921
-3.018768596932925
-3.0003051804379233
-3.0003051804379233
-3.037232013427927
-3.037232013427927
-2.9633783474479203
-2.9202970422929075
-3.1357035680679433
-3.043386485592936
-3.006459652602933
-3.0310775412629165
-3.043386485592936
-3.0310775412629165
-3.037232013427927
-3.0310775412629165
-3.0310775412629165
-3.0003051804379233
-2.9572238752829105
-3.006459652602933
-3.0003051804379233
-2.907988097962916
-3.0987767350779407
-3.0680043742529195
-3.092622262912931
-3.0864677907479487
-3.049540957757918
-3.0680043742529195
-3.0680043742529195
-3.0618499020879373
-2.8649067928079033
-2.55102871239285
-3.424963759823013
-2.907988097962916
-1.5170773886727107
-2.8525978484779113
-3.1049312072429505
-3.2341751227079882
-4.329671168078142
-3.806541034053064
-3.2095572340479768
-3.1357035680679433
-3.1295490959029335
-3.074158846417929
-3.037232013427927
-3.0680043742529195
-3.037232013427927
-3.0249230690979347
-3.0126141247679152
-2.883370209302905
-2.772589710332896
-3.0003051804379233
-3.049540957757918
-3.1110856794079322
-3.1049312072429505
-3.080313318582939
-3.117240151572942
-3.092622262912931
-3.074158846417929
-3.0310775412629165
-2.9879962361079313
-3.018768596932925
-3.006459652602933
-3.043386485592936
-3.2341751227079882
-3.0987767350779407
-3.1110856794079322
-3.0680043742529195
-3.0680043742529195
-3.0310775412629165
-3.074158846417929
-3.055695429922928
-3.0126141247679152
-2.981841763942921
-2.96953281961293
-2.9633783474479203
-2.8649067928079033
-2.8649067928079033
-3.037232013427927
-3.0310775412629165
-2.975687291777912
-2.944914930952919
-2.994150708272913
-3.0310775412629165
-3.006459652602933
-2.9633783474479203
-2.9879962361079313
-3.0003051804379233
-3.006459652602933
-3.006459652602933
-2.9879962361079313
-2.9572238752829105
-2.9633783474479203
-3.043386485592936
-2.981841763942921
-2.994150708272913
-2.9510694031179288
-2.507947407237865
-3.037232013427927
-3.449581648482997
-3.1295490959029335
-2.96953281961293
-2.932605986622927
-2.944914930952919
-2.9264515144579173
-2.907988097962916
-2.9387604587879093
-3.0680043742529195
-3.0680043742529195
-3.037232013427927
-2.932605986622927
-2.981841763942921
-2.96953281961293
-2.96953281961293
-2.975687291777912
-2.96953281961293
-3.0249230690979347
-3.0003051804379233
-2.994150708272913
-2.9879962361079313
-3.043386485592936
-3.1295490959029335
-2.981841763942921
-2.975687291777912
-3.018768596932925
-2.944914930952919
-2.9264515144579173
-2.9264515144579173
-2.9879962361079313
-3.037232013427927
-3.006459652602933
-3.0126141247679152
-3.043386485592936
-2.975687291777912
-2.9202970422929075
-3.037232013427927
-2.9633783474479203
-2.975687291777912
-2.975687291777912
-2.975687291777912
-2.975687291777912
-3.018768596932925
-3.080313318582939
-3.080313318582939
-3.049540957757918
-3.055695429922928
-3.0618499020879373
-2.96953281961293
-2.631036850537866
-2.6433457948678853
-2.9510694031179288
-3.018768596932925
-3.080313318582939
-3.117240151572942
-3.117240151572942
-2.9510694031179288
-2.1079067165127863
-2.372549019607845
-2.9264515144579173
-3.092622262912931
-3.1295490959029335
-3.1295490959029335
-3.38803692683301
-3.9111670608580615
-4.625085831998166
-3.609597924773028
-3.1233946237379517
-3.0249230690979347
-3.0003051804379233
-2.895679153632896
-2.8464433763129016
-2.834134431982911
-2.8525978484779113
-2.8525978484779113
-2.871061264972913
-2.877215737137895
-2.821825487652891
-2.9387604587879093
-2.944914930952919
-2.883370209302905
-2.834134431982911
-2.834134431982911
-2.778744182497905
-2.760280766002876
-2.723353933012873
-2.631036850537866
-2.624882378372884
-2.674118155692878
-2.6925815721878803
-2.704890516517872
-2.544874240227868
-2.323313242287821
-2.674118155692878
-2.797207598992907
-2.8649067928079033
-2.8402889041478923
-2.7418173495078744
-2.655654739197877
-2.624882378372884
-2.581801073217871
-2.372549019607845
-2.1325246051727973
-1.7755652196027594
-1.4986139721777092
-1.5601586938277234
-2.0340530505327803
-1.8432644134177558
-1.7817196917677414
-1.8371099412527454
-1.9048091350677696
-2.015589634037779
-1.855573357747775
-1.8740367742427766
-1.9786628010477763
-2.0586709391927913
-2.1325246051727973
-2.212532743317813
-2.2740774649678275
-2.261768520637808
-1.818646524757745
-2.378703491772827
-2.7418173495078744
-2.4217847969278394
-2.3540856031128428
-2.378703491772827
-2.4525571577528327
-1.3385976958876775
-2.587955545382853
-3.381882454668
-2.6925815721878803
-2.612573434042864
-2.544874240227868
-2.5141018794028467
-2.55718318455786
-2.680272627857888
-2.649500267032867
-2.6371913227028756
-2.6618092113628857
-2.680272627857888
-2.680272627857888
-2.674118155692878
-2.704890516517872
-2.7171994608478913
-2.704890516517872
-2.729508405177883
-2.7418173495078744
-2.723353933012873
-2.723353933012873
-2.7418173495078744
-2.7418173495078744
-2.729508405177883
-2.680272627857888
-2.6371913227028756
-2.68642710002287
-2.7171994608478913
-2.711044988682881
-2.618727906207874
-2.6064189618778553
-2.631036850537866
-2.6433457948678853
-2.612573434042864
-2.544874240227868
-2.7418173495078744
-2.6371913227028756
-2.581801073217871
-2.6433457948678853
-2.6618092113628857
-2.6618092113628857
-2.624882378372884
-2.581801073217871
-2.563337656722869
-2.6064189618778553
-2.600264489712873
-2.55718318455786
-2.538719768062857
-2.4648661020828517
-2.55718318455786
-2.2371506319778245
-1.3755245288776807
-2.1017522443478045
-2.4525571577528327
-2.68642710002287
-2.194069326822812
-2.378703491772827
-3.1664759288929645
-2.9202970422929075
-2.729508405177883
-2.6987360443528896
-2.704890516517872
-2.9633783474479203
-3.6711426464230414
-3.0126141247679152
-2.772589710332896
-2.729508405177883
-2.760280766002876
-2.778744182497905
-2.7910531268278973
-2.7848986546628876
-2.815671015487909
-2.8464433763129016
-2.8464433763129016
-2.8525978484779113
-2.772589710332896
-2.96953281961293
-3.2957198443579747
-2.932605986622927
-2.7910531268278973
-2.747971821672884
-2.7910531268278973
-2.7848986546628876
-2.772589710332896
-2.760280766002876
-2.729508405177883
-2.723353933012873
-2.7171994608478913
-2.723353933012873
-2.6925815721878803
-2.68642710002287
-2.766435238167886
-2.772589710332896
-2.8095165433228986
-2.8464433763129016
-2.877215737137895
-2.901833625797906
-2.901833625797906
-2.9387604587879093
-2.932605986622927
-2.895679153632896
-2.9141425701278982
-2.877215737137895
-2.871061264972913
-2.8525978484779113
-2.8279799598179
-2.871061264972913
-2.883370209302905
-2.8525978484779113
-2.907988097962916
-2.8649067928079033
-2.7910531268278973
-2.8649067928079033
-2.8525978484779113
-2.858752320642893
-2.8895246814679143
-2.907988097962916
-2.821825487652891
-2.3848579639378364
-2.907988097962916
-3.308028788687994
-2.994150708272913
-2.907988097962916
-2.907988097962916
-2.8895246814679143
-2.8525978484779113
-2.932605986622927
-2.9633783474479203
-2.975687291777912
-2.96953281961293
-2.9387604587879093
-2.944914930952919
-2.8402889041478923
-2.187914854657802
-2.483329518577854
-2.8033620711578893
-2.8402889041478923
-2.8279799598179
-2.8525978484779113
-2.821825487652891
-2.821825487652891
-2.821825487652891
-2.821825487652891
-2.821825487652891
-2.8464433763129016
-2.871061264972913
-2.895679153632896
-3.8434678670430653
-3.7142239515780546
-3.074158846417929
-3.0003051804379233
-2.9264515144579173
-2.901833625797906
-2.9264515144579173
-2.9633783474479203
-2.9510694031179288
-2.9510694031179288
-2.975687291777912
-2.944914930952919
-2.895679153632896
-2.877215737137895
-2.526410823732866
-2.6987360443528896
-2.834134431982911
-2.9202970422929075
-2.877215737137895
-2.815671015487909
-2.821825487652891
-2.8279799598179
-2.8525978484779113
-2.871061264972913
-2.8464433763129016
-2.4525571577528327
-1.3324432237226955
-2.612573434042864
-2.667963683527869
-2.877215737137895
-2.871061264972913
-2.8649067928079033
-2.821825487652891
-3.5418987309580316
-4.132728058798108
-3.191093817552976
-2.9387604587879093
-2.883370209302905
-2.877215737137895
-2.895679153632896
-2.9141425701278982
-2.8895246814679143
-2.8095165433228986
-2.96953281961293
-2.981841763942921
-2.944914930952919
-2.994150708272913
-3.0003051804379233
-2.975687291777912
-2.944914930952919
-2.9572238752829105
-2.994150708272913
-2.9572238752829105
-2.932605986622927
-2.9202970422929075
-2.901833625797906
-2.9202970422929075
-3.0618499020879373
-2.96953281961293
-2.981841763942921
-2.9510694031179288
-2.895679153632896
-2.901833625797906
-2.9141425701278982
-2.932605986622927
-2.9202970422929075
-2.9202970422929075
-2.9141425701278982
-2.9202970422929075
-2.901833625797906
-2.8279799598179
-2.901833625797906
-2.981841763942921
-2.9141425701278982
-2.883370209302905
-2.871061264972913
-2.877215737137895
-2.9141425701278982
-2.9264515144579173
-2.975687291777912
-3.055695429922928
-3.037232013427927
-3.049540957757918
-3.0864677907479487
-3.055695429922928
-2.994150708272913
-2.9572238752829105
-2.877215737137895
-2.7910531268278973
-2.3540856031128428
-2.871061264972913
-3.1972482897179852
-2.883370209302905
-2.8525978484779113
-2.9141425701278982
-2.778744182497905
-2.8464433763129016
-2.8402889041478923
-2.815671015487909
-2.877215737137895
-2.883370209302905
-2.9264515144579173
-2.9264515144579173
-2.895679153632896
-2.8895246814679143
-2.883370209302905
-2.9141425701278982
-2.9141425701278982
-2.883370209302905
-2.895679153632896
-2.8895246814679143
-2.8402889041478923
-2.8525978484779113
-2.8895246814679143
-2.9510694031179288
-2.871061264972913
-2.858752320642893
-2.8279799598179
-2.8525978484779113
-2.883370209302905
-2.8464433763129016
-2.8525978484779113
-2.858752320642893
-2.8649067928079033
-2.815671015487909
-2.815671015487909
-2.7910531268278973
-2.778744182497905
-2.895679153632896
-2.8649067928079033
-2.8279799598179
-2.8464433763129016
-2.8402889041478923
-2.8095165433228986
-2.821825487652891
-2.4217847969278394
-2.8895246814679143
-3.184939345387966
-2.9141425701278982
-2.8649067928079033
-2.815671015487909
-2.68642710002287
-2.821825487652891
-2.8525978484779113
-2.8279799598179
-2.8033620711578893
-2.797207598992907
-2.5325652958978484
-1.6340123598077294
-2.2925408814628288
-2.6433457948678853
-3.609597924773028
-3.972711782508076
-3.1110856794079322
-2.901833625797906
-2.975687291777912
-3.1110856794079322
-2.994150708272913
-2.9202970422929075
-2.901833625797906
-2.8895246814679143
-2.895679153632896
-2.883370209302905
-2.871061264972913
-2.895679153632896
-2.871061264972913
-2.877215737137895
-2.883370209302905
-2.834134431982911
-2.834134431982911
-2.8649067928079033
-2.8895246814679143
-2.8464433763129016
-2.834134431982911
-2.8649067928079033
-2.8649067928079033
-2.8649067928079033
-2.9202970422929075
-2.871061264972913
-2.877215737137895
-2.871061264972913
-2.883370209302905
-2.8649067928079033
-2.6925815721878803
-2.55718318455786
-2.8095165433228986
-2.8525978484779113
-2.883370209302905
-2.871061264972913
-2.883370209302905
-2.932605986622927
-2.8649067928079033
-2.797207598992907
-2.871061264972913
-2.901833625797906
-2.8649067928079033
-2.8402889041478923
-2.907988097962916
-2.9202970422929075
-2.9264515144579173
-2.907988097962916
-2.9141425701278982
-2.895679153632896
-2.8402889041478923
-2.871061264972913
-2.883370209302905
-2.871061264972913
-3.092622262912931
-3.437272704153005
-3.6465247577630313
-3.615752396938038
-3.2218661783779687
-4.028102031993082
-4.052719920653092
-3.535744258793022
-3.4557361206480066
-3.492662953638009
-3.609597924773028
-3.738841840238039
-3.6896060629180436
-3.6280613412680296
-3.4803540093080176
-2.1263701330077875
-2.735662877342893
-3.504971897968029
-3.560362147453033
-3.554207675288024
-3.474199537143008
-3.308028788687994
-3.4803540093080176
-4.6435492484931675
-4.120419114468116
-3.701915007248036
-3.726532895908047
-3.5911345082780266
-3.5665166196180156
-3.5418987309580316
-3.474199537143008
-3.504971897968029
-3.4434271763180146
-3.4188092876580036
-3.517280842298021
-3.4434271763180146
-3.191093817552976
-3.1110856794079322
-3.400345871163002
-3.517280842298021
-3.394191398997992
-3.394191398997992
-3.4434271763180146
-3.4557361206480066
-3.517280842298021
-3.5665166196180156
-3.4188092876580036
-3.461890592813016
-3.6465247577630313
-3.597288980443037
-3.6280613412680296
-3.3511100938430074
-3.0680043742529195
-3.1295490959029335
-3.154166984562973
-3.2711019556979917
-3.554207675288024
-3.4988174258030194
-3.326492205182996
-3.357264566007989
-3.326492205182996
-3.2341751227079882
-2.9141425701278982
-2.070979883522784
-2.944914930952919
-3.369573510338009
-3.474199537143008
-3.5665166196180156
-3.504971897968029
-3.38803692683301
-4.268126446428129
-4.003484143333097
-3.3326466773480057
-3.4865084814730274
-3.5665166196180156
-3.375727982502991
-3.461890592813016
-3.400345871163002
-3.437272704153005
-3.394191398997992
-3.4434271763180146
-3.424963759823013
-3.400345871163002
-3.424963759823013
-3.363419038172999
-3.363419038172999
-3.406500343328012
-3.4434271763180146
-3.3511100938430074
-3.215711706212987
-3.3511100938430074
-3.2711019556979917
-3.2957198443579747
-3.375727982502991
-3.344955621677997
-3.326492205182996
-3.3326466773480057
-3.369573510338009
-3.369573510338009
-3.357264566007989
-3.3141832608529764
-3.289565372192993
-3.289565372192993
-3.1664759288929645
-3.2218661783779687
-3.2095572340479768
-3.178784873222984
-3.154166984562973
-3.191093817552976
-3.2095572340479768
-3.2095572340479768
-3.2280206505429785
-3.344955621677997
-3.3511100938430074
-3.258793011367972
-3.1357035680679433
-3.0864677907479487
-3.1233946237379517
-3.5726710917830253
-3.3141832608529764
-3.178784873222984
-3.154166984562973
-3.055695429922928
-3.080313318582939
-3.2834109000279827
-3.412654815492993
-2.858752320642893
-3.2957198443579747
-3.615752396938038
-3.178784873222984
-3.1357035680679433
-3.0987767350779407
-3.055695429922928
-3.363419038172999
-3.38803692683301
-3.301874316522985
-3.2711019556979917
-3.277256427862973
-3.172630401057975
-3.043386485592936
-2.901833625797906
-2.883370209302905
-2.883370209302905
-2.9879962361079313
-3.0680043742529195
-2.932605986622927
-3.0003051804379233
-3.0126141247679152
-3.0249230690979347
-2.994150708272913
-2.994150708272913
-3.055695429922928
-3.055695429922928
-3.0249230690979347
-2.96953281961293
-2.883370209302905
-2.907988097962916
-2.9510694031179288
-2.9572238752829105
-2.895679153632896
-2.483329518577854
-2.649500267032867
-2.8279799598179
-2.871061264972913
-2.9141425701278982
-3.0003051804379233
-3.1480125123979352
-3.184939345387966
-3.117240151572942
-3.0680043742529195
-3.1664759288929645
-3.160321456727955
-3.0864677907479487
-3.0310775412629165
-3.578825563948035
-3.4311182319879947
-2.994150708272913
-2.932605986622927
-2.944914930952919
-2.96953281961293
-2.9510694031179288
-2.932605986622927
-2.883370209302905
-2.877215737137895
-2.5141018794028467
-1.3016708628976748
-2.735662877342893
-2.8895246814679143
-3.849622339208075
-3.6896060629180436
-3.0249230690979347
-2.901833625797906
-2.871061264972913
-2.895679153632896
-3.006459652602933
-3.043386485592936
-2.9510694031179288
-2.9202970422929075
-2.9202970422929075
-2.944914930952919
-2.9572238752829105
-2.9202970422929075
-2.877215737137895
-2.981841763942921
-2.877215737137895
-2.858752320642893
-2.877215737137895
-2.9510694031179288
-2.9141425701278982
-2.981841763942921
-3.018768596932925
-2.9633783474479203
-2.9387604587879093
-2.8895246814679143
-2.9202970422929075
-2.8525978484779113
-2.766435238167886
-2.877215737137895
-2.8649067928079033
-2.871061264972913
-2.944914930952919
-3.0126141247679152
-3.092622262912931
-3.0003051804379233
-3.0003051804379233
-3.0003051804379233
-2.994150708272913
-2.944914930952919
-3.006459652602933
-3.0003051804379233
-2.6925815721878803
-2.4587116299178424
-2.895679153632896
-2.9572238752829105
-2.9387604587879093
-2.944914930952919
-3.018768596932925
-2.975687291777912
-2.9141425701278982
-2.9202970422929075
-2.9510694031179288
-2.9264515144579173
-2.9633783474479203
-2.907988097962916
-3.080313318582939
-3.597288980443037
-3.191093817552976
-2.994150708272913
-2.4894839907428636
-3.0126141247679152
-3.363419038172999
-3.0618499020879373
-3.006459652602933
-3.0126141247679152
-2.9633783474479203
-2.9572238752829105
-2.9572238752829105
-2.9633783474479203
-2.932605986622927
-2.8895246814679143
-2.9510694031179288
-3.0003051804379233
-2.994150708272913
-2.9510694031179288
-2.9510694031179288
-2.9572238752829105
-2.631036850537866
-2.96953281961293
-3.1972482897179852
-3.0126141247679152
-2.994150708272913
-2.96953281961293
-2.9264515144579173
-2.9572238752829105
-3.074158846417929
-2.9879962361079313
-2.9879962361079313
-3.0126141247679152
-3.0003051804379233
-2.975687291777912
-2.9879962361079313
-2.9572238752829105
-2.9572238752829105
-2.9879962361079313
-2.975687291777912
-2.9879962361079313
-2.944914930952919
-2.674118155692878
-2.871061264972913
-2.9572238752829105
-2.975687291777912
-2.994150708272913
-2.9879962361079313
-2.981841763942921
-2.981841763942921
-3.006459652602933
-3.0003051804379233
-2.975687291777912
-2.994150708272913
-3.049540957757918
-2.96953281961293
-3.2341751227079882
-3.277256427862973
-3.0680043742529195
-2.994150708272913
-3.0126141247679152
-2.6618092113628857
-1.7632562752727399
-2.477175046412844
-2.8033620711578893
-2.9387604587879093
-2.9633783474479203
-2.9387604587879093
-3.1972482897179852
-4.305053279418132
-3.4988174258030194
-3.1357035680679433
-3.006459652602933
-2.994150708272913
-2.981841763942921
-2.994150708272913
-3.055695429922928
-2.9202970422929075
-2.944914930952919
-2.9879962361079313
-2.9879962361079313
-2.9633783474479203
-2.9879962361079313
-2.994150708272913
-2.2063782711528033
-0.7970041453676248
-2.329467714452832
-3.326492205182996
-3.0987767350779407
-2.975687291777912
-2.96953281961293
-3.006459652602933
-3.788077617558061
-4.181963836118102
-3.289565372192993
-3.117240151572942
-3.074158846417929
-3.006459652602933
-3.264947483532982
-3.535744258793022
-3.1972482897179852
-3.0618499020879373
-3.0618499020879373
-3.074158846417929
-3.0618499020879373
-3.080313318582939
-3.141858040232953
-3.178784873222984
-3.1972482897179852
-3.1480125123979352
-3.1049312072429505
-3.092622262912931
-3.0864677907479487
-3.1110856794079322
-3.1233946237379517
-3.1357035680679433
-3.1295490959029335
-3.0003051804379233
-2.9387604587879093
-2.96953281961293
-3.018768596932925
-2.994150708272913
-2.975687291777912
-2.9387604587879093
-2.994150708272913
-2.994150708272913
-2.9387604587879093
-3.055695429922928
-3.0864677907479487
-2.994150708272913
-2.9633783474479203
-3.0680043742529195
-3.006459652602933
-2.9879962361079313
-3.0310775412629165
-3.0003051804379233
-3.0249230690979347
-3.0310775412629165
-3.0003051804379233
-3.006459652602933
-3.0310775412629165
-3.074158846417929
-3.117240151572942
-3.0680043742529195
-3.080313318582939
-3.092622262912931
-3.1295490959029335
-3.0003051804379233
-2.544874240227868
-3.277256427862973
-3.424963759823013
-3.1295490959029335
-3.0864677907479487
-3.0987767350779407
-3.2341751227079882
-3.037232013427927
-3.037232013427927
-3.1233946237379517
-3.1233946237379517
-3.1110856794079322
-3.1295490959029335
-3.1480125123979352
-3.1110856794079322
-3.080313318582939
-3.092622262912931
-3.0864677907479487
-3.080313318582939
-3.074158846417929
-3.037232013427927
-3.172630401057975
-3.2341751227079882
-3.0864677907479487
-3.092622262912931
-3.0864677907479487
-3.0864677907479487
-3.1049312072429505
-3.080313318582939
-3.080313318582939
-3.141858040232953
-3.1295490959029335
-3.0987767350779407
-3.1049312072429505
-3.0987767350779407
-2.747971821672884
-2.003280689707787
-2.612573434042864
-3.2711019556979917
-4.465069555708162
-3.6280613412680296
-3.191093817552976
-3.1480125123979352
-3.1357035680679433
-3.1110856794079322
-3.092622262912931
-3.1049312072429505
-3.154166984562973
-3.0987767350779407
-3.1295490959029335
-3.344955621677997
-3.191093817552976
-3.117240151572942
-3.0987767350779407
-3.1110856794079322
-3.1049312072429505
-3.0680043742529195
-3.092622262912931
-3.074158846417929
-3.080313318582939
-3.080313318582939
-3.0864677907479487
-3.0249230690979347
-2.858752320642893
-2.9141425701278982
-3.0126141247679152
-3.018768596932925
-3.043386485592936
-3.043386485592936
-3.0680043742529195
-3.092622262912931
-3.074158846417929
-3.0987767350779407
-3.1110856794079322
-3.0864677907479487
-3.0618499020879373
-3.0680043742529195
-3.006459652602933
-3.049540957757918
-3.0987767350779407
-3.0680043742529195
-3.043386485592936
-3.0249230690979347
-3.0126141247679152
-3.055695429922928
-3.0864677907479487
-3.049540957757918
-3.0310775412629165
-3.055695429922928
-3.037232013427927
-2.994150708272913
-2.858752320642893
-2.723353933012873
-3.0003051804379233
-3.043386485592936
-3.037232013427927
-3.074158846417929
-3.092622262912931
-2.9879962361079313
-2.5325652958978484
-3.117240151572942
-3.5665166196180156
-3.2711019556979917
-3.1233946237379517
-3.0618499020879373
-3.154166984562973
-3.492662953638009
-3.264947483532982
-3.1049312072429505
-3.092622262912931
-3.1480125123979352
-3.1664759288929645
-3.0680043742529195
-3.037232013427927
-3.037232013427927
-3.006459652602933
-3.0310775412629165
-3.0003051804379233
-3.018768596932925
-3.0003051804379233
-2.96953281961293
-3.0310775412629165
-3.006459652602933
-3.0003051804379233
-2.981841763942921
-2.9387604587879093
-2.96953281961293
-2.975687291777912
-2.944914930952919
-3.092622262912931
-3.2341751227079882
-3.2711019556979917
-3.2034027618829675
-3.0987767350779407
-3.2095572340479768
-3.357264566007989
-3.369573510338009
-3.357264566007989
-3.2957198443579747
-3.3141832608529764
-3.258793011367972
-3.172630401057975
-3.184939345387966
-3.289565372192993
-3.2957198443579747
-3.184939345387966
-3.154166984562973
-3.184939345387966
-3.141858040232953
-3.160321456727955
-3.0864677907479487
-3.178784873222984
-3.141858040232953
-3.1049312072429505
-3.0987767350779407
-3.1480125123979352
-2.575646601052861
-2.815671015487909
-2.360240075277825
-2.8095165433228986
-3.043386485592936
-3.037232013427927
-2.981841763942921
-3.160321456727955
-3.825004450548064
-4.403524834058148
-3.468045064977998
-3.3203377330179857
-3.141858040232953
-3.0618499020879373
-3.049540957757918
-3.037232013427927
-3.0680043742529195
-3.049540957757918
-3.055695429922928
-3.049540957757918
-3.0864677907479487
-3.289565372192993
-3.117240151572942
-3.018768596932925
-3.0003051804379233
-3.055695429922928
-3.074158846417929
-3.074158846417929
-3.074158846417929
-3.043386485592936
-2.9879962361079313
-3.0249230690979347
-3.0680043742529195
-3.178784873222984
-3.074158846417929
-3.2034027618829675
-3.2403295948729705
-3.2095572340479768
-3.191093817552976
-3.154166984562973
-3.0987767350779407
-3.1295490959029335
-3.1357035680679433
-3.080313318582939
-3.049540957757918
-3.0618499020879373
-3.0987767350779407
-3.0618499020879373
-2.9387604587879093
-3.0987767350779407
-3.080313318582939
-3.037232013427927
-3.043386485592936
-3.0249230690979347
-3.018768596932925
-3.092622262912931
-3.006459652602933
-2.96953281961293
-3.0126141247679152
-3.043386485592936
-3.049540957757918
-3.037232013427927
-2.9141425701278982
-2.754126293837894
-2.981841763942921
-2.575646601052861
-3.1049312072429505
-3.492662953638009
-3.1972482897179852
-3.0864677907479487
-3.074158846417929
-3.074158846417929
-3.0310775412629165
-2.975687291777912
-3.018768596932925
-3.006459652602933
-3.037232013427927
-3.326492205182996
-3.178784873222984
-3.1233946237379517
-3.080313318582939
-3.018768596932925
-3.0310775412629165
-3.080313318582939
-3.049540957757918
-3.0126141247679152
-3.049540957757918
-3.0864677907479487
-3.0618499020879373
-3.043386485592936
-3.055695429922928
-3.092622262912931
-3.1110856794079322
-3.074158846417929
-3.0003051804379233
-2.0278985783677985
-2.372549019607845
-2.711044988682881
-2.994150708272913
-3.006459652602933
-3.043386485592936
-3.074158846417929
-3.308028788687994
-4.403524834058148
-3.6465247577630313
-3.154166984562973
-3.191093817552976
-3.301874316522985
-3.049540957757918
-3.049540957757918
-3.141858040232953
-3.049540957757918
-3.0003051804379233
-3.037232013427927
-3.0618499020879373
-3.080313318582939
-3.080313318582939
-3.049540957757918
-2.9879962361079313
-2.9264515144579173
-3.092622262912931
-3.037232013427927
-3.037232013427927
-2.631036850537866
-1.3816790010426905
-2.821825487652891
-3.6896060629180436
-4.1573459474581185
-3.301874316522985
-3.2218661783779687
-3.2095572340479768
-3.0987767350779407
-3.043386485592936
-2.612573434042864
-2.7418173495078744
-3.215711706212987
-3.264947483532982
-3.2834109000279827
-3.449581648482997
-3.449581648482997
-3.375727982502991
-3.375727982502991
-3.338801149512988
-3.344955621677997
-3.2957198443579747
-3.308028788687994
-3.172630401057975
-3.5418987309580316
-3.75730525673304
-3.2341751227079882
-3.080313318582939
-3.074158846417929
-3.1049312072429505
-3.092622262912931
-3.184939345387966
-3.2834109000279827
-3.25263853920299
-3.25263853920299
-3.3141832608529764
-3.375727982502991
-3.080313318582939
-2.944914930952919
-3.2034027618829675
-3.277256427862973
-3.264947483532982
-3.326492205182996
-3.2218661783779687
-3.2095572340479768
-3.2341751227079882
-3.154166984562973
-3.049540957757918
-3.049540957757918
-3.1049312072429505
-3.1295490959029335
-3.141858040232953
-3.0003051804379233
-2.7171994608478913
-3.0003051804379233
-3.080313318582939
-3.1049312072429505
-3.1110856794079322
-3.0987767350779407
-3.154166984562973
-3.178784873222984
-3.160321456727955
-3.1295490959029335
-3.080313318582939
-2.649500267032867
-3.154166984562973
-3.578825563948035
-3.652679229928041
-3.3203377330179857
-3.1972482897179852
-3.1664759288929645
-3.2341751227079882
-3.461890592813016
-3.4988174258030194
-3.3141832608529764
-3.117240151572942
-3.1049312072429505
-3.092622262912931
-3.043386485592936
-3.172630401057975
-3.3141832608529764
-3.474199537143008
-3.424963759823013
-3.215711706212987
-3.1110856794079322
-3.160321456727955
-3.357264566007989
-3.615752396938038
-3.6034434526080172
-3.504971897968029
-3.38803692683301
-3.3141832608529764
-3.326492205182996
-3.2403295948729705
-3.2095572340479768
-3.178784873222984
-3.1972482897179852
-3.1357035680679433
-3.1664759288929645
-3.178784873222984
-3.1110856794079322
-3.1295490959029335
-3.154166984562973
-3.184939345387966
-3.2834109000279827
-3.258793011367972
-3.560362147453033
-3.609597924773028
-3.5726710917830253
-3.449581648482997
-3.3141832608529764
-3.363419038172999
-3.4557361206480066
-3.511126370133011
-3.381882454668
-3.24648406703798
-3.2280206505429785
-3.2280206505429785
-3.24648406703798
-3.258793011367972
-3.277256427862973
-3.24648406703798
-2.895679153632896
-2.1079067165127863
-3.0618499020879373
-3.2957198443579747
-3.344955621677997
-3.381882454668
-3.38803692683301
-4.268126446428129
-4.126573586633098
-3.301874316522985
-3.2095572340479768
-3.172630401057975
-3.2034027618829675
-3.2711019556979917
-3.2834109000279827
-2.772589710332896
-2.704890516517872
-3.160321456727955
-3.191093817552976
-3.184939345387966
-3.2034027618829675
-3.25263853920299
-3.344955621677997
-3.412654815492993
-3.3511100938430074
-3.369573510338009
-3.2834109000279827
-3.264947483532982
-3.1049312072429505
-3.535744258793022
-3.898858116528071
-3.406500343328012
-3.25263853920299
-3.2403295948729705
-3.3141832608529764
-3.258793011367972
-3.154166984562973
-3.172630401057975
-2.7418173495078744
-3.184939345387966
-3.504971897968029
-3.4188092876580036
-3.338801149512988
-3.289565372192993
-3.412654815492993
-3.3141832608529764
-3.25263853920299
-3.3141832608529764
-3.4803540093080176
-3.369573510338009
-3.344955621677997
-3.38803692683301
-3.3511100938430074
-3.3203377330179857
-3.363419038172999
-3.381882454668
-3.344955621677997
-3.055695429922928
-2.587955545382853
-3.1049312072429505
-3.1972482897179852
-3.2403295948729705
-3.5418987309580316
-3.4865084814730274
-2.9202970422929075
-3.5234353144630304
-3.9173215330230713
-3.6034434526080172
-3.4988174258030194
-3.517280842298021
-3.6219068691030203
-3.437272704153005
-4.058874392818101
-3.492662953638009
-3.3203377330179857
-3.2711019556979917
-3.338801149512988
-3.363419038172999
-3.191093817552976
-3.25263853920299
-3.215711706212987
-3.1233946237379517
-3.172630401057975
-3.178784873222984
-3.160321456727955
-3.184939345387966
-3.258793011367972
-3.3141832608529764
-3.264947483532982
-3.184939345387966
-3.178784873222984
-3.178784873222984
-3.074158846417929
-3.0126141247679152
-2.981841763942921
-2.981841763942921
-3.160321456727955
-3.154166984562973
-3.0864677907479487
-3.1357035680679433
-3.2095572340479768
-3.326492205182996
-3.258793011367972
-3.215711706212987
-3.2341751227079882
-3.461890592813016
-3.468045064977998
-3.38803692683301
-3.301874316522985
-3.2095572340479768
-3.154166984562973
-3.178784873222984
-3.258793011367972
-3.0987767350779407
-3.006459652602933
-3.24648406703798
-3.215711706212987
-3.1295490959029335
-3.25263853920299
-3.043386485592936
-3.043386485592936
-3.1233946237379517
-2.7848986546628876
-1.5293863330027024
-3.0618499020879373
-4.212736196943122
-3.9480938938480934
-3.264947483532982
-3.2403295948729705
-3.3141832608529764
-3.1357035680679433
-3.1233946237379517
-3.117240151572942
-3.080313318582939
-3.092622262912931
-3.172630401057975
-3.074158846417929
-3.049540957757918
-3.154166984562973
-3.0249230690979347
-3.037232013427927
-3.301874316522985
-3.2095572340479768
-3.2834109000279827
-3.2341751227079882
-3.215711706212987
-3.2280206505429785
-3.2218661783779687
-3.277256427862973
-3.172630401057975
-2.975687291777912
-2.96953281961293
-2.9879962361079313
-3.1357035680679433
-3.3326466773480057
-3.3141832608529764
-2.877215737137895
-2.907988097962916
-3.2834109000279827
-3.0310775412629165
-2.9572238752829105
-2.96953281961293
-2.975687291777912
-3.0618499020879373
-2.507947407237865
-1.5232318608377204
-2.2371506319778245
-3.400345871163002
-3.215711706212987
-3.055695429922928
-3.3326466773480057
-3.7942320897230712
-4.489687444368147
-4.471224027873144
-3.449581648482997
-3.0987767350779407
-3.24648406703798
-3.357264566007989
-3.461890592813016
-3.461890592813016
-3.437272704153005
-3.264947483532982
-2.9141425701278982
-2.9879962361079313
-2.8525978484779113
-2.4894839907428636
-2.9633783474479203
-3.1357035680679433
-3.178784873222984
-3.006459652602933
-3.160321456727955
-3.615752396938038
-3.412654815492993
-3.375727982502991
-3.172630401057975
-2.772589710332896
-2.981841763942921
-3.191093817552976
-3.215711706212987
-3.5911345082780266
-3.0126141247679152
-2.7848986546628876
-2.8279799598179
-2.883370209302905
-2.8033620711578893
-2.8033620711578893
-2.760280766002876
-2.772589710332896
-2.871061264972913
-3.1049312072429505
-3.1233946237379517
-2.9879962361079313
-3.074158846417929
-3.160321456727955
-3.080313318582939
-3.1049312072429505
-3.1480125123979352
-3.178784873222984
-3.2034027618829675
-3.1357035680679433
-3.2095572340479768
-3.2341751227079882
-3.363419038172999
-3.369573510338009
-3.172630401057975
-3.258793011367972
-3.215711706212987
-3.191093817552976
-3.1049312072429505
-3.6896060629180436
-3.554207675288024
-3.375727982502991
-3.4311182319879947
-3.338801149512988
-3.4434271763180146
-3.4557361206480066
-3.504971897968029
-3.4988174258030194
-3.597288980443037
-3.529589786628012
-3.38803692683301
-3.424963759823013
-3.511126370133011
-3.449581648482997
-3.055695429922928
-2.175605910327811
-3.0864677907479487
-3.363419038172999
-3.25263853920299
-3.2403295948729705
-3.548053203123014
-4.662012664988168
-3.972711782508076
-3.492662953638009
-3.338801149512988
-3.25263853920299
-3.3326466773480057
-3.264947483532982
-3.2711019556979917
-3.2403295948729705
-3.24648406703798
-3.258793011367972
-3.1972482897179852
-3.172630401057975
-3.178784873222984
-3.141858040232953
-3.141858040232953
-3.2034027618829675
-3.25263853920299
-3.141858040232953
-3.277256427862973
-3.2403295948729705
-3.191093817552976
-3.1357035680679433
-3.080313318582939
-3.154166984562973
-3.1972482897179852
-3.191093817552976
-3.2280206505429785
-3.258793011367972
-3.215711706212987
-3.215711706212987
-3.2403295948729705
-2.944914930952919
-2.778744182497905
-3.1664759288929645
-3.2403295948729705
-3.2341751227079882
-3.2341751227079882
-3.2711019556979917
-3.2218661783779687
-3.258793011367972
-3.3326466773480057
-3.344955621677997
-3.301874316522985
-3.301874316522985
-3.2834109000279827
-3.344955621677997
-3.338801149512988
-3.264947483532982
-3.2957198443579747
-3.2711019556979917
-3.2341751227079882
-3.215711706212987
-3.2034027618829675
-3.2034027618829675
-3.141858040232953
-2.981841763942921
-1.2708985020726815
-2.261768520637808
-3.289565372192993
-3.2403295948729705
-3.75730525673304
-4.760484219628186
-4.071183337148093
-3.326492205182996
-3.2280206505429785
-3.24648406703798
-3.2034027618829675
-3.154166984562973
-3.154166984562973
-3.154166984562973
-3.172630401057975
-3.172630401057975
-3.1480125123979352
-3.141858040232953
-3.2834109000279827
-3.25263853920299
-3.215711706212987
-3.2403295948729705
-3.2218661783779687
-3.2280206505429785
-3.178784873222984
-3.172630401057975
-3.2280206505429785
-3.178784873222984
-3.1480125123979352
-3.160321456727955
-3.1295490959029335
-3.092622262912931
-3.074158846417929
-3.172630401057975
-3.178784873222984
-3.154166984562973
-3.154166984562973
-3.1049312072429505
-3.080313318582939
-3.1357035680679433
-3.141858040232953
-3.1357035680679433
-2.563337656722869
-1.615548943312728
-2.68642710002287
-2.96953281961293
-3.2218661783779687
-3.855776811373057
-4.662012664988168
-3.578825563948035
-3.2403295948729705
-3.178784873222984
-3.172630401057975
-3.1233946237379517
-3.092622262912931
-3.1110856794079322
-3.0987767350779407
-3.080313318582939
-2.667963683527869
-1.3816790010426905
-2.9510694031179288
-4.28658986292313
-3.5418987309580316
-3.117240151572942
-3.074158846417929
-3.037232013427927
-3.1480125123979352
-3.0310775412629165
-2.7418173495078744
-3.172630401057975
-3.406500343328012
-3.1357035680679433
-3.1357035680679433
-3.1110856794079322
-3.018768596932925
-3.1480125123979352
-3.172630401057975
-3.0864677907479487
-3.049540957757918
-3.092622262912931
-3.1295490959029335
-3.1110856794079322
-3.092622262912931
-3.1295490959029335
-3.092622262912931
-3.0618499020879373
-3.0864677907479487
-3.0126141247679152
-2.5141018794028467
-2.4279392690928487
-2.883370209302905
-3.0249230690979347
-3.0618499020879373
-3.0680043742529195
-3.049540957757918
-3.0680043742529195
-3.074158846417929
-3.080313318582939
-3.080313318582939
-3.080313318582939
-3.1110856794079322
-3.117240151572942
-3.554207675288024
-3.812695506218072
-3.308028788687994
-3.178784873222984
-3.1233946237379517
-3.1049312072429505
-3.092622262912931
-3.0987767350779407
-3.080313318582939
-3.074158846417929
-3.0864677907479487
-3.1049312072429505
-3.178784873222984
-3.141858040232953
-3.0003051804379233
-3.1664759288929645
-3.2280206505429785
-3.160321456727955
-3.141858040232953
-3.1233946237379517
-2.667963683527869
-3.2218661783779687
-3.529589786628012
-3.1972482897179852
-3.1480125123979352
-3.1049312072429505
-3.1110856794079322
-3.1110856794079322
-3.074158846417929
-3.055695429922928
-3.1233946237379517
-3.1295490959029335
-3.1233946237379517
-3.1357035680679433
-3.117240151572942
-3.117240151572942
-3.1480125123979352
-3.1480125123979352
-3.141858040232953
-3.1233946237379517
-3.160321456727955
-3.1480125123979352
-3.154166984562973
-3.3511100938430074
-3.24648406703798
-3.184939345387966
-3.1357035680679433
-3.117240151572942
-3.1295490959029335
-3.1664759288929645
-3.1110856794079322
-3.0864677907479487
-3.1110856794079322
-3.1480125123979352
-3.0864677907479487
-3.0618499020879373
-3.037232013427927
-3.0618499020879373
-3.1295490959029335
-3.1233946237379517
-3.1295490959029335
-3.1357035680679433
-3.1480125123979352
-3.1480125123979352
-3.1480125123979352
-3.1110856794079322
-3.1664759288929645
-3.1480125123979352
-2.944914930952919
-1.972508328882766
-2.4279392690928487
-2.834134431982911
-3.0618499020879373
-3.049540957757918
-3.1049312072429505
-3.1233946237379517
-3.511126370133011
-4.532768749523157
-3.3326466773480057
-1.7201749701177547
-3.037232013427927
-3.117240151572942
-3.080313318582939
-3.1110856794079322
-3.6711426464230414
-4.600467943338183
-3.664988174258033
-3.3326466773480057
-3.264947483532982
-3.258793011367972
-3.2403295948729705
-3.2034027618829675
-3.154166984562973
-3.178784873222984
-3.2218661783779687
-3.2095572340479768
-3.1664759288929645
-3.1295490959029335
-3.0680043742529195
-2.975687291777912
-3.0987767350779407
-3.0987767350779407
-3.1295490959029335
-3.1110856794079322
-3.1049312072429505
-3.0680043742529195
-3.018768596932925
-3.018768596932925
-3.074158846417929
-3.037232013427927
-3.0003051804379233
-3.0003051804379233
-2.96953281961293
-2.96953281961293
-3.1110856794079322
-3.117240151572942
-3.1110856794079322
-3.0864677907479487
-3.0680043742529195
-3.055695429922928
-3.0680043742529195
-3.0310775412629165
-3.0618499020879373
-3.0618499020879373
-3.0310775412629165
-3.043386485592936
-2.994150708272913
-2.877215737137895
-3.080313318582939
-3.055695429922928
-3.037232013427927
-3.074158846417929
-3.092622262912931
-2.994150708272913
-2.994150708272913
-3.006459652602933
-3.043386485592936
-3.0249230690979347
-2.9633783474479203
-2.975687291777912
-2.96953281961293
-2.907988097962916
-2.5941100175478624
-3.0864677907479487
-3.4188092876580036
-3.1233946237379517
-3.0618499020879373
-3.0618499020879373
-3.055695429922928
-3.0864677907479487
-3.0864677907479487
-3.0680043742529195
-3.0618499020879373
-3.1233946237379517
-3.080313318582939
-2.9387604587879093
-2.8464433763129016
-3.0618499020879373
-3.080313318582939
-3.0680043742529195
-3.1049312072429505
-3.0864677907479487
-3.074158846417929
-3.074158846417929
-3.0126141247679152
-3.049540957757918
-3.0864677907479487
-3.0310775412629165
-3.006459652602933
-3.074158846417929
-3.301874316522985
-3.1295490959029335
-3.018768596932925
-3.0618499020879373
-3.1049312072429505
-3.092622262912931
-3.1233946237379517
-3.1295490959029335
-3.1664759288929645
-3.1664759288929645
-3.1233946237379517
-3.160321456727955
-3.178784873222984
-3.117240151572942
-3.092622262912931
-3.191093817552976
-3.215711706212987
-3.160321456727955
-3.1295490959029335
-3.154166984562973
-3.191093817552976
-3.154166984562973
-3.1233946237379517
-3.1357035680679433
-3.1480125123979352
-3.1480125123979352
-3.1357035680679433
-3.0680043742529195
-3.141858040232953
-3.258793011367972
-2.778744182497905
-1.5416952773327224
-3.6219068691030203
-4.385061417563146
-3.449581648482997
-3.2341751227079882
-3.191093817552976
-3.178784873222984
-3.1664759288929645
-3.160321456727955
-3.184939345387966
-3.1664759288929645
-3.2034027618829675
-3.178784873222984
-3.1233946237379517
-3.1233946237379517
-3.1357035680679433
-3.1049312072429505
-3.0864677907479487
-3.117240151572942
-3.1357035680679433
-3.1480125123979352
-3.1295490959029335
-3.074158846417929
-3.172630401057975
-3.1295490959029335
-3.0618499020879373
-3.1480125123979352
-3.117240151572942
-3.092622262912931
-3.0864677907479487
-3.092622262912931
-3.0987767350779407
-3.1480125123979352
-3.1480125123979352
-3.141858040232953
-3.178784873222984
-3.2095572340479768
-3.1972482897179852
-3.154166984562973
-2.994150708272913
-3.160321456727955
-3.1664759288929645
-3.1664759288929645
-3.215711706212987
-3.2341751227079882
-3.2095572340479768
-3.2218661783779687
-3.2218661783779687
-2.766435238167886
-3.172630401057975
-3.468045064977998
-3.215711706212987
-3.191093817552976
-3.277256427862973
-3.375727982502991
-3.2403295948729705
-3.2034027618829675
-3.2218661783779687
-3.160321456727955
-3.1664759288929645
-3.184939345387966
-3.1664759288929645
-3.1049312072429505
-2.655654739197877
-3.215711706212987
-3.554207675288024
-3.2034027618829675
-3.154166984562973
-3.1664759288929645
-3.1295490959029335
-3.1110856794079322
-3.080313318582939
-3.1110856794079322
-3.1480125123979352
-3.1233946237379517
-3.1295490959029335
-3.160321456727955
-3.2034027618829675
-3.184939345387966
-3.154166984562973
-3.1295490959029335
-3.037232013427927
-2.834134431982911
-3.0680043742529195
-3.1049312072429505
-3.1233946237379517
-3.141858040232953
-3.117240151572942
-3.0864677907479487
-3.154166984562973
-3.1972482897179852
-3.1972482897179852
-3.1972482897179852
-3.2095572340479768
-3.2095572340479768
-3.2711019556979917
-3.5234353144630304
-3.338801149512988
-3.2403295948729705
-3.160321456727955
-3.1233946237379517
-3.1357035680679433
-3.1664759288929645
-3.264947483532982
-3.184939345387966
-3.178784873222984
-3.2834109000279827
-3.301874316522985
-3.258793011367972
-3.178784873222984
-2.7171994608478913
-2.9387604587879093
-3.141858040232953
-3.1480125123979352
-3.1110856794079322
-3.074158846417929
-3.0680043742529195
-3.1233946237379517
-3.172630401057975
-3.1480125123979352
-3.2034027618829675
-2.8649067928079033
-1.6586302484677409
-3.1295490959029335
-3.8311589227130733
-3.5726710917830253
-3.2341751227079882
-4.108110170138096
-4.181963836118102
-3.406500343328012
-3.2403295948729705
-3.258793011367972
-3.357264566007989
-3.357264566007989
-3.344955621677997
-3.381882454668
-3.344955621677997
-3.24648406703798
-3.264947483532982
-3.369573510338009
-3.215711706212987
-3.154166984562973
-3.184939345387966
-3.2034027618829675
-3.2403295948729705
-3.25263853920299
-3.24648406703798
-3.2280206505429785
-3.2280206505429785
-3.215711706212987
-3.2095572340479768
-3.117240151572942
-2.9572238752829105
-3.1480125123979352
-3.172630401057975
-3.1664759288929645
-3.184939345387966
-3.184939345387966
-3.24648406703798
-3.1972482897179852
-3.178784873222984
-3.2403295948729705
-3.2034027618829675
-3.2034027618829675
-3.191093817552976
-3.1664759288929645
-2.944914930952919
-2.9879962361079313
-3.172630401057975
-3.2095572340479768
-3.2341751227079882
-3.2834109000279827
-3.2957198443579747
-3.2957198443579747
-3.2711019556979917
-3.258793011367972
-3.2834109000279827
-3.2711019556979917
-3.2218661783779687
-3.178784873222984
-3.006459652602933
-2.821825487652891
-2.4894839907428636
-1.7263294422827367
-2.4156303247628297
-3.412654815492993
-3.2095572340479768
-3.141858040232953
-3.1357035680679433
-3.215711706212987
-4.255817502098136
-4.0896467536430965
-3.38803692683301
-3.264947483532982
-3.289565372192993
-3.2034027618829675
-3.191093817552976
-3.258793011367972
-3.258793011367972
-3.2034027618829675
-3.2034027618829675
-3.191093817552976
-3.178784873222984
-3.178784873222984
-3.160321456727955
-3.141858040232953
-3.1664759288929645
-3.154166984562973
-3.357264566007989
-3.825004450548064
-3.3326466773480057
-3.178784873222984
-3.1357035680679433
-3.172630401057975
-3.0618499020879373
-3.0249230690979347
-3.037232013427927
-2.96953281961293
-2.994150708272913
-3.0864677907479487
-3.1233946237379517
-3.117240151572942
-3.141858040232953
-3.277256427862973
-3.2341751227079882
-3.1110856794079322
-3.1049312072429505
-3.049540957757918
-3.0310775412629165
-3.0249230690979347
-3.0126141247679152
-3.0003051804379233
-2.994150708272913
-3.0618499020879373
-3.092622262912931
-3.092622262912931
-3.049540957757918
-3.0126141247679152
-3.0618499020879373
-3.0126141247679152
-3.0003051804379233
-2.981841763942921
-2.9633783474479203
-2.5941100175478624
-1.4124513618677115
-3.825004450548064
-3.812695506218072
-3.0987767350779407
-3.0126141247679152
-3.0310775412629165
-2.9510694031179288
-2.286386409297819
-2.55718318455786
-2.9202970422929075
-2.9387604587879093
-2.932605986622927
-2.975687291777912
-2.981841763942921
-2.944914930952919
-2.9387604587879093
-2.944914930952919
-2.9572238752829105
-2.9387604587879093
-2.9264515144579173
-2.9572238752829105
-3.615752396938038
-3.5665166196180156
-3.1110856794079322
-3.0864677907479487
-3.074158846417929
-3.018768596932925
-3.006459652602933
-3.0126141247679152
-2.9879962361079313
-2.9572238752829105
-2.944914930952919
-3.006459652602933
-3.154166984562973
-2.994150708272913
-2.9264515144579173
-3.074158846417929
-3.037232013427927
-3.018768596932925
-2.975687291777912
-2.975687291777912
-2.9572238752829105
-2.944914930952919
-2.9264515144579173
-2.9141425701278982
-2.9510694031179288
-2.96953281961293
-2.994150708272913
-2.9879962361079313
-2.9264515144579173
-3.0987767350779407
-3.0618499020879373
-3.0126141247679152
-3.006459652602933
-2.981841763942921
-2.975687291777912
-2.9879962361079313
-3.0003051804379233
-3.0249230690979347
-3.055695429922928
-3.055695429922928
-3.0680043742529195
-3.055695429922928
-2.3663945474428347
-2.674118155692878
-3.4188092876580036
-3.141858040232953
-3.0987767350779407
-3.0680043742529195
-3.055695429922928
-3.0864677907479487
-3.1049312072429505
-3.055695429922928
-3.0618499020879373
-3.1110856794079322
-3.1295490959029335
-3.092622262912931
-3.289565372192993
-3.578825563948035
-3.308028788687994
-3.215711706212987
-3.1233946237379517
-3.1233946237379517
-3.141858040232953
-3.0987767350779407
-3.080313318582939
-3.1049312072429505
-2.6925815721878803
-3.154166984562973
-3.4434271763180146
-3.160321456727955
-3.1110856794079322
-3.258793011367972
-3.1664759288929645
-3.092622262912931
-3.092622262912931
-3.0310775412629165
-3.037232013427927
-3.0003051804379233
-3.0003051804379233
-2.9879962361079313
-2.9510694031179288
-2.96953281961293
-3.0003051804379233
-3.006459652602933
-2.96953281961293
-3.0310775412629165
-3.0864677907479487
-3.0680043742529195
-3.043386485592936
-3.0126141247679152
-2.994150708272913
-3.0003051804379233
-2.9633783474479203
-2.9387604587879093
-2.944914930952919
-2.96953281961293
-2.981841763942921
-2.96953281961293
-2.96953281961293
-3.0249230690979347
-2.68642710002287
-1.4616871391877062
-2.8525978484779113
-2.9879962361079313
-2.9879962361079313
-3.154166984562973
-4.268126446428129
-3.720378423743037
-3.172630401057975
-3.0126141247679152
-3.006459652602933
-3.0618499020879373
-3.0003051804379233
-3.0310775412629165
-3.154166984562973
-3.160321456727955
-3.1110856794079322
-3.1049312072429505
-3.074158846417929
-3.0987767350779407
-3.117240151572942
-3.172630401057975
-3.0310775412629165
-2.96953281961293
-3.037232013427927
-3.0618499020879373
-2.9879962361079313
-2.944914930952919
-3.1233946237379517
-3.092622262912931
-3.043386485592936
-3.0126141247679152
-3.018768596932925
-3.0310775412629165
-3.0249230690979347
-2.9879962361079313
-3.006459652602933
-3.043386485592936
-3.074158846417929
-3.0864677907479487
-3.0126141247679152
-2.9387604587879093
-3.1357035680679433
-3.080313318582939
-3.049540957757918
-3.043386485592936
-3.0680043742529195
-3.0310775412629165
-3.0249230690979347
-3.074158846417929
-3.117240151572942
-3.055695429922928
-3.0310775412629165
-3.074158846417929
-3.049540957757918
-2.9264515144579173
-3.006459652602933
-3.0310775412629165
-3.0003051804379233
-2.9879962361079313
-3.0126141247679152
-3.0003051804379233
-3.037232013427927
-3.006459652602933
-2.538719768062857
-3.0987767350779407
-3.468045064977998
-3.178784873222984
-3.0680043742529195
-3.080313318582939
-3.2403295948729705
-3.1295490959029335
-3.074158846417929
-3.0618499020879373
-3.0680043742529195
-3.117240151572942
-3.1357035680679433
-3.0618499020879373
-3.043386485592936
-3.080313318582939
-3.074158846417929
-3.074158846417929
-3.043386485592936
-2.96953281961293
-2.9202970422929075
-3.018768596932925
-3.0249230690979347
-3.074158846417929
-3.055695429922928
-3.049540957757918
-3.049540957757918
-3.080313318582939
-3.074158846417929
-3.055695429922928
-3.074158846417929
-3.1049312072429505
-3.1049312072429505
-3.074158846417929
-3.2218661783779687
-3.160321456727955
-3.080313318582939
-3.117240151572942
-3.117240151572942
-3.1664759288929645
-3.154166984562973
-3.1357035680679433
-3.1357035680679433
-3.154166984562973
-3.178784873222984
-3.160321456727955
-3.1480125123979352
-3.1233946237379517
-3.092622262912931
-3.1664759288929645
-3.1664759288929645
-3.172630401057975
-3.1664759288929645
-3.1972482897179852
-3.2095572340479768
-3.2280206505429785
-3.2095572340479768
-3.184939345387966
-2.766435238167886
-1.7509473309427481
-4.298898807253121
-3.677297118588053
-3.24648406703798
-3.2403295948729705
-3.092622262912931
-3.0864677907479487
-3.0618499020879373
-2.9141425701278982
-1.7878741639327511
-1.990971745377768
-3.264947483532982
-3.25263853920299
-3.0987767350779407
-3.0864677907479487
-3.074158846417929
-3.5418987309580316
-4.341980112408136
-3.517280842298021
-3.1480125123979352
-3.1049312072429505
-3.080313318582939
-3.117240151572942
-3.141858040232953
-3.1233946237379517
-3.0864677907479487
-3.117240151572942
-3.117240151572942
-3.074158846417929
-3.080313318582939
-3.043386485592936
-2.8649067928079033
-2.9572238752829105
-3.018768596932925
-3.018768596932925
-2.994150708272913
-2.994150708272913
-2.994150708272913
-2.96953281961293
-2.9572238752829105
-2.96953281961293
-2.9510694031179288
-2.981841763942921
-3.0310775412629165
-3.0249230690979347
-3.1357035680679433
-3.363419038172999
-3.1357035680679433
-3.043386485592936
-3.0310775412629165
-3.0310775412629165
-3.055695429922928
-3.049540957757918
-2.981841763942921
-2.981841763942921
-2.994150708272913
-3.018768596932925
-2.975687291777912
-2.9510694031179288
-2.9633783474479203
-3.092622262912931
-3.080313318582939
-3.037232013427927
-3.0618499020879373
-3.0680043742529195
-3.0618499020879373
-3.055695429922928
-3.0310775412629165
-3.018768596932925
-3.006459652602933
-2.9879962361079313
-2.9510694031179288
-2.4894839907428636
-2.9202970422929075
-3.437272704153005
-3.141858040232953
-3.0864677907479487
-3.0864677907479487
-3.092622262912931
-3.0618499020879373
-3.1049312072429505
-3.1049312072429505
-3.0618499020879373
-2.994150708272913
-3.037232013427927
-3.049540957757918
-3.006459652602933
-2.883370209302905
-2.729508405177883
-3.0126141247679152
-3.080313318582939
-3.049540957757918
-3.0987767350779407
-3.1295490959029335
-3.141858040232953
-3.117240151572942
-3.1049312072429505
-3.1480125123979352
-3.1110856794079322
-3.092622262912931
-3.074158846417929
-3.1664759288929645
-3.511126370133011
-3.2403295948729705
-3.049540957757918
-3.055695429922928
-3.0987767350779407
-3.1233946237379517
-3.154166984562973
-3.141858040232953
-3.172630401057975
-3.178784873222984
-3.2034027618829675
-3.2095572340479768
-3.2095572340479768
-3.2218661783779687
-3.25263853920299
-3.2957198443579747
-3.2711019556979917
-3.2095572340479768
-3.1664759288929645
-2.8525978484779113
-1.972508328882766
-2.68642710002287
-2.9387604587879093
-3.049540957757918
-3.1357035680679433
-4.477378500038154
-3.781923145393051
-3.154166984562973
-3.074158846417929
-3.2095572340479768
-3.1357035680679433
-3.160321456727955
-3.160321456727955
-3.160321456727955
-3.154166984562973
-3.178784873222984
-3.160321456727955
-3.184939345387966
-3.141858040232953
-3.080313318582939
-3.0618499020879373
-3.0310775412629165
-3.0003051804379233
-3.092622262912931
-3.043386485592936
-3.0680043742529195
-3.0680043742529195
-3.043386485592936
-3.1233946237379517
-3.172630401057975
-3.154166984562973
-3.1357035680679433
-3.1295490959029335
-3.1233946237379517
-3.172630401057975
-3.117240151572942
-3.0618499020879373
-3.2034027618829675
-3.1480125123979352
-3.0987767350779407
-3.074158846417929
-3.1110856794079322
-3.092622262912931
-3.092622262912931
-3.0864677907479487
-3.1295490959029335
-3.154166984562973
-3.1049312072429505
-3.0864677907479487
-3.0249230690979347
-2.975687291777912
-3.2095572340479768
-3.0987767350779407
-3.049540957757918
-3.0310775412629165
-3.0003051804379233
-2.981841763942921
-3.0126141247679152
-3.0310775412629165
-3.141858040232953
-3.0680043742529195
-3.037232013427927
-3.0618499020879373
-2.624882378372884
-3.0987767350779407
-3.517280842298021
-3.2280206505429785
-3.1480125123979352
-3.080313318582939
-3.0618499020879373
-3.0864677907479487
-3.0864677907479487
-3.055695429922928
-3.080313318582939
-3.117240151572942
-3.0987767350779407
-3.092622262912931
-3.0680043742529195
-3.037232013427927
-3.0987767350779407
-3.092622262912931
-3.0680043742529195
-3.074158846417929
-3.0680043742529195
-3.049540957757918
-3.0618499020879373
-3.0680043742529195
-3.141858040232953
-3.1972482897179852
-3.1664759288929645
-3.141858040232953
-3.1110856794079322
-3.1295490959029335
-3.277256427862973
-3.2403295948729705
-3.141858040232953
-3.184939345387966
-3.172630401057975
-3.178784873222984
-3.160321456727955
-3.178784873222984
-3.184939345387966
-3.154166984562973
-3.117240151572942
-3.1357035680679433
-3.074158846417929
-2.9879962361079313
-2.7910531268278973
-2.96953281961293
-3.055695429922928
-3.0864677907479487
-3.0680043742529195
-3.092622262912931
-3.1233946237379517
-3.1972482897179852
-3.1110856794079322
-3.043386485592936
-3.080313318582939
-3.0864677907479487
-3.0126141247679152
-3.037232013427927
-2.9633783474479203
-2.2309961598128147
-4.2311996134381245
-3.375727982502991
-3.1972482897179852
-3.1664759288929645
-3.117240151572942
-3.080313318582939
-3.0864677907479487
-3.0864677907479487
-3.074158846417929
-3.080313318582939
-3.0310775412629165
-3.0126141247679152
-2.994150708272913
-3.0126141247679152
-3.0249230690979347
-3.0987767350779407
-3.080313318582939
-3.080313318582939
-3.0680043742529195
-3.0864677907479487
-3.1049312072429505
-3.0680043742529195
-3.080313318582939
-3.0680043742529195
-3.043386485592936
-3.0003051804379233
-3.0618499020879373
-3.2034027618829675
-3.1049312072429505
-3.037232013427927
-3.055695429922928
-3.074158846417929
-3.043386485592936
-3.0003051804379233
-2.9879962361079313
-3.006459652602933
-3.0249230690979347
-2.9879962361079313
-3.0003051804379233
-2.9510694031179288
-2.96953281961293
-3.018768596932925
-2.994150708272913
-2.9879962361079313
-3.006459652602933
-3.006459652602933
-3.080313318582939
-3.018768596932925
-2.975687291777912
-2.994150708272913
-3.0126141247679152
-3.018768596932925
-3.037232013427927
-2.981841763942921
-2.471020574247862
-2.409475852597848
-2.8464433763129016
-3.0249230690979347
-2.9264515144579173
-2.981841763942921
-3.0310775412629165
-3.049540957757918
-2.618727906207874
-3.1295490959029335
-3.492662953638009
-3.1664759288929645
-3.0987767350779407
-3.018768596932925
-3.375727982502991
-3.7142239515780546
-3.25263853920299
-3.1295490959029335
-3.0987767350779407
-3.1110856794079322
-3.1110856794079322
-3.0864677907479487
-3.1110856794079322
-3.1295490959029335
-2.194069326822812
-2.3417766587828237
-2.8525978484779113
-3.074158846417929
-3.1357035680679433
-3.215711706212987
-3.1972482897179852
-3.326492205182996
-4.465069555708162
-3.972711782508076
-3.3511100938430074
-3.25263853920299
-3.2341751227079882
-3.191093817552976
-3.178784873222984
-3.160321456727955
-3.178784873222984
-3.1357035680679433
-3.1295490959029335
-3.277256427862973
-3.2280206505429785
-3.1664759288929645
-3.1480125123979352
-3.215711706212987
-3.2280206505429785
-3.24648406703798
-3.2095572340479768
-3.191093817552976
-3.184939345387966
-3.191093817552976
-3.1664759288929645
-3.1295490959029335
-3.0864677907479487
-3.0680043742529195
-3.1295490959029335
-3.1357035680679433
-3.1664759288929645
-3.178784873222984
-3.191093817552976
-3.191093817552976
-3.141858040232953
-3.160321456727955
-2.8649067928079033
-1.990971745377768
-2.711044988682881
-3.0126141247679152
-3.074158846417929
-4.0465654484880815
-4.397370361893138
-3.461890592813016
-3.2957198443579747
-3.2403295948729705
-3.2280206505429785
-3.2218661783779687
-3.2341751227079882
-3.2095572340479768
-3.1972482897179852
-3.215711706212987
-3.215711706212987
-3.2095572340479768
-3.1295490959029335
-2.9510694031179288
-3.160321456727955
-3.184939345387966
-3.191093817552976
-3.2218661783779687
-3.24648406703798
-3.2403295948729705
-3.2218661783779687
-3.24648406703798
-3.2218661783779687
-3.215711706212987
-3.191093817552976
-3.160321456727955
-3.1664759288929645
-3.338801149512988
-3.308028788687994
-3.2034027618829675
-3.191093817552976
-3.2403295948729705
-3.25263853920299
-3.2218661783779687
-3.2218661783779687
-3.191093817552976
-3.178784873222984
-3.160321456727955
-3.1972482897179852
-3.2034027618829675
-3.117240151572942
-3.0987767350779407
-3.25263853920299
-3.2034027618829675
-3.178784873222984
-3.172630401057975
-3.2034027618829675
-3.172630401057975
-3.160321456727955
-3.191093817552976
-3.191093817552976
-3.2095572340479768
-3.2341751227079882
-3.2280206505429785
-3.160321456727955
-2.772589710332896
-2.631036850537866
-3.0126141247679152
-2.655654739197877
-3.191093817552976
-3.5726710917830253
-3.258793011367972
-3.178784873222984
-3.24648406703798
-3.2280206505429785
-3.191093817552976
-3.172630401057975
-3.191093817552976
-3.172630401057975
-3.578825563948035
-3.874240227868059
-3.381882454668
-3.2834109000279827
-3.215711706212987
-3.178784873222984
-3.215711706212987
-3.2218661783779687
-3.2403295948729705
-3.2095572340479768
-3.191093817552976
-3.2218661783779687
-3.2341751227079882
-3.1972482897179852
-3.018768596932925
-2.815671015487909
-3.141858040232953
-3.160321456727955
-3.178784873222984
-3.215711706212987
-3.2280206505429785
-3.2403295948729705
-3.2403295948729705
-3.2403295948729705
-2.858752320642893
-3.2403295948729705
-3.474199537143008
-3.2034027618829675
-3.258793011367972
-3.548053203123014
-3.363419038172999
-3.24648406703798
-3.2218661783779687
-3.1480125123979352
-3.1357035680679433
-3.178784873222984
-3.2034027618829675
-3.160321456727955
-3.178784873222984
-3.1233946237379517
-3.117240151572942
-3.1357035680679433
-3.080313318582939
-3.1049312072429505
-3.1972482897179852
-3.154166984562973
-3.1480125123979352
-2.8095165433228986
-1.89865466290276
-2.655654739197877
-2.994150708272913
-3.055695429922928
-3.0864677907479487
-3.0987767350779407
-3.0680043742529195
-3.184939345387966
-4.261971974263118
-3.972711782508076
-3.363419038172999
-3.2341751227079882
-3.191093817552976
-3.2095572340479768
-3.2280206505429785
-3.2280206505429785
-3.184939345387966
-3.184939345387966
-3.184939345387966
-3.178784873222984
-3.154166984562973
-3.117240151572942
-3.1049312072429505
-3.160321456727955
-3.2403295948729705
-3.191093817552976
-3.215711706212987
-3.172630401057975
-3.172630401057975
-3.141858040232953
-3.1664759288929645
-3.2711019556979917
-3.184939345387966
-3.154166984562973
-3.191093817552976
-3.2095572340479768
-3.160321456727955
-3.178784873222984
-3.308028788687994
-3.2280206505429785
-3.2280206505429785
-3.2218661783779687
-3.2034027618829675
-3.2095572340479768
-3.2095572340479768
-3.2095572340479768
-3.2218661783779687
-3.25263853920299
-3.2095572340479768
-3.215711706212987
-3.2095572340479768
-3.2403295948729705
-3.394191398997992
-3.289565372192993
-3.2341751227079882
-3.2218661783779687
-3.2341751227079882
-3.2218661783779687
-3.2034027618829675
-3.2403295948729705
-3.2711019556979917
-3.2403295948729705
-3.160321456727955
-2.6987360443528896
-3.2095572340479768
-3.449581648482997
-3.338801149512988
-3.2711019556979917
-3.24648406703798
-3.2095572340479768
-3.326492205182996
-3.258793011367972
-3.184939345387966
-3.2034027618829675
-3.2280206505429785
-3.2095572340479768
-3.215711706212987
-3.2034027618829675
-3.160321456727955
-3.1357035680679433
-3.301874316522985
-3.2341751227079882
-3.1972482897179852
-3.2034027618829675
-3.2034027618829675
-3.2280206505429785
-3.2957198443579747
-3.191093817552976
-3.1664759288929645
-3.2034027618829675
-3.172630401057975
-3.191093817552976
-3.172630401057975
-3.074158846417929
-2.994150708272913
-3.1357035680679433
-3.184939345387966
-3.184939345387966
-3.1972482897179852
-3.184939345387966
-3.172630401057975
-3.2095572340479768
-3.184939345387966
-3.215711706212987
-3.25263853920299
-3.24648406703798
-3.2341751227079882
-3.2834109000279827
-3.461890592813016
-3.344955621677997
-3.24648406703798
-3.2095572340479768
-3.2218661783779687
-3.2280206505429785
-3.24648406703798
-3.215711706212987
-3.191093817552976
-3.215711706212987
-3.2280206505429785
-3.2218661783779687
-3.1480125123979352
-2.778744182497905
-1.7632562752727399
-2.631036850537866
-2.994150708272913
-3.264947483532982
-4.434297194883141
-3.9788662546730857
-3.3511100938430074
-3.2218661783779687
-3.2218661783779687
-3.2280206505429785
-3.172630401057975
-3.184939345387966
-3.1972482897179852
-3.184939345387966
-3.344955621677997
-3.381882454668
-3.258793011367972
-3.24648406703798
-3.215711706212987
-3.2711019556979917
-3.2341751227079882
-3.2218661783779687
-3.2403295948729705
-3.215711706212987
-3.215711706212987
-3.25263853920299
-3.24648406703798
-2.8033620711578893
-1.3447521680526875
-2.6371913227028756
-3.578825563948035
-3.3203377330179857
-3.2280206505429785
-3.184939345387966
-3.1664759288929645
-3.849622339208075
-4.391215889728128
-3.504971897968029
-3.2403295948729705
-3.172630401057975
-3.184939345387966
-3.1295490959029335
-3.2095572340479768
-3.338801149512988
-3.184939345387966
-3.191093817552976
-3.1972482897179852
-3.160321456727955
-3.154166984562973
-3.172630401057975
-3.1972482897179852
-3.184939345387966
-3.2034027618829675
-3.1664759288929645
-3.160321456727955
-3.154166984562973
-2.834134431982911
-2.8095165433228986
-3.1110856794079322
-3.0987767350779407
-3.0864677907479487
-3.1357035680679433
-3.154166984562973
-3.1480125123979352
-3.154166984562973
-3.172630401057975
-3.2218661783779687
-3.2034027618829675
-3.141858040232953
-3.141858040232953
-3.400345871163002
-3.652679229928041
-3.326492205182996
-3.2095572340479768
-3.2095572340479768
-3.2095572340479768
-3.172630401057975
-3.160321456727955
-3.160321456727955
-3.172630401057975
-3.141858040232953
-3.1480125123979352
-3.1295490959029335
-3.154166984562973
-3.1480125123979352
-3.154166984562973
-3.1972482897179852
-3.2218661783779687
-3.25263853920299
-3.2957198443579747
-3.172630401057975
-2.735662877342893
-3.381882454668
-3.6280613412680296
-3.326492205182996
-3.2341751227079882
-3.25263853920299
-3.2218661783779687
-3.1480125123979352
-3.154166984562973
-3.264947483532982
-3.24648406703798
-3.2403295948729705
-3.2341751227079882
-3.215711706212987
-3.1972482897179852
-3.160321456727955
-3.178784873222984
-3.1972482897179852
-3.160321456727955
-3.1480125123979352
-3.1295490959029335
-3.178784873222984
-3.461890592813016
-3.2834109000279827
-3.160321456727955
-3.178784873222984
-3.172630401057975
-3.160321456727955
-3.1480125123979352
-3.184939345387966
-2.944914930952919
-1.972508328882766
-2.4894839907428636
-2.9510694031179288
-3.037232013427927
-2.96953281961293
-2.907988097962916
-3.0987767350779407
-3.424963759823013
-4.489687444368147
-3.6465247577630313
-3.24648406703798
-3.191093817552976
-3.1664759288929645
-3.172630401057975
-3.191093817552976
-2.772589710332896
-3.24648406703798
-3.511126370133011
-3.2403295948729705
-3.191093817552976
-3.277256427862973
-3.24648406703798
-3.2403295948729705
-3.25263853920299
-3.326492205182996
-3.3203377330179857
-3.308028788687994
-3.344955621677997
-3.424963759823013
-3.412654815492993
-3.424963759823013
-3.406500343328012
-3.338801149512988
-3.424963759823013
-3.474199537143008
-3.2711019556979917
-3.2341751227079882
-3.2095572340479768
-3.1295490959029335
-3.080313318582939
-3.092622262912931
-3.1233946237379517
-3.1357035680679433
-3.1357035680679433
-3.1357035680679433
-3.0987767350779407
-2.9633783474479203
-2.7171994608478913
-2.754126293837894
-2.8464433763129016
-2.8095165433228986
-2.766435238167886
-2.7171994608478913
-2.711044988682881
-2.674118155692878
-2.618727906207874
-2.581801073217871
-2.581801073217871
-2.5694921288878514
-2.544874240227868
-2.501792935072855
-2.5694921288878514
-2.747971821672884
-2.1817603824928202
-2.680272627857888
-3.092622262912931
-2.834134431982911
-2.834134431982911
-2.895679153632896
-2.975687291777912
-3.191093817552976
-3.1480125123979352
-3.215711706212987
-3.338801149512988
-3.3511100938430074
-3.344955621677997
-3.548053203123014
-3.529589786628012
-3.529589786628012
-3.492662953638009
-3.474199537143008
-3.461890592813016
-3.4434271763180146
-3.504971897968029
-3.3203377330179857
-3.357264566007989
-3.38803692683301
-3.406500343328012
-3.3203377330179857
-2.9633783474479203
-2.446402685587851
-3.074158846417929
-3.2403295948729705
-3.24648406703798
-3.2218661783779687
-3.264947483532982
-3.25263853920299
-3.258793011367972
-3.2403295948729705
-3.2403295948729705
-3.24648406703798
-3.25263853920299
-3.24648406703798
-3.3326466773480057
-3.394191398997992
-3.25263853920299
-3.25263853920299
-3.308028788687994
-3.3203377330179857
-3.3141832608529764
-3.326492205182996
-3.344955621677997
-3.3326466773480057
-3.258793011367972
-3.2341751227079882
-3.264947483532982
-3.24648406703798
-3.4311182319879947
-4.305053279418132
-3.6896060629180436
-3.3203377330179857
-2.9264515144579173
-2.009435161872797
-2.704890516517872
-3.006459652602933
-3.4557361206480066
-4.477378500038154
-3.6219068691030203
-3.277256427862973
-3.2403295948729705
-3.215711706212987
-3.154166984562973
-2.994150708272913
-3.2341751227079882
-3.277256427862973
-3.308028788687994
-3.363419038172999
-3.381882454668
-3.357264566007989
-3.326492205182996
-3.3203377330179857
-3.338801149512988
-3.3141832608529764
-3.301874316522985
-3.301874316522985
-3.2834109000279827
-3.2280206505429785
-3.3203377330179857
-3.301874316522985
-3.264947483532982
-3.2280206505429785
-3.2218661783779687
-3.2341751227079882
-3.215711706212987
-3.1480125123979352
-3.0987767350779407
-3.1110856794079322
-3.117240151572942
-3.1233946237379517
-3.055695429922928
-3.055695429922928
-3.191093817552976
-3.141858040232953
-3.1233946237379517
-3.1295490959029335
-3.1357035680679433
-3.0680043742529195
-3.055695429922928
-3.0680043742529195
-3.055695429922928
-3.1110856794079322
-3.080313318582939
-3.0680043742529195
-3.0680043742529195
-2.994150708272913
-3.1110856794079322
-3.080313318582939
-3.0987767350779407
-3.1295490959029335
-3.0987767350779407
-3.0987767350779407
-3.092622262912931
-3.080313318582939
-3.1049312072429505
-3.0249230690979347
-2.55102871239285
-3.154166984562973
-3.4865084814730274
-3.117240151572942
-3.172630401057975
-3.154166984562973
-3.1295490959029335
-3.1110856794079322
-3.092622262912931
-3.1049312072429505
-3.117240151572942
-3.080313318582939
-3.1110856794079322
-3.1357035680679433
-3.1357035680679433
-3.0864677907479487
-3.006459652602933
-3.018768596932925
-3.074158846417929
-3.0249230690979347
-3.006459652602933
-2.9879962361079313
-3.043386485592936
-3.0126141247679152
-2.9879962361079313
-3.0249230690979347
-3.055695429922928
-3.043386485592936
-3.043386485592936
-3.055695429922928
-3.0249230690979347
-3.043386485592936
-3.215711706212987
-3.1110856794079322
-3.0126141247679152
-1.6217034154777374
-2.3971669082678284
-2.895679153632896
-2.9633783474479203
-3.0003051804379233
-2.994150708272913
-2.981841763942921
-3.215711706212987
-4.348134584573144
-3.609597924773028
-3.080313318582939
-2.981841763942921
-3.074158846417929
-3.0680043742529195
-3.0003051804379233
-3.0249230690979347
-3.0249230690979347
-2.9879962361079313
-2.994150708272913
-3.0249230690979347
-3.0618499020879373
-3.0680043742529195
-3.043386485592936
-2.704890516517872
-1.7940286360977609
-2.9141425701278982
-3.0680043742529195
-3.006459652602933
-3.043386485592936
-3.0618499020879373
-3.006459652602933
-3.732687368073057
-4.298898807253121
-3.369573510338009
-3.1972482897179852
-3.178784873222984
-3.1357035680679433
-3.1357035680679433
-3.074158846417929
-2.8402889041478923
-3.006459652602933
-3.043386485592936
-3.092622262912931
-3.092622262912931
-3.0680043742529195
-3.0864677907479487
-3.1233946237379517
-3.0864677907479487
-3.0987767350779407
-3.1357035680679433
-3.178784873222984
-3.154166984562973
-4.440451667048151
-8.914752931003772
-5.788281071183343
-3.849622339208075
-3.504971897968029
-3.4311182319879947
-3.363419038172999
-3.2957198443579747
-3.2403295948729705
-3.2095572340479768
-3.178784873222984
-3.184939345387966
-3.160321456727955
-3.160321456727955
-3.1110856794079322
-3.0618499020879373
-3.258793011367972
-3.1972482897179852
-3.2218661783779687
-3.215711706212987
-3.2095572340479768
-3.178784873222984
-3.184939345387966
-3.178784873222984
-3.154166984562973
-3.178784873222984
-2.7418173495078744
-3.215711706212987
-3.504971897968029
-3.1480125123979352
-3.2280206505429785
-3.24648406703798
-3.2034027618829675
-3.191093817552976
-3.1664759288929645
-2.6987360443528896
-3.2280206505429785
-3.554207675288024
-3.25263853920299
-3.191093817552976
-3.1972482897179852
-3.191093817552976
-3.117240151572942
-3.117240151572942
-3.3141832608529764
-3.2034027618829675
-3.172630401057975
-3.1664759288929645
-3.160321456727955
-3.1295490959029335
-3.1295490959029335
-3.117240151572942
-3.1664759288929645
-3.1233946237379517
-3.074158846417929
-3.1049312072429505
-3.080313318582939
-2.994150708272913
-3.117240151572942
-3.1233946237379517
-3.0987767350779407
-3.117240151572942
-3.0987767350779407
-3.092622262912931
