3.184939345387937
3.2034027618829395
3.215711706212959
3.2403295948729705
3.271101955697964
3.277256427862973
3.277256427862973
3.289565372192965
3.301874316522957
3.308028788687967
3.3264922051829684
3.3388011495129604
3.3511100938429803
3.357264566007961
3.332646677347978
3.264947483532954
3.3880369268329824
3.394191398997992
3.400345871162973
3.418809287657976
3.437272704152977
3.437272704152977
3.4434271763179867
3.4618905928129893
3.468045064977998
3.48035400930799
3.486508481473
3.504971897968001
3.5172808422979926
3.511126370132983
3.5172808422979926
3.5234353144630024
3.5234353144630024
3.5234353144630024
3.5234353144630024
3.529589786627985
3.529589786627985
3.529589786627985
3.529589786627985
3.572671091782997
3.640370285598021
3.738841840238039
3.8496223392080475
3.9911751990030497
4.138882530963089
4.218890669108104
4.243508557768089
4.341980112408105
4.606622415503137
4.969736273238212
5.265150937158236
6.052923374278346
7.056102337173549
7.388443834083573
7.456143027898598
7.449988555733588
7.443834083568606
7.425370667073604
7.400752778413594
7.388443834083573
7.3576714732585815
7.326899112433587
7.296126751608567
7.271508862948581
7.24689097428857
7.209964141298569
7.179191780473548
7.142264947483545
7.111492586658551
7.080720225833531
7.049947865008538
7.013021032018535
6.982248671193544
6.9514763103685215
6.908395005213508
6.877622644388515
6.846850283563521
6.8037689784085105
6.785305561913507
6.748378728923504
6.723760840263493
6.680679535108479
6.656061646448497
6.6252892856234755
6.582207980468463
6.551435619643471
6.520663258818478
6.496045370158464
6.465273009333442
6.434500648508451
6.403728287683458
6.366801454693455
6.336029093868436
6.311411205208422
6.292947788713393
6.262175427888372
6.2252485948983685
6.194476234073376
6.169858345413365
6.145240456753354
6.108313623763351
6.083695735103367
6.065232318608365
6.040614429948354
6.015996541288343
5.98522418046335
5.972915236133329
5.935988403143328
5.911370514483344
5.892907097988342
5.874443681493341
5.84982579283333
5.831362376338328
5.81905343200831
5.7944355433483254
5.775972126853325
5.7451997660283025
5.726736349533301
5.714427405203311
5.6898095165432965
5.6590371557183055
5.634419267058294
5.622110322728302
5.591337961903281
5.566720073243298
5.554411128913278
5.529793240253267
5.505175351593283
5.474402990768261
5.462094046438272
5.443630629943269
5.412858269118276
5.388240380458265
5.375931436128245
5.295923297983257
5.05589888354821
4.711248442308165
4.465069555708134
4.465069555708134
4.3727524732331275
4.298898807253093
4.280435390758093
4.249663029933098
4.237354085603107
4.218890669108104
4.188118308283084
4.169654891788083
4.12657358663307
4.083492281478085
4.052719920653064
4.003484143333068
3.9665573103430645
3.9234760051880535
3.8803947000330408
3.8496223392080475
3.8126955062180454
3.7757686732280415
3.75115078456803
3.738841840238039
3.732687368073029
3.720378423743037
3.732687368073029
3.7265328959080186
3.7265328959080186
3.7265328959080186
3.720378423743037
3.7142239515780275
3.695760535083026
3.6834515907530063
3.695760535083026
3.695760535083026
3.701915007248036
3.7080694794130173
3.695760535083026
3.7080694794130173
3.720378423743037
3.738841840238039
3.75730525673304
3.75730525673304
3.75115078456803
3.763459728898022
3.7757686732280415
3.7696142010630322
3.763459728898022
3.75730525673304
3.75115078456803
3.75115078456803
3.7449963124030208
3.75115078456803
3.75115078456803
3.732687368073029
3.732687368073029
3.732687368073029
3.738841840238039
3.7449963124030208
3.75730525673304
3.7696142010630322
3.781923145393024
3.800386561888025
3.8126955062180454
3.825004450548036
3.8496223392080475
3.8619312835380395
3.8927036443630603
3.8988581165280416
3.886549172198051
3.8803947000330408
3.874240227868059
3.8680857557030492
3.874240227868059
3.874240227868059
3.886549172198051
3.8927036443630603
3.8927036443630603
3.9111670608580615
3.9173215330230438
3.9234760051880535
3.9419394216830552
3.9419394216830552
3.9542483660130467
3.9542483660130467
3.9542483660130467
3.9604028381780574
3.9665573103430645
3.948093893848065
3.9419394216830552
3.9111670608580615
3.905012588693053
3.8988581165280416
3.905012588693053
3.8927036443630603
3.886549172198051
3.886549172198051
3.874240227868059
3.8803947000330408
3.8803947000330408
3.886549172198051
3.874240227868059
3.8619312835380395
3.855776811373057
3.855776811373057
3.837313394878028
3.8188499783830263
3.831158922713046
3.8188499783830263
3.837313394878028
3.843467867043037
3.837313394878028
3.843467867043037
3.837313394878028
3.831158922713046
3.831158922713046
3.831158922713046
3.831158922713046
3.8496223392080475
3.8927036443630603
3.9542483660130467
4.028102031993082
4.052719920653064
3.9173215330230438
3.905012588693053
3.837313394878028
3.800386561888025
3.800386561888025
3.825004450548036
3.800386561888025
3.8803947000330408
3.9850207268380675
4.015793087663061
4.034256504158063
4.052719920653064
4.114264642303079
4.1327280587980795
4.089646753643067
4.101955697973087
4.181963836118102
4.27428091859311
4.2865898629231
4.280435390758093
4.2865898629231
4.341980112408105
4.360443528903107
4.40967930622313
4.40967930622313
4.421988250553122
4.495841916533129
4.483532972203136
4.428142722718132
4.40352483405812
4.360443528903107
4.391215889728128
4.440451667048122
4.415833778388112
4.428142722718132
4.397370361893111
4.335825640243124
4.298898807253093
4.2681264464281
4.249663029933098
4.225045141273086
4.231199613438097
4.1942727804480935
4.163500419623101
4.12657358663307
4.101955697973087
4.101955697973087
4.095801225808079
4.0711833371480655
4.040410976323072
4.021947559828071
4.003484143333068
3.9788662546730578
3.948093893848065
3.9419394216830552
3.9419394216830552
3.9419394216830552
3.948093893848065
3.948093893848065
3.9542483660130467
3.9542483660130467
3.9542483660130467
3.9604028381780574
3.9727117825080467
3.9665573103430645
3.9604028381780574
3.9604028381780574
3.9665573103430645
3.9665573103430645
3.9727117825080467
3.9788662546730578
3.9788662546730578
3.9727117825080467
3.9542483660130467
3.9604028381780574
3.948093893848065
3.9419394216830552
3.9357849495180455
3.9419394216830552
3.9419394216830552
3.9419394216830552
3.948093893848065
3.9419394216830552
3.9296304773530633
3.9296304773530633
3.9296304773530633
3.9296304773530633
3.9357849495180455
3.9357849495180455
3.9419394216830552
3.9542483660130467
3.9604028381780574
3.9604028381780574
3.9604028381780574
3.9604028381780574
3.9665573103430645
3.9604028381780574
3.9727117825080467
3.9788662546730578
3.9788662546730578
3.9727117825080467
3.9850207268380675
3.9850207268380675
3.9788662546730578
3.9727117825080467
3.9727117825080467
3.9665573103430645
3.9727117825080467
3.9604028381780574
3.9665573103430645
3.9604028381780574
3.9665573103430645
3.9665573103430645
3.9542483660130467
3.9542483660130467
3.948093893848065
3.9419394216830552
3.948093893848065
3.9542483660130467
3.9665573103430645
3.9604028381780574
3.9419394216830552
3.874240227868059
3.9542483660130467
3.9419394216830552
3.9296304773530633
3.9234760051880535
3.9111670608580615
3.9111670608580615
3.905012588693053
3.8927036443630603
3.8927036443630603
3.8803947000330408
3.8803947000330408
3.8680857557030492
3.8680857557030492
3.874240227868059
3.8619312835380395
3.8619312835380395
3.855776811373057
3.8496223392080475
3.8619312835380395
3.8680857557030492
3.8680857557030492
3.874240227868059
3.8680857557030492
3.8803947000330408
3.8803947000330408
3.8680857557030492
3.8803947000330408
3.8803947000330408
3.874240227868059
3.8496223392080475
3.837313394878028
3.8496223392080475
3.855776811373057
3.855776811373057
3.843467867043037
3.843467867043037
3.8496223392080475
3.837313394878028
3.8188499783830263
3.8065410340530352
3.8065410340530352
3.8126955062180454
3.8126955062180454
3.8126955062180454
3.8188499783830263
3.8188499783830263
3.831158922713046
3.837313394878028
3.8619312835380395
3.905012588693053
3.9173215330230438
3.9357849495180455
3.9542483660130467
3.9850207268380675
3.9911751990030497
4.009638615498079
4.040410976323072
4.083492281478085
4.188118308283084
4.803565524783171
5.295923297983257
5.492866407263264
5.622110322728302
5.640573739223304
5.628264794893284
5.628264794893284
5.609801378398282
5.6036469062333
5.597492434068291
5.591337961903281
5.572874545408279
5.566720073243298
5.542102184583286
5.529793240253267
5.517484295923275
5.499020879428274
5.486711935098282
5.474402990768261
5.455939574273261
5.437476157778259
5.425167213448267
5.412858269118276
5.388240380458265
5.363622491798253
5.351313547468262
5.351313547468262
5.363622491798253
5.419012741283257
5.492866407263264
5.560565601078289
5.566720073243298
5.449785102108279
5.302077770148239
5.19745174334324
5.160524910353237
5.129752549528216
5.135907021693225
5.148215966023217
5.142061493858235
5.123598077363234
5.111289133033214
5.098980188703223
5.092825716538213
5.068207827878203
5.062053355713221
5.0497444113832
5.037435467053208
5.025126522723218
5.012817578393197
5.000508634063205
4.975890745403193
4.963581801073202
4.963581801073202
4.957427328908192
4.93896391241319
4.9266549680832
4.92050049591819
4.902037079423188
4.895882607258178
4.883573662928187
4.8528013021031935
4.772793163958178
4.8651102464331855
4.858955774268176
4.8528013021031935
4.840492357773174
4.809719996948181
4.7912565804531795
4.778947636123188
4.778947636123188
4.772793163958178
4.760484219628157
4.760484219628157
4.748175275298167
4.735866330968175
4.7297118588031655
4.7297118588031655
4.711248442308165
4.705093970143154
4.692785025813162
4.686630553648152
4.668167137153151
4.662012664988168
4.655858192823159
4.6435492484931675
4.6435492484931675
4.631240304163148
4.625085831998166
4.618931359833156
4.6004679433381535
4.6004679433381535
4.5943134711731455
4.6004679433381535
4.588158999008135
4.5820045268431535
4.5820045268431535
4.569695582513134
4.569695582513134
4.557386638183142
4.563541110348153
4.569695582513134
4.557386638183142
4.569695582513134
4.563541110348153
4.557386638183142
4.54507769385315
4.5327687495231315
4.52661427735815
4.52661427735815
4.514305333028129
4.501996388698137
4.501996388698137
4.489687444368147
4.483532972203136
4.483532972203136
4.471224027873144
4.465069555708134
4.458915083543125
4.452760611378115
4.440451667048122
4.440451667048122
4.428142722718132
4.421988250553122
4.421988250553122
4.421988250553122
4.421988250553122
4.40967930622313
4.40352483405812
4.391215889728128
4.3727524732331275
4.37890694539811
4.385061417563119
4.366598001068117
4.366598001068117
4.360443528903107
4.366598001068117
4.366598001068117
4.2865898629231
4.2681264464281
4.354289056738125
4.366598001068117
4.366598001068117
4.360443528903107
4.354289056738125
4.341980112408105
4.3173622237481215
4.3112077515831135
4.3173622237481215
4.3173622237481215
4.3173622237481215
4.323516695913104
4.3173622237481215
4.3112077515831135
4.3112077515831135
4.305053279418103
4.305053279418103
4.298898807253093
4.292744335088111
4.292744335088111
4.292744335088111
4.292744335088111
4.2865898629231
4.2865898629231
4.2865898629231
4.280435390758093
4.2681264464281
4.2681264464281
4.2681264464281
4.2681264464281
4.255817502098108
4.261971974263091
4.261971974263091
4.249663029933098
4.255817502098108
4.255817502098108
4.255817502098108
4.243508557768089
4.243508557768089
4.243508557768089
4.237354085603107
4.237354085603107
4.237354085603107
4.212736196943095
4.151191475293081
4.218890669108104
4.225045141273086
4.225045141273086
4.225045141273086
4.212736196943095
4.212736196943095
4.212736196943095
4.218890669108104
4.225045141273086
4.218890669108104
4.212736196943095
4.218890669108104
4.2065817247780855
4.2065817247780855
4.212736196943095
4.2065817247780855
4.1942727804480935
4.212736196943095
4.218890669108104
4.218890669108104
4.225045141273086
4.225045141273086
4.212736196943095
4.2065817247780855
4.200427252613103
4.2065817247780855
4.200427252613103
4.200427252613103
4.2065817247780855
4.200427252613103
4.1942727804480935
4.188118308283084
4.1942727804480935
4.1942727804480935
4.1942727804480935
4.188118308283084
4.188118308283084
4.188118308283084
4.181963836118102
4.200427252613103
4.188118308283084
4.1758093639530935
4.169654891788083
4.1758093639530935
4.163500419623101
4.163500419623101
4.163500419623101
4.163500419623101
4.169654891788083
4.1758093639530935
4.1758093639530935
4.169654891788083
4.157345947458091
4.145037003128072
4.145037003128072
4.151191475293081
4.169654891788083
4.218890669108104
4.298898807253093
4.385061417563119
4.434297194883113
4.3727524732331275
4.249663029933098
4.145037003128072
4.101955697973087
4.077337809313075
4.089646753643067
4.108110170138069
4.120419114468088
4.1327280587980795
4.1327280587980795
4.1327280587980795
4.138882530963089
4.1327280587980795
4.138882530963089
4.138882530963089
4.138882530963089
4.145037003128072
4.138882530963089
4.1327280587980795
4.138882530963089
4.145037003128072
4.151191475293081
4.151191475293081
4.151191475293081
4.151191475293081
4.138882530963089
4.145037003128072
4.145037003128072
4.145037003128072
4.145037003128072
4.145037003128072
4.145037003128072
4.151191475293081
4.151191475293081
4.151191475293081
4.151191475293081
4.151191475293081
4.157345947458091
4.151191475293081
4.151191475293081
4.157345947458091
4.145037003128072
4.151191475293081
4.151191475293081
4.157345947458091
4.157345947458091
4.145037003128072
4.145037003128072
4.145037003128072
4.138882530963089
4.138882530963089
4.151191475293081
4.145037003128072
4.151191475293081
4.145037003128072
4.145037003128072
4.151191475293081
4.138882530963089
4.145037003128072
4.1327280587980795
4.0711833371480655
4.157345947458091
4.163500419623101
4.157345947458091
4.157345947458091
4.145037003128072
4.151191475293081
4.157345947458091
4.151191475293081
4.163500419623101
4.169654891788083
4.163500419623101
4.169654891788083
4.163500419623101
4.163500419623101
4.157345947458091
4.157345947458091
4.157345947458091
4.157345947458091
4.145037003128072
4.138882530963089
4.145037003128072
4.138882530963089
4.145037003128072
4.138882530963089
4.138882530963089
4.138882530963089
4.138882530963089
4.1327280587980795
4.1327280587980795
4.1327280587980795
4.1327280587980795
4.138882530963089
4.138882530963089
4.1327280587980795
4.1327280587980795
4.138882530963089
4.1327280587980795
4.138882530963089
4.1327280587980795
4.138882530963089
4.138882530963089
4.138882530963089
4.1327280587980795
4.1327280587980795
4.1327280587980795
4.138882530963089
4.1327280587980795
4.12657358663307
4.1327280587980795
4.12657358663307
4.1327280587980795
4.120419114468088
4.12657358663307
4.1327280587980795
4.12657358663307
4.1327280587980795
4.12657358663307
4.1327280587980795
4.1327280587980795
4.12657358663307
4.120419114468088
4.120419114468088
4.120419114468088
4.12657358663307
4.12657358663307
4.12657358663307
4.12657358663307
4.12657358663307
4.12657358663307
4.120419114468088
4.120419114468088
4.120419114468088
4.120419114468088
4.12657358663307
4.12657358663307
4.114264642303079
4.12657358663307
4.120419114468088
4.114264642303079
4.114264642303079
4.120419114468088
4.120419114468088
4.120419114468088
4.120419114468088
4.120419114468088
4.114264642303079
4.12657358663307
4.120419114468088
4.120419114468088
4.114264642303079
4.114264642303079
4.114264642303079
4.114264642303079
4.108110170138069
4.114264642303079
4.108110170138069
4.114264642303079
4.108110170138069
4.095801225808079
4.101955697973087
4.108110170138069
4.108110170138069
4.108110170138069
4.101955697973087
4.114264642303079
4.114264642303079
4.114264642303079
4.120419114468088
4.12657358663307
4.120419114468088
4.108110170138069
4.108110170138069
4.114264642303079
4.101955697973087
4.101955697973087
4.108110170138069
4.108110170138069
4.095801225808079
4.095801225808079
4.095801225808079
4.083492281478085
4.003484143333068
4.0711833371480655
4.083492281478085
4.083492281478085
4.089646753643067
4.095801225808079
4.089646753643067
4.083492281478085
4.083492281478085
4.077337809313075
4.077337809313075
4.083492281478085
4.089646753643067
4.089646753643067
4.083492281478085
4.083492281478085
4.077337809313075
4.077337809313075
4.065028864983084
4.0711833371480655
4.089646753643067
4.108110170138069
4.163500419623101
4.231199613438097
4.2681264464281
4.280435390758093
4.3173622237481215
4.181963836118102
4.077337809313075
4.034256504158063
4.021947559828071
4.028102031993082
4.028102031993082
4.040410976323072
4.052719920653064
4.058874392818074
4.065028864983084
4.065028864983084
4.065028864983084
4.0711833371480655
4.058874392818074
4.065028864983084
4.065028864983084
4.0711833371480655
4.058874392818074
4.028102031993082
3.8188499783830263
3.4988174258029914
3.3141832608529764
3.2034027618829395
3.1233946237379517
3.043386485592936
2.975687291777912
2.932605986622927
2.8895246814679143
2.8402889041478923
2.8033620711578893
2.7910531268278973
2.772589710332896
2.735662877342893
2.723353933012873
2.711044988682881
2.6987360443528896
2.674118155692878
2.6618092113628857
2.655654739197877
2.6433457948678853
2.6433457948678853
2.624882378372884
2.600264489712873
2.587955545382853
2.5694921288878514
2.538719768062857
2.5325652958978484
2.526410823732866
2.501792935072855
2.483329518577854
2.4525571577528327
2.4402482134228407
2.4156303247628297
2.4156303247628297
2.409475852597848
2.3971669082678284
2.3848579639378364
2.360240075277825
2.3540856031128428
2.3663945474428347
2.360240075277825
2.360240075277825
2.360240075277825
2.360240075277825
2.372549019607845
2.378703491772827
2.3848579639378364
2.403321380432838
2.409475852597848
2.4156303247628297
2.4402482134228407
2.434093741257831
2.4156303247628297
2.403321380432838
2.3971669082678284
2.3971669082678284
2.3848579639378364
2.378703491772827
2.372549019607845
2.372549019607845
2.372549019607845
2.372549019607845
2.3848579639378364
2.391012436102846
2.403321380432838
2.4217847969278394
2.4402482134228407
2.4402482134228407
2.434093741257831
2.4587116299178424
2.477175046412844
2.471020574247862
2.471020574247862
2.477175046412844
2.4587116299178424
2.3971669082678284
2.5141018794028467
2.563337656722869
2.581801073217871
2.5941100175478624
2.600264489712873
2.624882378372884
2.631036850537866
2.618727906207874
2.6064189618778553
2.5941100175478624
2.600264489712873
2.6064189618778553
2.612573434042864
2.612573434042864
2.612573434042864
2.618727906207874
2.618727906207874
2.618727906207874
2.631036850537866
2.624882378372884
2.6371913227028756
2.649500267032867
2.6433457948678853
2.6433457948678853
2.6433457948678853
2.655654739197877
2.649500267032867
2.6433457948678853
2.631036850537866
2.631036850537866
2.618727906207874
2.6064189618778553
2.612573434042864
2.6064189618778553
2.6064189618778553
2.6064189618778553
2.612573434042864
2.624882378372884
2.624882378372884
2.631036850537866
2.6433457948678853
2.649500267032867
2.649500267032867
2.6618092113628857
2.680272627857888
2.68642710002287
2.68642710002287
2.6925815721878803
2.6987360443528896
2.68642710002287
2.6925815721878803
2.6925815721878803
2.6987360443528896
2.711044988682881
2.723353933012873
2.723353933012873
2.729508405177883
2.735662877342893
2.729508405177883
2.7418173495078744
2.7418173495078744
2.7418173495078744
2.747971821672884
2.772589710332896
2.766435238167886
2.772589710332896
2.778744182497905
2.797207598992907
2.8033620711578893
2.8033620711578893
2.821825487652891
2.834134431982911
2.8649067928079033
2.883370209302905
2.907988097962916
2.9264515144579173
2.944914930952919
2.96953281961293
3.0003051804379233
3.0126141247679152
3.0249230690979347
3.043386485592936
3.049540957757918
3.0618499020879373
3.080313318582939
3.1110856794079322
3.1295490959029335
3.1295490959029335
3.154166984562945
3.178784873222956
3.2034027618829395
3.221866178377941
3.2280206505429514
3.234175122707961
3.264947483532954
3.277256427862973
3.308028788687967
3.3203377330179586
3.332646677347978
3.357264566007961
3.381882454667973
3.406500343327984
3.4311182319879947
3.4557361206479786
3.486508481473
3.5234353144630024
3.5542076752879965
3.6219068691030203
3.671142646423015
3.7449963124030208
3.837313394878028
3.9604028381780574
4.089646753643067
4.145037003128072
4.114264642303079
3.9911751990030497
3.8988581165280416
3.8803947000330408
3.874240227868059
3.905012588693053
3.9111670608580615
3.855776811373057
3.9727117825080467
3.9850207268380675
3.9911751990030497
4.003484143333068
4.028102031993082
4.034256504158063
4.034256504158063
3.9973296711680604
4.015793087663061
4.0465654484880815
4.058874392818074
4.083492281478085
4.077337809313075
4.052719920653064
4.052719920653064
4.058874392818074
4.0711833371480655
4.065028864983084
4.034256504158063
4.009638615498079
4.003484143333068
4.009638615498079
4.003484143333068
3.9911751990030497
3.9911751990030497
3.9727117825080467
3.9604028381780574
3.948093893848065
3.9419394216830552
3.9234760051880535
3.905012588693053
3.8803947000330408
3.8803947000330408
3.8619312835380395
3.843467867043037
3.8188499783830263
3.800386561888025
3.781923145393024
3.7449963124030208
3.738841840238039
3.732687368073029
3.720378423743037
3.6896060629180156
3.677297118588024
3.658833702093023
3.6465247577630033
3.61575239693801
3.61575239693801
3.61575239693801
3.6219068691030203
3.609597924773
3.5972889804430093
3.5972889804430093
3.5849800361130173
3.578825563948007
3.578825563948007
3.578825563948007
3.5665166196180156
3.529589786627985
3.5172808422979926
3.511126370132983
3.5172808422979926
3.4926629536379816
3.504971897968001
3.504971897968001
3.504971897968001
3.4926629536379816
3.4926629536379816
3.4926629536379816
3.4926629536379816
3.4741995371429804
3.468045064977998
3.4618905928129893
3.4618905928129893
3.4557361206479786
3.449581648482997
3.449581648482997
3.4434271763179867
3.4434271763179867
3.449581648482997
3.468045064977998
3.486508481473
3.4926629536379816
3.5234353144630024
3.5665166196180156
3.5849800361130173
3.6219068691030203
3.6280613412680016
3.652679229928013
3.671142646423015
3.695760535083026
3.7142239515780275
3.7265328959080186
3.677297118588024
3.578825563948007
3.658833702093023
3.6896060629180156
3.701915007248036
3.7265328959080186
3.738841840238039
3.75730525673304
3.763459728898022
3.75730525673304
3.7696142010630322
3.7757686732280415
3.800386561888025
3.855776811373057
3.8927036443630603
3.9173215330230438
3.9173215330230438
3.9604028381780574
3.9973296711680604
4.034256504158063
4.058874392818074
4.0711833371480655
4.0711833371480655
4.089646753643067
4.138882530963089
4.181963836118102
4.2065817247780855
4.237354085603107
4.255817502098108
4.3112077515831135
4.360443528903107
4.397370361893111
4.428142722718132
4.452760611378115
4.465069555708134
4.495841916533129
4.5327687495231315
4.588158999008135
4.637394776328158
4.686630553648152
4.7297118588031655
4.766638691793168
4.7912565804531795
4.797411052618189
4.834337885608192
4.858955774268176
4.902037079423188
4.932809440248209
4.957427328908192
4.9881996897332135
5.012817578393197
5.018972050558207
5.0497444113832
5.0497444113832
5.062053355713221
5.068207827878203
5.043589939218219
5.012817578393197
4.91434602375318
5.0497444113832
5.086671244373231
5.0743623000432105
5.0312809948882
4.9881996897332135
4.975890745403193
4.9881996897332135
5.000508634063205
4.975890745403193
4.951272856743211
4.93896391241319
4.932809440248209
4.92050049591819
4.957427328908192
4.994354161898196
5.05589888354821
5.142061493858235
5.2220696320032225
5.357468019633243
5.566720073243298
5.83751684850331
6.317565677373432
6.865313700058523
7.117647058823563
7.136110475318563
7.129956003153555
7.105338114493542
7.080720225833531
7.056102337173549
7.025329976348528
7.000712087688543
6.969939726863522
6.939167366038529
6.896086060883515
6.865313700058523
6.846850283563521
6.840695811398511
6.865313700058523
6.908395005213508
6.9576307825335295
6.969939726863522
6.877622644388515
6.7114518959335
6.576053508303481
6.496045370158464
6.446809592838443
6.42834617634344
6.42834617634344
6.41603723201345
6.391419343353438
6.360646982528445
6.336029093868436
6.305256733043441
6.280638844383374
6.249866483558383
6.231403067063379
6.200630706238385
6.169858345413365
6.151394928918363
6.114468095928361
6.09600467943336
6.065232318608365
6.034459957783346
6.015996541288343
5.997533124793343
5.966760763968348
5.954451819638329
5.917524986648326
5.899061570153325
5.8805981536583225
5.8559802649983395
5.825207904173318
5.806744487678317
5.782126599018308
5.757508710358322
5.73904529386332
5.714427405203311
5.6898095165432965
5.6713461000482965
5.646728211388286
5.634419267058294
5.609801378398282
5.585183489738299
5.560565601078289
5.554411128913278
5.529793240253267
5.511329823758264
5.492866407263264
5.480557462933272
5.462094046438272
5.425167213448267
5.345159075303252
5.4005493247882566
5.4005493247882566
5.375931436128245
5.357468019633243
5.3390046031382425
5.33285013097326
5.302077770148239
5.265150937158236
5.258996464993254
5.252841992828244
5.2405330484982535
5.234378576333243
5.2220696320032225
5.203606215508222
5.185142799013221
5.178988326848239
5.172833854683229
5.160524910353237
5.148215966023217
5.135907021693225
5.129752549528216
5.111289133033214
5.092825716538213
5.086671244373231
5.068207827878203
5.0497444113832
5.043589939218219
5.018972050558207
5.006663106228215
4.994354161898196
4.975890745403193
4.957427328908192
4.951272856743211
4.932809440248209
4.9266549680832
4.91434602375318
4.895882607258178
4.883573662928187
4.871264718598195
4.858955774268176
4.846646829938186
4.840492357773174
4.840492357773174
4.822028941278172
4.81587446911319
4.803565524783171
4.797411052618189
4.785102108288171
4.772793163958178
4.772793163958178
4.760484219628157
4.754329747463175
4.748175275298167
4.7297118588031655
4.723557386638154
4.723557386638154
4.711248442308165
4.698939497978172
4.698939497978172
4.692785025813162
4.686630553648152
4.668167137153151
4.662012664988168
4.662012664988168
4.655858192823159
4.655858192823159
4.6435492484931675
4.637394776328158
4.637394776328158
4.625085831998166
4.625085831998166
4.618931359833156
4.606622415503137
4.5943134711731455
4.588158999008135
4.5820045268431535
4.5820045268431535
4.569695582513134
4.563541110348153
4.563541110348153
4.557386638183142
4.54507769385315
4.538923221688139
4.5327687495231315
4.5327687495231315
4.514305333028129
4.520459805193139
4.514305333028129
4.508150860863147
4.495841916533129
4.501996388698137
4.495841916533129
4.489687444368147
4.483532972203136
4.483532972203136
4.471224027873144
4.471224027873144
4.465069555708134
4.452760611378115
4.458915083543125
4.440451667048122
4.434297194883113
4.440451667048122
4.434297194883113
4.434297194883113
4.434297194883113
4.440451667048122
4.440451667048122
4.421988250553122
4.415833778388112
4.40967930622313
4.40967930622313
4.397370361893111
4.397370361893111
4.385061417563119
4.37890694539811
4.366598001068117
4.360443528903107
4.360443528903107
4.360443528903107
4.335825640243124
4.280435390758093
4.348134584573115
4.354289056738125
4.335825640243124
4.323516695913104
4.323516695913104
4.323516695913104
4.329671168078114
4.323516695913104
4.3112077515831135
4.3173622237481215
4.305053279418103
4.305053279418103
4.305053279418103
4.305053279418103
4.298898807253093
4.305053279418103
4.292744335088111
4.280435390758093
4.27428091859311
4.2865898629231
4.3112077515831135
4.360443528903107
4.428142722718132
4.501996388698137
4.54507769385315
4.483532972203136
4.348134584573115
4.249663029933098
4.188118308283084
3.9604028381780574
3.61575239693801
3.4434271763179867
3.3388011495129604
3.258793011367972
3.191093817552948
3.1480125123979352
3.092622262912931
3.049540957757918
3.018768596932925
2.981841763942921
2.9510694031179288
2.8895246814679143
2.8033620711578893
2.901833625797906
2.895679153632896
2.8895246814679143
2.871061264972913
2.834134431982911
2.8095165433228986
2.7848986546628876
2.754126293837894
2.747971821672884
2.723353933012873
2.68642710002287
2.6618092113628857
2.631036850537866
2.600264489712873
2.5694921288878514
2.538719768062857
2.5141018794028467
2.495638462907845
2.471020574247862
2.446402685587851
2.4217847969278394
2.391012436102846
2.3663945474428347
2.347931130947833
2.329467714452832
2.3171587701228398
2.2925408814628288
2.2740774649678275
2.255614048472826
2.2433051041428067
2.2309961598128147
2.224841687647805
2.2309961598128147
2.224841687647805
2.212532743317813
2.2186872154828228
2.212532743317813
2.212532743317813
2.2063782711528033
2.212532743317813
2.212532743317813
2.2063782711528033
2.212532743317813
2.224841687647805
2.2309961598128147
2.2371506319778245
2.2433051041428067
2.255614048472826
2.2679229928028177
2.2740774649678275
2.2802319371328093
2.2925408814628288
2.3110042979578305
2.3171587701228398
2.335622186617841
2.3417766587828237
2.3540856031128428
2.3540856031128428
2.3663945474428347
2.372549019607845
2.372549019607845
2.372549019607845
2.372549019607845
2.3848579639378364
2.3848579639378364
2.378703491772827
2.378703491772827
2.3663945474428347
2.3417766587828237
2.335622186617841
2.329467714452832
2.3171587701228398
2.3171587701228398
2.3110042979578305
2.298695353627811
2.2925408814628288
2.2925408814628288
2.255614048472826
2.175605910327811
2.261768520637808
2.261768520637808
2.249459576307816
2.2309961598128147
2.2309961598128147
2.2063782711528033
2.1694514381628007
2.175605910327811
2.1817603824928202
2.1817603824928202
2.175605910327811
2.1571424938328088
2.1571424938328088
2.150988021667799
2.150988021667799
2.1694514381628007
2.1694514381628007
2.175605910327811
2.175605910327811
2.187914854657802
2.194069326822812
2.194069326822812
2.187914854657802
2.194069326822812
2.2063782711528033
2.2063782711528033
2.212532743317813
2.2186872154828228
2.2186872154828228
2.212532743317813
2.224841687647805
2.2309961598128147
2.2433051041428067
2.255614048472826
2.2679229928028177
2.2802319371328093
2.2925408814628288
2.304849825792821
2.329467714452832
2.3417766587828237
2.360240075277825
2.3663945474428347
2.3971669082678284
2.4217847969278394
2.434093741257831
2.446402685587851
2.471020574247862
2.4894839907428636
2.5141018794028467
2.5325652958978484
2.55102871239285
2.55102871239285
2.563337656722869
2.575646601052861
2.587955545382853
2.600264489712873
2.618727906207874
2.6371913227028756
2.6371913227028756
2.649500267032867
2.649500267032867
2.655654739197877
2.655654739197877
2.680272627857888
2.704890516517872
2.711044988682881
2.735662877342893
2.729508405177883
2.729508405177883
2.735662877342893
2.747971821672884
2.760280766002876
2.766435238167886
2.778744182497905
2.7848986546628876
2.797207598992907
2.7910531268278973
2.8033620711578893
2.815671015487909
2.815671015487909
2.821825487652891
2.834134431982911
2.8464433763129016
2.8464433763129016
2.8525978484779113
2.871061264972913
2.877215737137895
2.877215737137895
2.883370209302905
2.895679153632896
2.901833625797906
2.907988097962916
2.907988097962916
2.9264515144579173
2.9387604587879093
2.9572238752829105
2.9572238752829105
2.9633783474479203
2.975687291777912
2.981841763942921
2.994150708272913
3.043386485592936
3.1233946237379517
3.2095572340479492
3.2957198443579747
3.3141832608529764
3.2280206505429514
3.0987767350779407
3.0310775412629165
3.018768596932925
3.037232013427927
3.0680043742529195
3.0864677907479487
3.1049312072429505
3.1049312072429505
3.092622262912931
3.080313318582939
3.074158846417929
3.080313318582939
3.092622262912931
3.0618499020879373
2.9879962361079313
3.0618499020879373
3.055695429922928
3.018768596932925
3.0126141247679152
3.0003051804379233
3.0003051804379233
2.9879962361079313
2.9879962361079313
2.981841763942921
2.96953281961293
2.975687291777912
2.981841763942921
2.96953281961293
2.9633783474479203
2.96953281961293
2.96953281961293
2.96953281961293
2.9633783474479203
2.9572238752829105
2.975687291777912
2.981841763942921
2.9879962361079313
2.9879962361079313
2.9879962361079313
2.9879962361079313
2.9879962361079313
3.006459652602933
3.018768596932925
3.018768596932925
3.006459652602933
3.018768596932925
3.018768596932925
3.018768596932925
3.074158846417929
3.154166984562945
3.215711706212959
3.234175122707961
3.3203377330179586
3.3511100938429803
3.3880369268329824
3.406500343327984
3.449581648482997
3.5172808422979926
3.529589786627985
3.5172808422979926
3.738841840238039
3.732687368073029
3.671142646423015
3.640370285598021
3.6280613412680016
3.634215813433012
3.609597924773
3.5665166196180156
3.5357442587929944
3.504971897968001
3.4741995371429804
3.437272704152977
3.418809287657976
3.400345871162973
3.394191398997992
3.375727982502963
3.357264566007961
3.3449556216779697
3.3388011495129604
3.3203377330179586
3.308028788687967
3.2957198443579747
3.283410900027955
3.283410900027955
3.289565372192965
3.289565372192965
3.271101955697964
3.264947483532954
3.271101955697964
3.277256427862973
3.289565372192965
3.289565372192965
3.271101955697964
3.271101955697964
3.277256427862973
3.283410900027955
3.2957198443579747
3.289565372192965
3.2957198443579747
3.308028788687967
3.308028788687967
3.3141832608529764
3.3141832608529764
3.3203377330179586
3.332646677347978
3.332646677347978
3.3388011495129604
3.3511100938429803
3.357264566007961
3.3695735103379807
3.381882454667973
3.3880369268329824
3.400345871162973
3.412654815492993
3.424963759822985
3.394191398997992
3.3695735103379807
3.3511100938429803
3.3264922051829684
3.3141832608529764
3.308028788687967
3.2957198443579747
3.289565372192965
3.283410900027955
3.2957198443579747
3.2957198443579747
3.264947483532954
3.1726304010579467
3.283410900027955
3.2957198443579747
3.2957198443579747
3.2957198443579747
3.301874316522957
3.3203377330179586
3.3264922051829684
3.308028788687967
3.271101955697964
3.394191398997992
3.424963759822985
3.4434271763179867
3.4557361206479786
3.4741995371429804
3.486508481473
3.4988174258029914
3.511126370132983
3.541898730958004
3.548053203123014
3.5542076752879965
3.548053203123014
3.560362147453006
3.560362147453006
3.560362147453006
3.578825563948007
3.578825563948007
3.5849800361130173
3.5972889804430093
3.5972889804430093
3.609597924773
3.61575239693801
3.634215813433012
3.640370285598021
3.6465247577630033
3.6465247577630033
3.652679229928013
3.658833702093023
3.658833702093023
3.6649881742580046
3.6834515907530063
3.6834515907530063
3.701915007248036
3.7142239515780275
3.720378423743037
3.7449963124030208
3.7449963124030208
3.75730525673304
3.763459728898022
3.75730525673304
3.75730525673304
3.75730525673304
3.75730525673304
3.763459728898022
3.75115078456803
3.75730525673304
3.7696142010630322
3.781923145393024
3.781923145393024
3.781923145393024
3.788077617558033
3.8065410340530352
3.8065410340530352
3.837313394878028
3.8619312835380395
3.8803947000330408
3.8988581165280416
3.9296304773530633
3.9665573103430645
4.034256504158063
4.120419114468088
4.225045141273086
4.292744335088111
4.292744335088111
4.1758093639530935
4.077337809313075
4.0465654484880815
4.0465654484880815
4.083492281478085
4.145037003128072
4.1942727804480935
4.231199613438097
4.243508557768089
4.249663029933098
4.255817502098108
4.255817502098108
4.243508557768089
4.249663029933098
4.255817502098108
4.249663029933098
4.237354085603107
4.237354085603107
4.237354085603107
4.255817502098108
4.243508557768089
4.261971974263091
4.261971974263091
4.243508557768089
4.249663029933098
4.2681264464281
4.280435390758093
4.292744335088111
4.323516695913104
4.354289056738125
4.3727524732331275
4.391215889728128
4.385061417563119
4.397370361893111
4.421988250553122
4.421988250553122
4.440451667048122
4.458915083543125
4.471224027873144
4.489687444368147
4.501996388698137
4.501996388698137
4.508150860863147
4.501996388698137
4.489687444368147
4.495841916533129
4.495841916533129
4.501996388698137
4.520459805193139
4.538923221688139
4.54507769385315
4.538923221688139
4.538923221688139
4.54507769385315
4.538923221688139
4.5327687495231315
4.514305333028129
4.477378500038126
4.618931359833156
4.631240304163148
4.649703720658149
4.698939497978172
4.723557386638154
4.7297118588031655
4.754329747463175
4.7912565804531795
4.828183413443182
4.8528013021031935
4.91434602375318
4.963581801073202
4.994354161898196
5.018972050558207
5.117443605198224
5.203606215508222
5.203606215508222
5.203606215508222
5.2405330484982535
5.252841992828244
5.258996464993254
5.265150937158236
5.258996464993254
5.246687520663237
5.246687520663237
5.209760687673231
5.185142799013221
5.19129727117823
5.19745174334324
5.203606215508222
5.21591515983824
5.2220696320032225
5.2405330484982535
5.258996464993254
5.295923297983257
5.31438671447826
5.326695658808251
5.363622491798253
5.419012741283257
5.474402990768261
5.511329823758264
5.560565601078289
5.622110322728302
5.702118460873318
5.73904529386332
5.751354238193313
5.788281071183316
5.886752625823332
5.966760763968348
6.052923374278346
6.139085984588371
6.200630706238385
6.292947788713393
6.440655120673461
6.520663258818478
6.551435619643471
6.631443757788486
6.779151089748497
6.988403143358525
7.173037308308565
7.209964141298569
7.234582029958553
7.388443834083573
7.788484524808653
7.98542763408866
8.250069937183719
8.53317565677375
8.619338267083748
8.594720378423766
8.570102489763753
8.53317565677375
8.502403295948756
8.453167518628735
8.416240685638732
8.367004908318737
8.330078075328707
8.274687825843701
8.2377609928537
8.182370743368693
8.133134966048699
8.090053660893687
8.040817883573691
7.99158210625367
7.948500801098657
7.905419495943672
7.856183718623649
7.813102413468637
7.757712163983632
7.7146308588286185
7.671549553673635
7.622313776353613
7.579232471198627
7.536151166043615
7.4930698608886015
7.456143027898598
7.400752778413594
7.3576714732585815
7.320744640268578
7.296126751608567
7.259199918618564
7.22842755779357
7.191500724803569
7.142264947483545
7.099183642328533
7.06841128150354
7.025329976348528
6.988403143358525
6.939167366038529
6.902240533048526
6.865313700058523
6.82838686706852
6.779151089748497
6.748378728923504
6.717606368098483
6.6868340072734895
6.649907174283487
6.619134813458466
6.582207980468463
6.54528114747846
6.502199842323475
6.459118537168461
6.372955926858436
6.422191704178459
6.397573815518448
6.366801454693455
6.342183566033444
6.299102260878375
6.249866483558383
6.2252485948983685
6.200630706238385
6.176012817578375
6.151394928918363
6.126777040258352
6.089850207268349
6.065232318608365
6.059077846443356
6.059077846443356
6.102159151598369
6.151394928918363
6.200630706238385
6.169858345413365
6.046768902113364
5.899061570153325
5.812898959843329
5.757508710358322
5.720581877368319
5.720581877368319
5.726736349533301
5.726736349533301
5.7082729330383
5.6898095165432965
5.6713461000482965
5.646728211388286
5.634419267058294
5.609801378398282
5.591337961903281
5.572874545408279
5.554411128913278
5.535947712418277
5.523638768088285
5.505175351593283
5.486711935098282
5.462094046438272
5.449785102108279
5.425167213448267
5.412858269118276
5.388240380458265
5.382085908293255
5.369776963963263
5.351313547468262
5.326695658808251
5.308232242313249
5.302077770148239
5.277459881488257
5.258996464993254
5.252841992828244
5.2405330484982535
5.2220696320032225
5.21591515983824
5.19745174334324
5.178988326848239
5.154370438188227
5.05589888354821
5.135907021693225
5.142061493858235
5.037435467053208
4.67432160931816
4.354289056738125
4.188118308283084
4.065028864983084
3.9788662546730578
3.9234760051880535
3.8927036443630603
3.855776811373057
3.8126955062180454
3.763459728898022
3.7449963124030208
3.701915007248036
3.634215813433012
3.5972889804430093
3.560362147453006
3.5357442587929944
3.4988174258029914
3.4741995371429804
3.4557361206479786
3.437272704152977
3.4311182319879947
3.418809287657976
3.406500343327984
3.412654815492993
3.424963759822985
3.418809287657976
3.418809287657976
3.418809287657976
3.4311182319879947
3.4557361206479786
3.4557361206479786
3.4741995371429804
3.4926629536379816
3.511126370132983
3.529589786627985
3.541898730958004
3.5542076752879965
3.572671091782997
3.578825563948007
3.5849800361130173
3.591134508277999
3.5972889804430093
3.609597924773
3.61575239693801
3.6219068691030203
3.6280613412680016
3.6280613412680016
3.591134508277999
3.5542076752879965
3.5357442587929944
3.5172808422979926
3.4988174258029914
3.4988174258029914
3.486508481473
3.486508481473
3.486508481473
3.4618905928129893
3.363419038172971
3.4557361206479786
3.468045064977998
3.4741995371429804
3.4434271763179867
3.424963759822985
3.418809287657976
3.400345871162973
3.418809287657976
3.412654815492993
3.400345871162973
3.400345871162973
3.406500343327984
3.412654815492993
3.418809287657976
3.4311182319879947
3.424963759822985
3.4311182319879947
3.449581648482997
3.4557361206479786
3.4557361206479786
3.449581648482997
3.468045064977998
3.48035400930799
3.486508481473
3.4926629536379816
3.504971897968001
3.5234353144630024
3.529589786627985
3.548053203123014
3.560362147453006
3.560362147453006
3.5665166196180156
3.5665166196180156
3.5665166196180156
3.572671091782997
3.5849800361130173
3.591134508277999
3.578825563948007
3.572671091782997
3.5542076752879965
3.5234353144630024
3.48035400930799
3.418809287657976
3.3880369268329824
3.332646677347978
3.283410900027955
3.234175122707961
3.184939345387937
3.1357035680679433
3.0864677907479487
3.049540957757918
3.0126141247679152
2.975687291777912
2.9633783474479203
2.932605986622927
2.895679153632896
2.871061264972913
2.858752320642893
2.8525978484779113
2.858752320642893
2.8464433763129016
2.8464433763129016
2.821825487652891
2.821825487652891
2.821825487652891
2.815671015487909
2.8095165433228986
2.8033620711578893
2.7910531268278973
2.778744182497905
2.766435238167886
2.754126293837894
2.766435238167886
2.772589710332896
2.772589710332896
2.778744182497905
2.7910531268278973
2.7910531268278973
2.7910531268278973
2.7848986546628876
2.7910531268278973
2.797207598992907
2.8095165433228986
2.815671015487909
2.834134431982911
2.8279799598179
2.8279799598179
2.834134431982911
2.834134431982911
2.8279799598179
2.797207598992907
2.778744182497905
2.7418173495078744
2.735662877342893
2.735662877342893
2.7418173495078744
2.815671015487909
2.901833625797906
2.9879962361079313
3.0680043742529195
3.055695429922928
2.9633783474479203
2.834134431982911
2.772589710332896
2.766435238167886
2.7848986546628876
2.7848986546628876
2.7910531268278973
2.766435238167886
2.747971821672884
2.735662877342893
2.7171994608478913
2.7171994608478913
2.6987360443528896
2.704890516517872
2.7171994608478913
2.711044988682881
2.704890516517872
2.68642710002287
2.6925815721878803
2.674118155692878
2.5941100175478624
2.6987360443528896
2.711044988682881
2.6987360443528896
2.6925815721878803
2.6618092113628857
2.655654739197877
2.649500267032867
2.6371913227028756
2.631036850537866
2.6433457948678853
2.6371913227028756
2.6371913227028756
2.6371913227028756
2.649500267032867
2.655654739197877
2.655654739197877
2.655654739197877
2.674118155692878
2.674118155692878
2.68642710002287
2.6925815721878803
2.7171994608478913
2.7418173495078744
2.754126293837894
2.754126293837894
2.760280766002876
2.772589710332896
2.778744182497905
2.7910531268278973
2.8095165433228986
2.821825487652891
2.821825487652891
2.834134431982911
2.8402889041478923
2.8464433763129016
2.8464433763129016
2.8525978484779113
2.871061264972913
2.883370209302905
2.895679153632896
2.895679153632896
2.907988097962916
2.9202970422929075
2.932605986622927
2.944914930952919
2.9633783474479203
2.975687291777912
2.9879962361079313
3.0003051804379233
3.018768596932925
3.037232013427927
3.049540957757918
3.0618499020879373
3.074158846417929
3.074158846417929
3.0864677907479487
3.092622262912931
3.1049312072429505
3.117240151572942
3.117240151572942
3.1357035680679433
3.154166984562945
3.1726304010579467
3.191093817552948
3.197248289717957
3.2095572340479492
3.221866178377941
3.2403295948729705
3.271101955697964
3.2957198443579747
3.3203377330179586
3.3511100938429803
3.394191398997992
3.4311182319879947
3.4434271763179867
3.4618905928129893
3.486508481473
3.504971897968001
3.5357442587929944
3.572671091782997
3.609597924773
3.6219068691030203
3.658833702093023
3.677297118588024
3.7080694794130173
3.732687368073029
3.738841840238039
3.738841840238039
3.75730525673304
3.7757686732280415
3.788077617558033
3.8065410340530352
3.8126955062180454
3.800386561888025
3.831158922713046
3.855776811373057
3.874240227868059
3.8927036443630603
3.9419394216830552
3.9665573103430645
3.9788662546730578
3.9973296711680604
4.021947559828071
4.058874392818074
4.089646753643067
4.114264642303079
4.114264642303079
4.151191475293081
4.181963836118102
4.200427252613103
4.200427252613103
4.218890669108104
4.243508557768089
4.2681264464281
4.2865898629231
4.323516695913104
4.366598001068117
4.415833778388112
4.446606139213133
4.471224027873144
4.501996388698137
4.465069555708134
4.557386638183142
4.625085831998166
4.668167137153151
4.698939497978172
4.7420208031331565
4.803565524783171
4.858955774268176
4.883573662928187
4.840492357773174
4.963581801073202
5.043589939218219
5.080516772208221
5.129752549528216
5.178988326848239
5.2220696320032225
5.228224104168233
5.2405330484982535
5.271305409323245
5.295923297983257
5.302077770148239
5.302077770148239
5.308232242313249
5.31438671447826
5.302077770148239
5.31438671447826
5.326695658808251
5.31438671447826
5.302077770148239
5.295923297983257
5.308232242313249
5.33285013097326
5.345159075303252
5.3390046031382425
5.326695658808251
5.308232242313249
5.289768825818246
5.277459881488257
5.271305409323245
5.258996464993254
5.234378576333243
5.2405330484982535
5.246687520663237
5.246687520663237
5.246687520663237
5.228224104168233
5.21591515983824
5.209760687673231
5.203606215508222
5.209760687673231
5.19745174334324
5.19745174334324
5.166679382518219
5.154370438188227
5.166679382518219
5.178988326848239
5.19745174334324
5.271305409323245
5.3390046031382425
5.394394852623274
5.351313547468262
5.203606215508222
5.062053355713221
5.012817578393197
4.969736273238212
4.969736273238212
4.9881996897332135
5.006663106228215
5.006663106228215
5.000508634063205
4.975890745403193
4.957427328908192
4.951272856743211
4.951272856743211
4.945118384578201
4.932809440248209
4.92050049591819
4.91434602375318
4.908191551588198
4.895882607258178
4.902037079423188
4.91434602375318
4.895882607258178
4.902037079423188
4.889728135093197
4.8651102464331855
4.8528013021031935
4.828183413443182
4.834337885608192
4.828183413443182
4.828183413443182
4.834337885608192
4.871264718598195
4.889728135093197
4.902037079423188
4.902037079423188
4.9266549680832
4.957427328908192
5.000508634063205
5.0312809948882
5.0743623000432105
5.135907021693225
5.160524910353237
5.160524910353237
5.19129727117823
5.21591515983824
5.234378576333243
5.246687520663237
5.258996464993254
5.265150937158236
5.271305409323245
5.289768825818246
5.289768825818246
5.289768825818246
5.289768825818246
5.295923297983257
5.295923297983257
5.295923297983257
5.295923297983257
5.295923297983257
5.31438671447826
5.31438671447826
5.258996464993254
5.351313547468262
5.382085908293255
5.382085908293255
5.369776963963263
5.3390046031382425
5.345159075303252
5.357468019633243
5.357468019633243
5.375931436128245
5.394394852623274
5.394394852623274
5.388240380458265
5.394394852623274
5.382085908293255
5.406703796953265
5.455939574273261
5.499020879428274
5.542102184583286
5.579029017573289
5.646728211388286
5.966760763968348
6.219094122733385
6.243712011393371
6.25602095572339
6.262175427888372
6.274484372218392
6.336029093868436
6.41603723201345
6.422191704178459
6.403728287683458
6.385264871188456
6.360646982528445
6.336029093868436
6.311411205208422
6.286793316548384
6.25602095572339
6.237557539228389
6.212939650568378
6.182167289743385
6.163703873248383
6.139085984588371
6.108313623763351
6.083695735103367
6.059077846443356
6.046768902113364
6.028305485618365
5.997533124793343
5.97906970829834
5.954451819638329
5.929833930978346
5.899061570153325
5.886752625823332
5.868289209328331
5.84367132066832
5.825207904173318
5.800590015513308
5.782126599018308
5.763663182523304
5.73904529386332
5.714427405203311
5.695963988708308
5.665191627883287
5.646728211388286
5.634419267058294
5.622110322728302
5.597492434068291
5.572874545408279
5.548256656748296
5.535947712418277
5.517484295923275
5.499020879428274
5.474402990768261
5.468248518603279
5.449785102108279
5.419012741283257
5.419012741283257
5.4005493247882566
5.388240380458265
5.357468019633243
5.345159075303252
5.33285013097326
5.320541186643241
5.295923297983257
5.289768825818246
5.271305409323245
5.258996464993254
5.234378576333243
5.228224104168233
5.209760687673231
5.19129727117823
5.178988326848239
5.166679382518219
5.148215966023217
5.135907021693225
5.129752549528216
5.111289133033214
5.117443605198224
5.105134660868233
5.098980188703223
5.080516772208221
5.068207827878203
5.062053355713221
5.043589939218219
5.0312809948882
5.018972050558207
5.000508634063205
4.9881996897332135
4.982045217568204
4.963581801073202
4.945118384578201
4.93896391241319
4.9266549680832
4.9266549680832
4.908191551588198
4.895882607258178
4.883573662928187
4.877419190763177
4.871264718598195
4.858955774268176
4.840492357773174
4.81587446911319
4.7297118588031655
4.81587446911319
4.81587446911319
4.797411052618189
4.797411052618189
4.778947636123188
4.766638691793168
4.760484219628157
4.7297118588031655
4.698939497978172
4.705093970143154
4.67432160931816
4.434297194883113
4.101955697973087
3.9788662546730578
3.9173215330230438
3.831158922713046
3.695760535083026
3.504971897968001
3.363419038172971
3.271101955697964
3.2095572340479492
3.184939345387937
3.191093817552948
3.178784873222956
3.1726304010579467
3.1480125123979352
3.1357035680679433
3.1233946237379517
3.1049312072429505
3.0680043742529195
3.043386485592936
3.0249230690979347
3.018768596932925
3.006459652602933
3.006459652602933
2.994150708272913
2.9879962361079313
2.9879962361079313
2.975687291777912
2.975687291777912
2.9879962361079313
2.994150708272913
2.994150708272913
3.006459652602933
3.006459652602933
3.006459652602933
3.006459652602933
3.0249230690979347
3.037232013427927
3.037232013427927
3.049540957757918
3.049540957757918
3.0618499020879373
3.0618499020879373
3.049540957757918
3.043386485592936
3.049540957757918
3.049540957757918
3.055695429922928
3.0618499020879373
3.074158846417929
3.074158846417929
3.074158846417929
3.0680043742529195
3.0618499020879373
3.055695429922928
3.049540957757918
3.043386485592936
3.0310775412629165
3.037232013427927
3.018768596932925
3.018768596932925
3.0126141247679152
3.0126141247679152
3.0126141247679152
3.0126141247679152
3.0126141247679152
2.975687291777912
2.877215737137895
2.9633783474479203
2.9879962361079313
2.981841763942921
2.96953281961293
2.96953281961293
2.975687291777912
2.9633783474479203
2.9264515144579173
2.9264515144579173
2.9202970422929075
2.9202970422929075
2.9202970422929075
2.9202970422929075
2.9202970422929075
2.9202970422929075
2.932605986622927
2.9387604587879093
2.9572238752829105
2.9572238752829105
2.9633783474479203
2.96953281961293
2.981841763942921
2.994150708272913
3.0003051804379233
3.018768596932925
3.0310775412629165
3.037232013427927
3.049540957757918
3.055695429922928
3.0618499020879373
3.055695429922928
3.055695429922928
3.049540957757918
3.049540957757918
3.043386485592936
3.0249230690979347
3.018768596932925
3.006459652602933
2.975687291777912
2.9633783474479203
2.9572238752829105
2.9141425701278982
2.834134431982911
2.9141425701278982
2.901833625797906
2.877215737137895
2.834134431982911
2.821825487652891
2.8033620711578893
2.8033620711578893
2.797207598992907
2.7910531268278973
2.778744182497905
2.778744182497905
2.766435238167886
2.766435238167886
2.760280766002876
2.735662877342893
2.723353933012873
2.6987360443528896
2.680272627857888
2.655654739197877
2.631036850537866
2.612573434042864
2.5941100175478624
2.575646601052861
2.563337656722869
2.544874240227868
2.520256351567857
2.507947407237865
2.483329518577854
2.4894839907428636
2.483329518577854
2.471020574247862
2.4648661020828517
2.471020574247862
2.477175046412844
2.471020574247862
2.477175046412844
2.4894839907428636
2.501792935072855
2.507947407237865
2.501792935072855
2.520256351567857
2.520256351567857
2.520256351567857
2.544874240227868
2.55102871239285
2.563337656722869
2.563337656722869
2.5694921288878514
2.581801073217871
2.587955545382853
2.5941100175478624
2.624882378372884
2.631036850537866
2.6433457948678853
2.655654739197877
2.667963683527869
2.674118155692878
2.6925815721878803
2.6987360443528896
2.7171994608478913
2.723353933012873
2.729508405177883
2.7418173495078744
2.754126293837894
2.766435238167886
2.772589710332896
2.778744182497905
2.7910531268278973
2.8033620711578893
2.797207598992907
2.8033620711578893
2.8033620711578893
2.815671015487909
2.815671015487909
2.834134431982911
2.8402889041478923
2.834134431982911
2.834134431982911
2.821825487652891
2.815671015487909
2.8095165433228986
2.797207598992907
2.7848986546628876
2.7910531268278973
2.7910531268278973
2.7910531268278973
2.7910531268278973
2.7910531268278973
2.797207598992907
2.7910531268278973
2.7848986546628876
2.7910531268278973
2.8033620711578893
2.8279799598179
2.877215737137895
2.9387604587879093
3.0249230690979347
3.1233946237379517
3.154166984562945
3.0864677907479487
2.9633783474479203
2.877215737137895
2.8525978484779113
2.8464433763129016
2.877215737137895
2.907988097962916
2.932605986622927
2.944914930952919
2.9510694031179288
2.9572238752829105
2.9510694031179288
2.9572238752829105
2.9572238752829105
2.9633783474479203
2.981841763942921
2.994150708272913
3.006459652602933
3.0126141247679152
3.0249230690979347
3.037232013427927
3.0310775412629165
2.9572238752829105
3.0864677907479487
3.1049312072429505
3.1110856794079322
3.117240151572942
3.1295490959029335
3.1480125123979352
3.154166984562945
3.154166984562945
3.178784873222956
3.215711706212959
3.258793011367972
3.277256427862973
3.3141832608529764
3.332646677347978
3.3511100938429803
3.375727982502963
3.418809287657976
3.449581648482997
3.48035400930799
3.5172808422979926
3.541898730958004
3.5665166196180156
3.5849800361130173
3.6280613412680016
3.6649881742580046
3.695760535083026
3.720378423743037
3.75115078456803
3.788077617558033
3.800386561888025
3.8126955062180454
3.837313394878028
3.8496223392080475
3.8496223392080475
3.855776811373057
3.8680857557030492
3.8803947000330408
3.9111670608580615
3.9296304773530633
3.9542483660130467
3.9911751990030497
4.021947559828071
4.058874392818074
4.083492281478085
4.083492281478085
4.120419114468088
4.157345947458091
4.1942727804480935
4.225045141273086
4.249663029933098
4.280435390758093
4.329671168078114
4.385061417563119
4.421988250553122
4.458915083543125
4.489687444368147
4.5327687495231315
4.575850054678144
4.631240304163148
4.649703720658149
4.686630553648152
4.723557386638154
4.748175275298167
4.785102108288171
4.803565524783171
4.809719996948181
4.8528013021031935
4.889728135093197
4.93896391241319
4.975890745403193
5.012817578393197
5.0497444113832
5.0743623000432105
5.098980188703223
5.135907021693225
5.160524910353237
5.154370438188227
5.160524910353237
5.172833854683229
5.185142799013221
5.178988326848239
5.178988326848239
5.166679382518219
5.148215966023217
5.154370438188227
5.172833854683229
5.203606215508222
5.209760687673231
5.203606215508222
5.209760687673231
5.21591515983824
5.21591515983824
5.203606215508222
5.203606215508222
5.209760687673231
5.2220696320032225
5.2220696320032225
5.2405330484982535
5.258996464993254
5.283614353653239
5.3390046031382425
5.394394852623274
5.455939574273261
5.517484295923275
5.572874545408279
5.615955850563292
5.665191627883287
5.726736349533301
5.788281071183316
5.812898959843329
5.825207904173318
5.874443681493341
5.868289209328331
5.831362376338328
5.806744487678317
5.7944355433483254
5.763663182523304
5.751354238193313
5.7451997660283025
5.7328908216983105
5.7082729330383
5.628264794893284
5.720581877368319
5.7451997660283025
5.7328908216983105
5.720581877368319
5.714427405203311
5.7082729330383
5.702118460873318
5.677500572213306
5.652882683553296
5.640573739223304
5.640573739223304
5.6590371557183055
5.640573739223304
5.628264794893284
5.609801378398282
5.566720073243298
5.535947712418277
5.529793240253267
5.517484295923275
5.529793240253267
5.542102184583286
5.529793240253267
5.492866407263264
5.468248518603279
5.443630629943269
5.4005493247882566
5.289768825818246
5.357468019633243
5.406703796953265
5.394394852623274
5.388240380458265
5.394394852623274
5.351313547468262
5.31438671447826
5.277459881488257
5.252841992828244
5.252841992828244
5.271305409323245
5.258996464993254
5.246687520663237
5.2405330484982535
5.234378576333243
5.2220696320032225
5.209760687673231
5.185142799013221
5.166679382518219
5.160524910353237
5.160524910353237
5.148215966023217
5.129752549528216
5.129752549528216
5.129752549528216
5.129752549528216
5.129752549528216
5.129752549528216
5.117443605198224
5.123598077363234
5.148215966023217
5.351313547468262
6.065232318608365
6.637598229953468
6.933012893873519
6.988403143358525
6.902240533048526
6.754533201088487
6.637598229953468
6.588362452633473
6.54528114747846
6.526817730983458
6.526817730983458
6.520663258818478
6.502199842323475
6.483736425828446
6.459118537168461
6.434500648508451
6.40988275984844
6.385264871188456
6.360646982528445
6.336029093868436
6.311411205208422
6.274484372218392
6.249866483558383
6.2252485948983685
6.206785178403368
6.188321761908366
6.157549401083372
6.132931512423362
6.108313623763351
6.077541262938357
6.059077846443356
6.040614429948354
6.009842069123361
5.98522418046335
5.966760763968348
5.948297347473347
5.917524986648326
5.899061570153325
5.874443681493341
5.8559802649983395
5.83751684850331
5.812898959843329
5.788281071183316
5.769817654688314
5.751354238193313
5.726736349533301
5.702118460873318
5.683655044378289
5.665191627883287
5.634419267058294
5.622110322728302
5.6036469062333
5.579029017573289
5.554411128913278
5.542102184583286
5.529793240253267
5.505175351593283
5.492866407263264
5.474402990768261
5.462094046438272
5.437476157778259
5.4005493247882566
5.320541186643241
5.394394852623274
5.388240380458265
5.369776963963263
5.357468019633243
5.345159075303252
5.326695658808251
5.295923297983257
5.277459881488257
5.277459881488257
5.271305409323245
5.252841992828244
5.246687520663237
5.234378576333243
5.2220696320032225
5.19745174334324
5.19129727117823
5.166679382518219
5.160524910353237
5.135907021693225
5.129752549528216
5.111289133033214
5.098980188703223
5.080516772208221
5.068207827878203
5.0497444113832
5.043589939218219
5.0312809948882
5.018972050558207
5.006663106228215
4.9881996897332135
4.975890745403193
4.969736273238212
4.951272856743211
4.945118384578201
4.92050049591819
4.902037079423188
4.895882607258178
4.877419190763177
4.871264718598195
4.8651102464331855
4.8651102464331855
4.8528013021031935
4.840492357773174
4.840492357773174
4.834337885608192
4.81587446911319
4.809719996948181
4.797411052618189
4.803565524783171
4.7912565804531795
4.785102108288171
4.772793163958178
4.754329747463175
4.748175275298167
4.7420208031331565
4.7420208031331565
4.7297118588031655
4.723557386638154
4.717402914473172
4.717402914473172
4.705093970143154
4.68047608148317
4.68047608148317
4.67432160931816
4.67432160931816
4.668167137153151
4.662012664988168
4.649703720658149
4.637394776328158
4.625085831998166
4.625085831998166
4.625085831998166
4.612776887668146
4.612776887668146
4.606622415503137
4.606622415503137
4.6004679433381535
4.588158999008135
4.575850054678144
4.569695582513134
4.575850054678144
4.563541110348153
4.557386638183142
4.551232166018132
4.54507769385315
4.5327687495231315
4.5327687495231315
4.5327687495231315
4.520459805193139
4.508150860863147
4.508150860863147
4.508150860863147
4.501996388698137
4.501996388698137
4.495841916533129
4.489687444368147
4.483532972203136
4.477378500038126
4.471224027873144
4.465069555708134
4.458915083543125
4.458915083543125
4.458915083543125
4.446606139213133
4.452760611378115
4.446606139213133
4.446606139213133
4.452760611378115
4.446606139213133
4.440451667048122
4.434297194883113
4.428142722718132
4.421988250553122
4.415833778388112
4.415833778388112
4.40967930622313
4.40352483405812
4.397370361893111
4.385061417563119
4.391215889728128
4.360443528903107
4.292744335088111
4.3727524732331275
4.3727524732331275
4.348134584573115
4.360443528903107
4.360443528903107
4.354289056738125
4.348134584573115
4.348134584573115
4.341980112408105
4.341980112408105
4.335825640243124
4.335825640243124
4.329671168078114
4.329671168078114
4.323516695913104
4.323516695913104
4.323516695913104
4.3173622237481215
4.298898807253093
4.3112077515831135
4.3112077515831135
4.329671168078114
4.37890694539811
4.458915083543125
4.5327687495231315
4.563541110348153
4.501996388698137
4.37890694539811
4.280435390758093
4.231199613438097
4.2065817247780855
4.212736196943095
4.237354085603107
4.261971974263091
4.2681264464281
4.27428091859311
4.27428091859311
4.27428091859311
4.2681264464281
4.2681264464281
4.255817502098108
4.249663029933098
4.255817502098108
4.255817502098108
4.261971974263091
4.261971974263091
4.261971974263091
4.261971974263091
4.249663029933098
4.225045141273086
4.145037003128072
3.8126955062180454
3.578825563948007
3.468045064977998
3.3880369268329824
3.3388011495129604
3.289565372192965
3.2464840670379527
3.2095572340479492
3.191093817552948
3.160321456727955
3.141858040232953
3.1110856794079322
3.1110856794079322
3.0864677907479487
3.0680043742529195
3.0680043742529195
3.049540957757918
3.043386485592936
3.037232013427927
3.0310775412629165
3.0126141247679152
2.9879962361079313
2.96953281961293
2.944914930952919
2.9387604587879093
2.932605986622927
2.932605986622927
2.907988097962916
2.895679153632896
2.895679153632896
2.901833625797906
2.8895246814679143
2.8895246814679143
2.8895246814679143
2.895679153632896
2.8895246814679143
2.901833625797906
2.901833625797906
2.9202970422929075
2.932605986622927
2.9387604587879093
2.9264515144579173
2.932605986622927
2.932605986622927
2.932605986622927
2.858752320642893
2.932605986622927
2.975687291777912
2.981841763942921
2.975687291777912
2.981841763942921
2.96953281961293
2.9572238752829105
2.932605986622927
2.932605986622927
2.932605986622927
2.9264515144579173
2.9387604587879093
2.9387604587879093
2.9510694031179288
2.944914930952919
2.9510694031179288
2.9633783474479203
2.9572238752829105
2.9633783474479203
2.975687291777912
2.975687291777912
2.994150708272913
2.994150708272913
2.9879962361079313
2.9264515144579173
3.006459652602933
3.0126141247679152
3.0310775412629165
3.043386485592936
3.055695429922928
3.043386485592936
3.043386485592936
3.0618499020879373
3.0680043742529195
3.092622262912931
3.1049312072429505
3.117240151572942
3.1357035680679433
3.141858040232953
3.1295490959029335
3.1295490959029335
3.117240151572942
3.0987767350779407
3.080313318582939
3.049540957757918
3.0310775412629165
3.0003051804379233
2.975687291777912
2.9387604587879093
2.9202970422929075
2.901833625797906
2.877215737137895
2.8525978484779113
2.821825487652891
2.797207598992907
2.772589710332896
2.747971821672884
2.723353933012873
2.704890516517872
2.674118155692878
2.6618092113628857
2.6433457948678853
2.624882378372884
2.612573434042864
2.587955545382853
2.575646601052861
2.563337656722869
2.544874240227868
2.5141018794028467
2.4894839907428636
2.4402482134228407
2.4156303247628297
2.3848579639378364
2.347931130947833
2.3110042979578305
2.286386409297819
2.261768520637808
2.2186872154828228
2.194069326822812
2.175605910327811
2.1571424938328088
2.1325246051727973
2.1079067165127863
2.1017522443478045
2.077134355687793
2.0586709391927913
2.0463619948628
2.0340530505327803
2.0340530505327803
2.015589634037779
1.9971262175427773
2.009435161872797
2.003280689707787
1.9848172732127856
1.990971745377768
1.9971262175427773
2.015589634037779
2.0217441062027888
2.015589634037779
2.009435161872797
2.009435161872797
2.003280689707787
2.009435161872797
2.009435161872797
2.015589634037779
2.0217441062027888
2.0217441062027888
2.015589634037779
2.0217441062027888
2.009435161872797
2.0217441062027888
2.015589634037779
2.015589634037779
2.0217441062027888
2.015589634037779
2.015589634037779
2.0217441062027888
2.0278985783677985
2.0340530505327803
2.0340530505327803
2.0463619948628
2.052516467027782
2.0586709391927913
2.064825411357801
2.064825411357801
2.064825411357801
2.077134355687793
2.083288827852803
2.1017522443478045
2.0955977721827947
2.0955977721827947
2.1017522443478045
2.120215660842805
2.150988021667799
2.212532743317813
2.2802319371328093
2.372549019607845
2.4587116299178424
2.446402685587851
2.347931130947833
2.2063782711528033
2.150988021667799
2.150988021667799
2.1632969659978185
2.194069326822812
2.1817603824928202
2.114061188677796
2.212532743317813
2.187914854657802
2.1817603824928202
2.175605910327811
2.1817603824928202
2.187914854657802
2.187914854657802
2.194069326822812
2.200223798987821
2.194069326822812
2.2063782711528033
2.2063782711528033
2.2063782711528033
2.2186872154828228
2.2186872154828228
2.224841687647805
2.2309961598128147
2.2433051041428067
2.249459576307816
2.261768520637808
2.2679229928028177
2.2740774649678275
2.2802319371328093
2.286386409297819
2.2925408814628288
2.304849825792821
2.323313242287821
2.323313242287821
2.329467714452832
2.347931130947833
2.3540856031128428
2.360240075277825
2.3663945474428347
2.3663945474428347
2.3848579639378364
2.3971669082678284
2.3971669082678284
2.4156303247628297
2.4279392690928487
2.446402685587851
2.446402685587851
2.4648661020828517
2.483329518577854
2.507947407237865
2.5325652958978484
2.5694921288878514
2.649500267032867
2.754126293837894
2.877215737137895
3.0126141247679152
3.117240151572942
3.178784873222956
3.277256427862973
3.412654815492993
3.560362147453006
3.7942320897230433
4.077337809313075
4.366598001068117
4.662012664988168
5.000508634063205
5.757508710358322
7.185346252638558
8.096208133058697
8.483939879453729
8.63780168357875
8.699346405228765
8.687037460898772
8.66857404440377
8.643956155743759
8.600874850588747
8.570102489763753
8.51471224027875
8.465476462958726
8.434704102133733
8.385468324813736
8.348541491823735
8.299305714503713
8.250069937183719
8.200834159863696
8.151598382543702
8.096208133058697
8.059281300068694
7.99158210625367
7.911573968108653
7.7638666361486415
7.7638666361486415
7.770021108313651
7.7638666361486415
7.757712163983632
7.726939803158639
7.677704025838616
7.6346227206836295
7.59769588769363
7.5546145825386155
7.511533277383603
7.462297500063607
7.4315251392385875
7.388443834083573
7.345362528928589
7.302281223773576
7.265354390783574
7.2222730856285615
7.179191780473548
7.136110475318563
7.099183642328533
7.06225680933853
7.0314844485135355
6.994557615523533
6.9576307825335295
6.914549477378518
6.883777116553524
6.846850283563521
6.8037689784085105
6.779151089748497
6.736069784593486
6.7114518959335
6.66837059077849
6.631443757788486
6.606825869128475
6.569899036138471
6.508354314488457
6.40988275984844
6.471427481498454
6.452964065003453
6.422191704178459
6.391419343353438
6.348338038198453
6.305256733043441
6.274484372218392
6.25602095572339
6.2252485948983685
6.194476234073376
6.163703873248383
6.145240456753354
6.114468095928361
6.083695735103367
6.052923374278346
5.966760763968348
5.702118460873318
5.265150937158236
4.963581801073202
4.766638691793168
4.625085831998166
4.54507769385315
4.495841916533129
4.501996388698137
4.606622415503137
4.735866330968175
5.271305409323245
5.757508710358322
5.7944355433483254
5.7944355433483254
5.782126599018308
5.769817654688314
5.757508710358322
5.73904529386332
5.726736349533301
5.702118460873318
5.677500572213306
5.6713461000482965
5.6590371557183055
5.646728211388286
5.634419267058294
5.615955850563292
5.6036469062333
5.579029017573289
5.480557462933272
5.511329823758264
5.535947712418277
5.517484295923275
5.486711935098282
5.462094046438272
5.449785102108279
5.425167213448267
5.382085908293255
5.369776963963263
5.363622491798253
5.351313547468262
5.326695658808251
5.308232242313249
5.295923297983257
5.277459881488257
5.265150937158236
5.258996464993254
5.234378576333243
5.228224104168233
5.209760687673231
5.19745174334324
5.178988326848239
5.160524910353237
5.148215966023217
5.135907021693225
5.129752549528216
5.111289133033214
5.098980188703223
5.0743623000432105
5.062053355713221
5.043589939218219
5.062053355713221
5.098980188703223
5.154370438188227
5.234378576333243
5.277459881488257
5.234378576333243
5.098980188703223
4.963581801073202
4.902037079423188
4.8528013021031935
4.8528013021031935
4.858955774268176
4.883573662928187
4.889728135093197
4.871264718598195
4.8528013021031935
4.858955774268176
4.846646829938186
4.840492357773174
4.834337885608192
4.81587446911319
4.809719996948181
4.797411052618189
4.7912565804531795
4.778947636123188
4.772793163958178
4.772793163958178
4.766638691793168
4.760484219628157
4.754329747463175
4.748175275298167
4.7297118588031655
4.735866330968175
4.723557386638154
4.717402914473172
4.705093970143154
4.698939497978172
4.692785025813162
4.692785025813162
4.68047608148317
4.67432160931816
4.67432160931816
4.662012664988168
4.655858192823159
4.631240304163148
4.569695582513134
4.631240304163148
4.612776887668146
4.618931359833156
4.618931359833156
4.612776887668146
4.6004679433381535
4.6004679433381535
4.6004679433381535
4.588158999008135
4.5820045268431535
4.569695582513134
4.569695582513134
4.569695582513134
4.563541110348153
4.557386638183142
4.551232166018132
4.5327687495231315
4.5327687495231315
4.5327687495231315
4.5327687495231315
4.5327687495231315
4.5327687495231315
4.52661427735815
4.52661427735815
4.520459805193139
4.514305333028129
4.520459805193139
4.514305333028129
4.520459805193139
4.514305333028129
4.508150860863147
4.501996388698137
4.501996388698137
4.501996388698137
4.495841916533129
4.489687444368147
4.471224027873144
4.471224027873144
4.465069555708134
4.452760611378115
4.440451667048122
4.452760611378115
4.440451667048122
4.428142722718132
4.434297194883113
4.421988250553122
4.421988250553122
4.415833778388112
4.40967930622313
4.40967930622313
4.397370361893111
4.40352483405812
4.391215889728128
4.391215889728128
4.385061417563119
4.385061417563119
4.3727524732331275
4.366598001068117
4.3727524732331275
4.366598001068117
4.366598001068117
4.366598001068117
4.354289056738125
4.360443528903107
4.360443528903107
4.360443528903107
4.348134584573115
4.354289056738125
4.348134584573115
4.341980112408105
4.341980112408105
4.335825640243124
4.335825640243124
4.335825640243124
4.335825640243124
4.335825640243124
4.329671168078114
4.335825640243124
4.329671168078114
4.3173622237481215
4.323516695913104
4.3173622237481215
4.323516695913104
4.323516695913104
4.323516695913104
4.323516695913104
4.3173622237481215
4.3112077515831135
4.3112077515831135
4.305053279418103
4.305053279418103
4.298898807253093
4.305053279418103
4.305053279418103
4.292744335088111
4.2865898629231
4.292744335088111
4.280435390758093
4.2865898629231
4.280435390758093
4.2865898629231
4.280435390758093
4.2865898629231
4.280435390758093
4.280435390758093
4.27428091859311
4.280435390758093
4.280435390758093
4.27428091859311
4.27428091859311
4.2681264464281
4.27428091859311
4.2681264464281
4.2681264464281
4.2681264464281
4.261971974263091
4.27428091859311
4.261971974263091
4.255817502098108
4.255817502098108
4.237354085603107
4.181963836118102
4.2681264464281
4.280435390758093
4.2865898629231
4.27428091859311
4.255817502098108
4.249663029933098
4.255817502098108
4.249663029933098
4.255817502098108
4.249663029933098
4.249663029933098
4.243508557768089
4.231199613438097
4.231199613438097
4.231199613438097
4.237354085603107
4.237354085603107
4.237354085603107
4.237354085603107
4.225045141273086
4.225045141273086
4.231199613438097
4.218890669108104
4.225045141273086
4.218890669108104
4.218890669108104
4.225045141273086
4.218890669108104
4.212736196943095
4.2065817247780855
4.200427252613103
4.212736196943095
4.212736196943095
4.212736196943095
4.200427252613103
4.181963836118102
4.1942727804480935
4.218890669108104
4.255817502098108
4.3173622237481215
4.391215889728128
4.458915083543125
4.434297194883113
4.329671168078114
4.200427252613103
4.151191475293081
4.114264642303079
4.114264642303079
4.1327280587980795
4.151191475293081
4.169654891788083
4.181963836118102
4.1758093639530935
4.181963836118102
4.1758093639530935
4.181963836118102
4.181963836118102
4.181963836118102
4.181963836118102
4.169654891788083
4.181963836118102
4.188118308283084
4.181963836118102
4.1942727804480935
4.188118308283084
4.181963836118102
4.188118308283084
4.181963836118102
4.181963836118102
4.188118308283084
4.181963836118102
4.188118308283084
4.188118308283084
4.181963836118102
4.181963836118102
4.1758093639530935
4.181963836118102
4.188118308283084
4.188118308283084
4.181963836118102
4.188118308283084
4.181963836118102
4.181963836118102
4.1758093639530935
4.181963836118102
4.1758093639530935
4.181963836118102
4.1758093639530935
4.1758093639530935
4.169654891788083
4.169654891788083
4.169654891788083
4.169654891788083
4.1758093639530935
4.181963836118102
4.181963836118102
4.1758093639530935
4.1758093639530935
4.169654891788083
4.169654891788083
4.163500419623101
4.169654891788083
4.169654891788083
4.169654891788083
4.1758093639530935
4.169654891788083
4.163500419623101
4.169654891788083
4.181963836118102
4.181963836118102
4.181963836118102
4.181963836118102
4.1942727804480935
4.188118308283084
4.114264642303079
4.163500419623101
4.212736196943095
4.200427252613103
4.1942727804480935
4.1942727804480935
4.169654891788083
4.083492281478085
4.1327280587980795
4.151191475293081
4.151191475293081
4.157345947458091
4.157345947458091
4.157345947458091
4.157345947458091
4.157345947458091
4.151191475293081
4.151191475293081
4.151191475293081
4.157345947458091
4.157345947458091
4.157345947458091
4.157345947458091
4.145037003128072
4.151191475293081
4.157345947458091
4.151191475293081
4.151191475293081
4.151191475293081
4.151191475293081
4.157345947458091
4.151191475293081
4.151191475293081
4.145037003128072
4.151191475293081
4.157345947458091
4.151191475293081
4.157345947458091
4.151191475293081
4.157345947458091
4.163500419623101
4.157345947458091
4.163500419623101
4.157345947458091
4.163500419623101
4.163500419623101
4.157345947458091
4.163500419623101
4.157345947458091
4.157345947458091
4.169654891788083
4.169654891788083
4.157345947458091
4.163500419623101
4.151191475293081
4.151191475293081
4.157345947458091
4.157345947458091
4.163500419623101
4.157345947458091
4.157345947458091
4.157345947458091
4.157345947458091
4.157345947458091
4.157345947458091
4.157345947458091
4.163500419623101
4.163500419623101
4.157345947458091
4.157345947458091
4.157345947458091
4.169654891788083
4.163500419623101
4.151191475293081
4.151191475293081
4.157345947458091
4.157345947458091
4.157345947458091
4.163500419623101
4.157345947458091
4.169654891788083
4.157345947458091
4.157345947458091
4.157345947458091
4.163500419623101
4.157345947458091
4.151191475293081
4.163500419623101
4.157345947458091
4.157345947458091
4.151191475293081
4.157345947458091
4.157345947458091
4.157345947458091
4.151191475293081
4.169654891788083
4.163500419623101
4.169654891788083
4.169654891788083
4.169654891788083
4.169654891788083
4.163500419623101
4.163500419623101
4.163500419623101
4.163500419623101
4.157345947458091
4.151191475293081
4.151191475293081
4.145037003128072
4.145037003128072
4.145037003128072
4.138882530963089
4.145037003128072
4.145037003128072
4.138882530963089
4.1327280587980795
4.1327280587980795
4.1327280587980795
4.1327280587980795
4.145037003128072
4.138882530963089
4.145037003128072
4.145037003128072
4.1327280587980795
4.1327280587980795
4.12657358663307
4.12657358663307
4.120419114468088
4.108110170138069
4.052719920653064
4.138882530963089
4.169654891788083
4.231199613438097
4.3112077515831135
4.391215889728128
4.428142722718132
4.348134584573115
4.218890669108104
4.120419114468088
4.089646753643067
4.077337809313075
4.089646753643067
4.101955697973087
4.114264642303079
4.120419114468088
4.120419114468088
4.12657358663307
4.12657358663307
4.12657358663307
4.120419114468088
4.120419114468088
4.120419114468088
4.114264642303079
4.120419114468088
4.120419114468088
4.12657358663307
4.138882530963089
4.1327280587980795
4.120419114468088
4.12657358663307
4.1327280587980795
4.138882530963089
4.1327280587980795
4.138882530963089
4.1327280587980795
4.120419114468088
4.1327280587980795
4.12657358663307
4.120419114468088
4.12657358663307
4.138882530963089
4.1327280587980795
4.138882530963089
4.12657358663307
4.138882530963089
4.138882530963089
4.138882530963089
4.145037003128072
4.145037003128072
4.138882530963089
4.138882530963089
4.1327280587980795
4.1327280587980795
4.1327280587980795
4.1327280587980795
4.12657358663307
4.120419114468088
4.12657358663307
4.12657358663307
4.12657358663307
4.12657358663307
4.12657358663307
4.12657358663307
4.12657358663307
4.12657358663307
4.1327280587980795
4.12657358663307
4.12657358663307
4.1327280587980795
4.1327280587980795
4.138882530963089
4.1327280587980795
4.138882530963089
4.138882530963089
4.145037003128072
4.151191475293081
4.151191475293081
4.151191475293081
4.163500419623101
4.169654891788083
4.163500419623101
4.157345947458091
4.163500419623101
4.151191475293081
4.151191475293081
4.157345947458091
4.151191475293081
4.157345947458091
4.151191475293081
4.145037003128072
4.138882530963089
4.1327280587980795
4.1327280587980795
4.1327280587980795
4.138882530963089
4.145037003128072
4.138882530963089
4.120419114468088
4.12657358663307
4.1327280587980795
4.145037003128072
4.138882530963089
4.138882530963089
4.138882530963089
4.138882530963089
4.1327280587980795
4.1327280587980795
4.12657358663307
4.1327280587980795
4.120419114468088
4.12657358663307
4.12657358663307
4.1327280587980795
4.120419114468088
4.12657358663307
4.120419114468088
4.120419114468088
4.114264642303079
4.108110170138069
4.114264642303079
4.114264642303079
4.052719920653064
4.1327280587980795
4.145037003128072
4.145037003128072
4.145037003128072
4.138882530963089
4.138882530963089
4.138882530963089
4.108110170138069
4.114264642303079
4.114264642303079
4.120419114468088
4.12657358663307
4.120419114468088
4.120419114468088
4.12657358663307
4.12657358663307
4.1327280587980795
4.1327280587980795
4.12657358663307
4.12657358663307
4.1327280587980795
4.138882530963089
4.138882530963089
4.1327280587980795
4.138882530963089
4.138882530963089
4.1327280587980795
4.145037003128072
4.145037003128072
4.1327280587980795
4.1327280587980795
4.1327280587980795
4.1327280587980795
4.1327280587980795
4.1327280587980795
4.138882530963089
4.138882530963089
4.1327280587980795
4.1327280587980795
4.138882530963089
4.145037003128072
4.138882530963089
4.138882530963089
4.138882530963089
4.151191475293081
4.151191475293081
4.163500419623101
4.163500419623101
4.169654891788083
4.163500419623101
4.157345947458091
4.151191475293081
4.151191475293081
4.151191475293081
4.151191475293081
4.145037003128072
4.151191475293081
4.145037003128072
4.151191475293081
4.145037003128072
4.151191475293081
4.138882530963089
4.077337809313075
4.114264642303079
4.157345947458091
4.157345947458091
4.151191475293081
4.151191475293081
4.151191475293081
4.138882530963089
4.120419114468088
4.114264642303079
4.12657358663307
4.12657358663307
4.12657358663307
4.1327280587980795
4.12657358663307
4.12657358663307
4.120419114468088
4.114264642303079
4.12657358663307
4.138882530963089
4.163500419623101
4.231199613438097
4.3173622237481215
4.37890694539811
4.385061417563119
4.280435390758093
4.145037003128072
4.077337809313075
4.0465654484880815
4.034256504158063
4.058874392818074
4.077337809313075
4.095801225808079
4.108110170138069
4.108110170138069
4.101955697973087
4.108110170138069
4.114264642303079
4.114264642303079
4.108110170138069
4.114264642303079
4.114264642303079
4.108110170138069
4.114264642303079
4.114264642303079
4.114264642303079
4.114264642303079
4.114264642303079
4.114264642303079
4.120419114468088
4.120419114468088
4.108110170138069
4.114264642303079
4.114264642303079
4.114264642303079
4.114264642303079
4.120419114468088
4.120419114468088
4.095801225808079
4.0465654484880815
4.120419114468088
4.1327280587980795
4.120419114468088
4.101955697973087
4.108110170138069
4.114264642303079
4.120419114468088
4.12657358663307
4.12657358663307
4.12657358663307
4.12657358663307
4.114264642303079
4.120419114468088
4.12657358663307
4.12657358663307
4.12657358663307
4.12657358663307
4.12657358663307
4.12657358663307
4.114264642303079
4.12657358663307
4.120419114468088
4.12657358663307
4.120419114468088
4.1327280587980795
4.1327280587980795
4.12657358663307
4.12657358663307
4.1327280587980795
4.1327280587980795
4.145037003128072
4.145037003128072
4.151191475293081
4.145037003128072
4.151191475293081
4.157345947458091
4.157345947458091
4.157345947458091
4.151191475293081
4.157345947458091
4.157345947458091
4.151191475293081
4.138882530963089
4.145037003128072
4.151191475293081
4.145037003128072
4.138882530963089
4.138882530963089
4.1327280587980795
4.12657358663307
4.12657358663307
4.1327280587980795
4.1327280587980795
4.1327280587980795
4.1327280587980795
4.1327280587980795
4.1327280587980795
4.12657358663307
4.120419114468088
4.120419114468088
4.120419114468088
4.120419114468088
4.120419114468088
4.120419114468088
4.120419114468088
4.114264642303079
4.120419114468088
4.120419114468088
4.120419114468088
4.120419114468088
4.12657358663307
4.1327280587980795
4.1327280587980795
4.120419114468088
4.120419114468088
4.120419114468088
4.1327280587980795
4.138882530963089
4.138882530963089
4.1327280587980795
4.138882530963089
4.1327280587980795
4.1327280587980795
4.1327280587980795
4.138882530963089
4.1327280587980795
4.1327280587980795
4.138882530963089
4.1327280587980795
4.12657358663307
4.120419114468088
4.1327280587980795
4.1327280587980795
4.1327280587980795
4.1327280587980795
4.1327280587980795
4.1327280587980795
4.1327280587980795
4.138882530963089
4.1327280587980795
4.145037003128072
4.145037003128072
4.138882530963089
4.145037003128072
4.145037003128072
4.138882530963089
4.145037003128072
4.145037003128072
4.138882530963089
4.145037003128072
4.138882530963089
4.151191475293081
4.145037003128072
4.145037003128072
4.151191475293081
4.151191475293081
4.145037003128072
4.145037003128072
4.157345947458091
4.163500419623101
4.151191475293081
4.083492281478085
4.181963836118102
4.181963836118102
4.169654891788083
4.163500419623101
4.157345947458091
4.157345947458091
4.145037003128072
4.12657358663307
4.12657358663307
4.114264642303079
4.120419114468088
4.114264642303079
4.120419114468088
4.12657358663307
4.114264642303079
4.114264642303079
4.12657358663307
4.12657358663307
4.12657358663307
4.120419114468088
4.12657358663307
4.120419114468088
4.120419114468088
4.114264642303079
4.108110170138069
4.120419114468088
4.108110170138069
4.095801225808079
3.886549172198051
3.5234353144630024
3.3141832608529764
3.1726304010579467
3.080313318582939
3.006459652602933
2.96953281961293
2.96953281961293
3.0003051804379233
3.018768596932925
3.0310775412629165
2.944914930952919
2.778744182497905
2.624882378372884
2.55102871239285
2.483329518577854
2.4525571577528327
2.4217847969278394
2.391012436102846
2.372549019607845
2.347931130947833
2.3171587701228398
2.2679229928028177
2.2371506319778245
2.2063782711528033
2.1694514381628007
2.1325246051727973
2.114061188677796
2.089443300017785
2.070979883522784
2.04020752269779
2.015589634037779
2.003280689707787
1.972508328882766
1.9478904402227823
1.9355814958927628
1.892500190737778
1.8740367742427766
1.8432644134177558
1.818646524757745
1.7940286360977609
1.7632562752727399
1.7324839144477464
1.7078660257877356
1.689402609292734
1.6709391927977324
1.6586302484677409
1.6463213041377216
1.6340123598077294
1.6093944711477182
1.6093944711477182
1.6093944711477182
1.6032399989827366
1.5970855268177266
1.5970855268177266
1.590931054652717
1.578622110322725
1.578622110322725
1.578622110322725
1.5847765824877347
1.5847765824877347
1.578622110322725
1.590931054652717
1.6032399989827366
1.6032399989827366
1.5970855268177266
1.6032399989827366
1.6032399989827366
1.6093944711477182
1.6093944711477182
1.6217034154777374
1.6278578876427194
1.6278578876427194
1.6340123598077294
1.6586302484677409
1.6647847206327224
1.6709391927977324
1.677093664962742
1.689402609292734
1.6955570814577436
1.7017115536227536
1.7201749701177547
1.7263294422827367
1.7447928587777384
1.757101803107758
1.7694107474377496
1.7817196917677414
1.7940286360977609
1.7878741639327511
1.8001831082627426
1.8124920525927626
1.824800996922753
1.8063375804277528
1.7509473309427481
1.861727829912757
1.8740367742427766
1.8740367742427766
1.8801912464077586
1.91096360723278
1.9294270237277809
1.9355814958927628
1.954044912387765
1.9848172732127856
2.0217441062027888
1.9786628010477763
2.0340530505327803
2.1694514381628007
2.224841687647805
2.2802319371328093
2.360240075277825
2.4648661020828517
2.5941100175478624
2.8033620711578893
2.994150708272913
3.3449556216779697
3.6834515907530063
3.9788662546730578
4.225045141273086
4.385061417563119
4.520459805193139
4.575850054678144
4.6004679433381535
4.668167137153151
4.662012664988168
4.662012664988168
4.705093970143154
4.797411052618189
4.889728135093197
4.9266549680832
4.963581801073202
4.9881996897332135
4.982045217568204
4.9881996897332135
4.9881996897332135
5.012817578393197
5.043589939218219
5.098980188703223
5.142061493858235
5.21591515983824
5.31438671447826
5.382085908293255
5.382085908293255
5.375931436128245
5.394394852623274
5.412858269118276
5.462094046438272
5.529793240253267
5.566720073243298
5.634419267058294
5.6898095165432965
5.714427405203311
5.757508710358322
5.812898959843329
5.886752625823332
5.8559802649983395
5.812898959843329
5.81905343200831
5.800590015513308
5.769817654688314
5.751354238193313
5.7328908216983105
5.7328908216983105
5.7451997660283025
5.720581877368319
5.7082729330383
5.720581877368319
5.702118460873318
5.665191627883287
5.585183489738299
5.517484295923275
5.486711935098282
5.462094046438272
5.425167213448267
5.412858269118276
5.375931436128245
5.326695658808251
5.234378576333243
5.21591515983824
5.2220696320032225
5.178988326848239
5.135907021693225
5.129752549528216
5.172833854683229
5.474402990768261
5.7328908216983105
5.84367132066832
5.899061570153325
5.929833930978346
5.991378652628332
6.0036875969583505
5.991378652628332
5.98522418046335
5.972915236133329
5.948297347473347
5.929833930978346
5.911370514483344
5.892907097988342
5.868289209328331
5.84367132066832
5.825207904173318
5.812898959843329
5.7944355433483254
5.757508710358322
5.7328908216983105
5.7082729330383
5.702118460873318
5.6898095165432965
5.720581877368319
5.775972126853325
5.84982579283333
5.899061570153325
5.83751684850331
5.695963988708308
5.548256656748296
5.449785102108279
5.351313547468262
5.425167213448267
5.443630629943269
5.431321685613277
5.419012741283257
5.4005493247882566
5.382085908293255
5.345159075303252
5.326695658808251
5.31438671447826
5.302077770148239
5.289768825818246
5.271305409323245
5.265150937158236
5.246687520663237
5.2220696320032225
5.2220696320032225
5.209760687673231
5.19129727117823
5.172833854683229
5.160524910353237
5.148215966023217
5.123598077363234
5.105134660868233
5.105134660868233
5.086671244373231
5.080516772208221
5.068207827878203
5.0497444113832
5.0312809948882
5.012817578393197
5.000508634063205
4.994354161898196
4.982045217568204
4.975890745403193
4.957427328908192
4.951272856743211
4.945118384578201
4.92050049591819
4.91434602375318
4.895882607258178
4.877419190763177
4.877419190763177
4.8528013021031935
4.840492357773174
4.834337885608192
4.797411052618189
4.785102108288171
4.766638691793168
4.7420208031331565
4.7420208031331565
4.723557386638154
4.686630553648152
4.397370361893111
3.9850207268380675
3.7142239515780275
3.511126370132983
3.3449556216779697
3.2095572340479492
3.092622262912931
2.9879962361079313
2.901833625797906
2.815671015487909
2.7418173495078744
2.680272627857888
2.618727906207874
2.5694921288878514
2.507947407237865
2.4648661020828517
2.409475852597848
2.3663945474428347
2.329467714452832
2.2925408814628288
2.261768520637808
2.224841687647805
2.194069326822812
2.175605910327811
2.1448335495027893
2.120215660842805
2.1079067165127863
2.083288827852803
2.070979883522784
2.052516467027782
2.0340530505327803
2.015589634037779
2.003280689707787
2.009435161872797
2.0217441062027888
2.0463619948628
2.1632969659978185
2.3971669082678284
3.0618499020879373
4.2065817247780855
4.877419190763177
5.0312809948882
5.098980188703223
5.185142799013221
5.265150937158236
5.308232242313249
5.326695658808251
5.33285013097326
5.320541186643241
5.320541186643241
5.31438671447826
5.31438671447826
5.31438671447826
5.308232242313249
5.302077770148239
5.295923297983257
5.277459881488257
5.265150937158236
5.252841992828244
5.246687520663237
5.234378576333243
5.228224104168233
5.209760687673231
5.19745174334324
5.172833854683229
5.178988326848239
5.172833854683229
5.154370438188227
5.129752549528216
5.0497444113832
5.129752549528216
5.111289133033214
5.080516772208221
5.0743623000432105
5.068207827878203
5.05589888354821
5.05589888354821
5.037435467053208
5.025126522723218
5.018972050558207
4.994354161898196
4.994354161898196
4.975890745403193
4.963581801073202
4.957427328908192
4.932809440248209
4.932809440248209
4.91434602375318
4.908191551588198
4.895882607258178
4.889728135093197
4.877419190763177
4.8651102464331855
4.8651102464331855
4.846646829938186
4.828183413443182
4.822028941278172
4.809719996948181
4.809719996948181
4.803565524783171
4.7912565804531795
4.797411052618189
4.7912565804531795
4.772793163958178
4.760484219628157
4.760484219628157
4.7420208031331565
4.735866330968175
4.723557386638154
4.717402914473172
4.705093970143154
4.686630553648152
4.67432160931816
4.668167137153151
4.662012664988168
4.649703720658149
4.637394776328158
4.631240304163148
4.625085831998166
4.618931359833156
4.612776887668146
4.6004679433381535
4.5943134711731455
4.5820045268431535
4.569695582513134
4.569695582513134
4.557386638183142
4.551232166018132
4.54507769385315
4.538923221688139
4.538923221688139
4.520459805193139
4.514305333028129
4.501996388698137
4.483532972203136
4.471224027873144
4.483532972203136
4.501996388698137
4.551232166018132
4.612776887668146
4.692785025813162
4.686630553648152
4.520459805193139
4.292744335088111
4.040410976323072
3.874240227868059
3.7757686732280415
3.732687368073029
3.720378423743037
3.7142239515780275
3.609597924773
3.548053203123014
3.5849800361130173
3.5234353144630024
3.449581648482997
3.381882454667973
3.3203377330179586
3.271101955697964
3.221866178377941
3.178784873222956
3.160321456727955
3.1357035680679433
3.1295490959029335
3.117240151572942
3.1295490959029335
3.160321456727955
3.1726304010579467
3.2034027618829395
3.234175122707961
3.2403295948729705
3.234175122707961
3.234175122707961
3.283410900027955
3.3511100938429803
3.394191398997992
3.437272704152977
3.418809287657976
3.375727982502963
3.3141832608529764
3.264947483532954
3.2095572340479492
3.154166984562945
3.1049312072429505
3.0618499020879373
3.0310775412629165
2.981841763942921
2.944914930952919
2.9141425701278982
2.8895246814679143
2.8525978484779113
2.797207598992907
2.704890516517872
2.7848986546628876
2.797207598992907
2.778744182497905
2.772589710332896
2.760280766002876
2.735662877342893
2.729508405177883
2.747971821672884
2.766435238167886
2.7910531268278973
2.797207598992907
2.8095165433228986
2.815671015487909
2.821825487652891
2.8279799598179
2.8402889041478923
2.8525978484779113
2.858752320642893
2.877215737137895
2.895679153632896
2.901833625797906
2.9202970422929075
2.9510694031179288
2.9879962361079313
3.055695429922928
3.0864677907479487
3.0987767350779407
3.0987767350779407
3.074158846417929
3.0618499020879373
3.074158846417929
3.0864677907479487
3.092622262912931
3.1110856794079322
3.1295490959029335
3.1357035680679433
3.1480125123979352
3.154166984562945
3.1726304010579467
3.191093817552948
3.215711706212959
3.2464840670379527
3.277256427862973
3.289565372192965
3.3264922051829684
3.357264566007961
3.3880369268329824
3.4311182319879947
3.48035400930799
3.541898730958004
3.5972889804430093
3.6649881742580046
3.732687368073029
3.7757686732280415
3.8188499783830263
3.8496223392080475
3.886549172198051
3.8927036443630603
3.905012588693053
3.9173215330230438
3.9234760051880535
3.9357849495180455
3.9296304773530633
3.9234760051880535
3.8927036443630603
3.855776811373057
3.837313394878028
3.825004450548036
3.7757686732280415
3.7449963124030208
3.732687368073029
3.7449963124030208
3.7449963124030208
3.7449963124030208
3.7449963124030208
3.75730525673304
3.763459728898022
3.781923145393024
3.788077617558033
3.7942320897230433
3.788077617558033
3.7942320897230433
3.7942320897230433
3.800386561888025
3.8126955062180454
3.825004450548036
3.825004450548036
3.831158922713046
3.843467867043037
3.8496223392080475
3.837313394878028
3.843467867043037
3.855776811373057
3.8619312835380395
3.8619312835380395
3.855776811373057
3.8496223392080475
3.843467867043037
3.837313394878028
3.837313394878028
3.831158922713046
3.843467867043037
3.843467867043037
3.8496223392080475
3.8680857557030492
3.8803947000330408
3.886549172198051
3.886549172198051
3.886549172198051
3.8927036443630603
3.8988581165280416
3.8988581165280416
3.8988581165280416
3.905012588693053
3.9173215330230438
3.9111670608580615
3.9173215330230438
3.9173215330230438
3.9296304773530633
3.9296304773530633
3.9234760051880535
3.8619312835380395
3.9542483660130467
3.9542483660130467
3.948093893848065
3.9604028381780574
3.9665573103430645
3.9788662546730578
3.9973296711680604
3.9973296711680604
3.9973296711680604
3.9911751990030497
3.9973296711680604
3.9911751990030497
3.9911751990030497
3.9850207268380675
3.9727117825080467
3.9727117825080467
3.9665573103430645
3.9604028381780574
3.9788662546730578
3.9850207268380675
4.021947559828071
4.0711833371480655
4.138882530963089
4.218890669108104
4.27428091859311
4.231199613438097
4.108110170138069
4.003484143333068
3.948093893848065
3.9111670608580615
3.905012588693053
3.9173215330230438
3.9357849495180455
3.948093893848065
3.9604028381780574
3.9850207268380675
4.015793087663061
4.021947559828071
4.0465654484880815
4.089646753643067
4.077337809313075
4.052719920653064
4.0465654484880815
4.065028864983084
4.095801225808079
4.138882530963089
4.200427252613103
4.169654891788083
4.151191475293081
4.169654891788083
4.169654891788083
4.163500419623101
4.120419114468088
4.108110170138069
4.108110170138069
4.083492281478085
4.065028864983084
4.040410976323072
4.015793087663061
4.028102031993082
4.040410976323072
4.0465654484880815
4.0465654484880815
4.015793087663061
3.9727117825080467
3.9542483660130467
3.9419394216830552
3.9419394216830552
3.9296304773530633
3.9173215330230438
3.8927036443630603
3.8803947000330408
3.874240227868059
3.8680857557030492
3.855776811373057
3.831158922713046
3.8188499783830263
3.8065410340530352
3.788077617558033
3.75115078456803
3.75115078456803
3.738841840238039
3.7142239515780275
3.701915007248036
3.677297118588024
3.658833702093023
3.677297118588024
3.695760535083026
3.7142239515780275
3.720378423743037
3.720378423743037
3.7265328959080186
3.7449963124030208
3.75115078456803
3.75115078456803
3.738841840238039
3.7449963124030208
3.7449963124030208
3.75730525673304
3.7449963124030208
3.7449963124030208
3.738841840238039
3.720378423743037
3.7265328959080186
3.7265328959080186
3.7265328959080186
3.720378423743037
3.7080694794130173
3.6896060629180156
3.671142646423015
3.658833702093023
3.640370285598021
3.6219068691030203
3.5972889804430093
3.591134508277999
3.6034434526080172
3.609597924773
3.591134508277999
3.572671091782997
3.548053203123014
3.5172808422979926
3.412654815492993
3.48035400930799
3.48035400930799
3.4557361206479786
3.437272704152977
3.406500343327984
3.3449556216779697
3.3388011495129604
3.3141832608529764
3.3141832608529764
3.308028788687967
3.283410900027955
3.2403295948729705
3.184939345387937
3.1357035680679433
3.1049312072429505
3.080313318582939
3.055695429922928
3.0310775412629165
3.0126141247679152
2.9879962361079313
2.96953281961293
2.9387604587879093
2.9264515144579173
2.907988097962916
2.8895246814679143
2.883370209302905
2.883370209302905
2.883370209302905
2.8095165433228986
2.766435238167886
2.858752320642893
2.871061264972913
2.8895246814679143
2.901833625797906
2.9572238752829105
3.043386485592936
3.043386485592936
3.1357035680679433
3.61575239693801
3.788077617558033
4.077337809313075
4.083492281478085
4.015793087663061
3.905012588693053
3.7757686732280415
3.695760535083026
3.671142646423015
3.671142646423015
3.7265328959080186
3.8126955062180454
3.701915007248036
3.609597924773
3.6465247577630033
3.7449963124030208
3.8988581165280416
4.021947559828071
4.089646753643067
4.52661427735815
4.975890745403193
5.160524910353237
5.505175351593283
6.336029093868436
6.532972203148468
6.54528114747846
6.557590091808479
6.539126675313478
6.526817730983458
6.502199842323475
6.496045370158464
6.489890897993456
6.471427481498454
6.446809592838443
6.42834617634344
6.40988275984844
6.372955926858436
6.348338038198453
6.323720149538442
6.311411205208422
6.280638844383374
6.25602095572339
6.237557539228389
6.200630706238385
6.176012817578375
6.151394928918363
6.132931512423362
6.108313623763351
6.077541262938357
6.052923374278346
6.034459957783346
6.009842069123361
5.97906970829834
5.954451819638329
5.935988403143328
5.911370514483344
5.892907097988342
5.862134737163322
5.825207904173318
5.800590015513308
5.788281071183316
5.782126599018308
5.806744487678317
5.8559802649983395
5.929833930978346
5.972915236133329
5.929833930978346
5.800590015513308
5.6590371557183055
5.572874545408279
5.535947712418277
5.517484295923275
5.505175351593283
5.480557462933272
5.462094046438272
5.388240380458265
4.963581801073202
4.520459805193139
4.249663029933098
4.040410976323072
3.874240227868059
3.7265328959080186
3.572671091782997
3.394191398997992
3.375727982502963
3.277256427862973
3.215711706212959
3.1480125123979352
3.074158846417929
3.0126141247679152
2.9572238752829105
2.895679153632896
2.8464433763129016
2.7910531268278973
2.754126293837894
2.723353933012873
2.68642710002287
2.649500267032867
2.6064189618778553
2.581801073217871
2.538719768062857
2.520256351567857
2.471020574247862
2.4217847969278394
2.372549019607845
2.335622186617841
2.298695353627811
2.261768520637808
2.2309961598128147
2.2186872154828228
2.2063782711528033
2.187914854657802
2.1632969659978185
2.1263701330077875
2.0955977721827947
2.070979883522784
2.04020752269779
2.0217441062027888
1.9971262175427773
1.9786628010477763
1.9601993845527748
1.9478904402227823
1.9417359680577726
1.9232725515627715
1.91096360723278
1.89865466290276
1.8863457185727683
1.8740367742427766
1.8801912464077586
1.8801912464077586
1.892500190737778
1.892500190737778
1.89865466290276
1.9171180793977614
1.9232725515627715
1.9294270237277809
1.9478904402227823
1.954044912387765
1.972508328882766
1.9786628010477763
1.990971745377768
2.015589634037779
2.0217441062027888
2.0340530505327803
2.04020752269779
2.0340530505327803
2.052516467027782
2.064825411357801
2.083288827852803
2.1017522443478045
2.138679077337807
2.1632969659978185
2.1817603824928202
2.212532743317813
2.2371506319778245
2.249459576307816
2.2679229928028177
2.2740774649678275
2.286386409297819
2.304849825792821
2.335622186617841
2.360240075277825
2.372549019607845
2.3848579639378364
2.4217847969278394
2.4525571577528327
2.4648661020828517
2.471020574247862
2.477175046412844
2.4894839907428636
2.483329518577854
2.483329518577854
2.495638462907845
2.501792935072855
2.5141018794028467
2.520256351567857
2.5325652958978484
2.563337656722869
2.600264489712873
2.624882378372884
2.649500267032867
2.674118155692878
2.6925815721878803
2.7171994608478913
2.7418173495078744
2.772589710332896
2.778744182497905
2.815671015487909
2.8649067928079033
2.895679153632896
2.9264515144579173
2.9387604587879093
2.9572238752829105
2.96953281961293
2.9879962361079313
3.0003051804379233
3.018768596932925
3.037232013427927
3.049540957757918
3.0618499020879373
3.0618499020879373
3.0680043742529195
3.0680043742529195
3.074158846417929
3.0680043742529195
3.0003051804379233
3.1049312072429505
3.1357035680679433
3.141858040232953
3.141858040232953
3.1233946237379517
3.1357035680679433
3.160321456727955
3.1726304010579467
3.191093817552948
3.2034027618829395
3.2403295948729705
3.271101955697964
3.289565372192965
3.3203377330179586
3.3264922051829684
3.3388011495129604
3.357264566007961
3.3880369268329824
3.424963759822985
3.449581648482997
3.4741995371429804
3.504971897968001
3.5357442587929944
3.560362147453006
3.5665166196180156
3.5849800361130173
3.5972889804430093
3.6034434526080172
3.6219068691030203
3.6280613412680016
3.634215813433012
3.640370285598021
3.640370285598021
3.634215813433012
3.640370285598021
3.6219068691030203
3.6219068691030203
3.6280613412680016
3.640370285598021
3.658833702093023
3.6896060629180156
3.7080694794130173
3.720378423743037
3.732687368073029
3.732687368073029
3.7449963124030208
3.75730525673304
3.7757686732280415
3.781923145393024
3.788077617558033
3.800386561888025
3.781923145393024
3.788077617558033
3.800386561888025
3.8188499783830263
3.8803947000330408
3.9727117825080467
4.065028864983084
4.1327280587980795
4.065028864983084
3.9357849495180455
3.8496223392080475
3.825004450548036
3.831158922713046
3.855776811373057
3.8927036443630603
3.9173215330230438
3.9357849495180455
3.9665573103430645
4.015793087663061
4.0711833371480655
4.1327280587980795
4.212736196943095
4.237354085603107
4.261971974263091
4.2681264464281
4.27428091859311
4.2681264464281
4.2681264464281
4.261971974263091
4.255817502098108
4.2681264464281
4.261971974263091
4.261971974263091
4.2681264464281
4.27428091859311
4.2865898629231
4.298898807253093
4.305053279418103
4.3112077515831135
4.3112077515831135
4.3173622237481215
4.329671168078114
4.335825640243124
4.366598001068117
4.397370361893111
4.40967930622313
4.40967930622313
4.348134584573115
4.3173622237481215
4.415833778388112
4.421988250553122
4.434297194883113
4.434297194883113
4.440451667048122
4.452760611378115
4.452760611378115
4.477378500038126
4.501996388698137
4.514305333028129
4.538923221688139
4.538923221688139
4.54507769385315
4.551232166018132
4.551232166018132
4.551232166018132
4.54507769385315
4.5327687495231315
4.514305333028129
4.501996388698137
4.471224027873144
4.385061417563119
4.446606139213133
4.471224027873144
4.477378500038126
4.471224027873144
4.458915083543125
4.440451667048122
4.421988250553122
4.421988250553122
4.428142722718132
4.440451667048122
4.471224027873144
4.489687444368147
4.501996388698137
4.538923221688139
4.575850054678144
4.5943134711731455
4.588158999008135
4.606622415503137
4.618931359833156
4.631240304163148
4.631240304163148
4.649703720658149
4.6435492484931675
4.631240304163148
4.606622415503137
4.5820045268431535
4.563541110348153
4.551232166018132
4.52661427735815
4.557386638183142
4.5820045268431535
4.588158999008135
4.569695582513134
4.520459805193139
4.471224027873144
4.440451667048122
4.428142722718132
4.434297194883113
4.458915083543125
4.483532972203136
4.520459805193139
4.5820045268431535
4.618931359833156
4.649703720658149
4.662012664988168
4.668167137153151
4.692785025813162
4.711248442308165
4.754329747463175
4.760484219628157
4.772793163958178
4.748175275298167
4.711248442308165
4.68047608148317
4.649703720658149
4.6004679433381535
4.563541110348153
4.520459805193139
4.489687444368147
4.465069555708134
4.458915083543125
4.440451667048122
4.428142722718132
4.421988250553122
4.415833778388112
4.40967930622313
4.40352483405812
4.40967930622313
4.415833778388112
4.415833778388112
4.397370361893111
4.40967930622313
4.415833778388112
4.40967930622313
4.415833778388112
4.428142722718132
4.446606139213133
4.458915083543125
4.489687444368147
4.557386638183142
4.7297118588031655
5.062053355713221
5.499020879428274
6.3544925103634355
7.277663335113566
7.573077999033617
7.585386943363609
7.579232471198627
7.560769054703599
7.529996693878605
7.511533277383603
7.4807609165586095
7.443834083568606
7.413061722743586
7.376134889753583
7.3576714732585815
7.33920805676358
7.308435695938586
7.265354390783574
7.234582029958553
7.19765519696855
7.154573891813565
7.117647058823563
7.086874697998541
7.049947865008538
7.006866559853525
6.976094199028532
6.933012893873519
6.896086060883515
6.859159227893513
6.8345413392335015
6.797614506243499
6.760687673253496
6.736069784593486
6.6991429516034815
6.662216118613479
6.631443757788486
6.588362452633473
6.557590091808479
6.526817730983458
6.477581953663464
6.379110399023446
6.434500648508451
6.40988275984844
6.379110399023446
6.336029093868436
6.299102260878375
6.274484372218392
6.243712011393371
6.212939650568378
6.194476234073376
6.169858345413365
6.163703873248383
6.176012817578375
6.2252485948983685
6.280638844383374
6.299102260878375
6.231403067063379
6.077541262938357
5.948297347473347
5.8805981536583225
5.831362376338328
5.81905343200831
5.806744487678317
5.806744487678317
5.812898959843329
5.7944355433483254
5.775972126853325
5.751354238193313
5.714427405203311
5.702118460873318
5.683655044378289
5.665191627883287
5.634419267058294
5.615955850563292
5.597492434068291
5.572874545408279
5.554411128913278
5.542102184583286
5.511329823758264
5.499020879428274
5.480557462933272
5.462094046438272
5.443630629943269
5.425167213448267
5.406703796953265
5.4005493247882566
5.382085908293255
5.357468019633243
5.351313547468262
5.33285013097326
5.320541186643241
5.289768825818246
5.277459881488257
5.258996464993254
5.252841992828244
5.2405330484982535
5.2220696320032225
5.209760687673231
5.19745174334324
5.178988326848239
5.166679382518219
5.154370438188227
5.135907021693225
5.117443605198224
5.111289133033214
5.105134660868233
5.086671244373231
5.0743623000432105
5.068207827878203
5.0497444113832
5.037435467053208
5.0312809948882
5.018972050558207
5.000508634063205
4.9881996897332135
4.969736273238212
4.963581801073202
4.957427328908192
4.945118384578201
4.951272856743211
4.93896391241319
4.9266549680832
4.91434602375318
4.902037079423188
4.895882607258178
4.895882607258178
4.883573662928187
4.877419190763177
4.8651102464331855
4.8528013021031935
4.846646829938186
4.828183413443182
4.81587446911319
4.797411052618189
4.7912565804531795
4.785102108288171
4.772793163958178
4.754329747463175
4.7420208031331565
4.7297118588031655
4.7297118588031655
4.717402914473172
4.705093970143154
4.705093970143154
4.698939497978172
4.68047608148317
4.67432160931816
4.662012664988168
4.655858192823159
4.6435492484931675
4.631240304163148
4.631240304163148
4.625085831998166
4.618931359833156
4.606622415503137
4.5943134711731455
4.6004679433381535
4.588158999008135
4.5820045268431535
4.575850054678144
4.575850054678144
4.551232166018132
4.471224027873144
4.563541110348153
4.563541110348153
4.557386638183142
4.551232166018132
4.54507769385315
4.538923221688139
4.5327687495231315
4.501996388698137
4.489687444368147
4.501996388698137
4.495841916533129
4.483532972203136
4.489687444368147
4.483532972203136
4.477378500038126
4.471224027873144
4.465069555708134
4.458915083543125
4.465069555708134
4.458915083543125
4.452760611378115
4.446606139213133
4.434297194883113
4.434297194883113
4.434297194883113
4.421988250553122
4.421988250553122
4.40967930622313
4.415833778388112
4.40352483405812
4.397370361893111
4.397370361893111
4.397370361893111
4.397370361893111
4.385061417563119
4.37890694539811
4.37890694539811
4.3727524732331275
4.3727524732331275
4.360443528903107
4.366598001068117
4.360443528903107
4.360443528903107
4.354289056738125
4.354289056738125
4.341980112408105
4.292744335088111
4.249663029933098
4.341980112408105
4.348134584573115
4.341980112408105
4.329671168078114
4.329671168078114
4.329671168078114
4.3112077515831135
4.305053279418103
4.323516695913104
4.3173622237481215
4.323516695913104
4.3112077515831135
4.3112077515831135
4.3112077515831135
4.298898807253093
4.305053279418103
4.298898807253093
4.292744335088111
4.305053279418103
4.298898807253093
4.2865898629231
4.280435390758093
4.27428091859311
4.280435390758093
4.280435390758093
4.27428091859311
4.27428091859311
4.280435390758093
4.280435390758093
4.2681264464281
4.261971974263091
4.261971974263091
4.261971974263091
4.255817502098108
4.261971974263091
4.255817502098108
4.249663029933098
4.243508557768089
4.249663029933098
4.243508557768089
4.237354085603107
4.231199613438097
4.231199613438097
4.237354085603107
4.243508557768089
4.2865898629231
4.348134584573115
4.428142722718132
4.489687444368147
4.458915083543125
4.354289056738125
4.237354085603107
4.1758093639530935
4.138882530963089
4.145037003128072
4.163500419623101
4.181963836118102
4.1942727804480935
4.2065817247780855
4.2065817247780855
4.2065817247780855
4.1942727804480935
4.200427252613103
4.200427252613103
4.1942727804480935
4.1942727804480935
4.1942727804480935
4.1942727804480935
4.188118308283084
4.181963836118102
4.1942727804480935
4.1942727804480935
4.169654891788083
4.101955697973087
4.2065817247780855
4.212736196943095
4.1942727804480935
4.169654891788083
4.181963836118102
4.181963836118102
4.181963836118102
4.188118308283084
4.188118308283084
4.188118308283084
4.1758093639530935
4.1758093639530935
4.1758093639530935
4.181963836118102
4.181963836118102
4.181963836118102
4.181963836118102
4.1758093639530935
4.1758093639530935
4.169654891788083
4.169654891788083
4.169654891788083
4.163500419623101
4.163500419623101
4.163500419623101
4.169654891788083
4.151191475293081
4.151191475293081
4.157345947458091
4.163500419623101
4.163500419623101
4.151191475293081
4.151191475293081
4.157345947458091
4.157345947458091
4.157345947458091
4.157345947458091
4.157345947458091
4.169654891788083
4.169654891788083
4.163500419623101
4.169654891788083
4.169654891788083
4.1758093639530935
4.1758093639530935
4.181963836118102
4.188118308283084
4.188118308283084
4.181963836118102
4.181963836118102
4.1758093639530935
4.1758093639530935
4.1758093639530935
4.1758093639530935
4.163500419623101
4.163500419623101
4.169654891788083
4.163500419623101
4.151191475293081
4.157345947458091
4.151191475293081
4.157345947458091
4.151191475293081
4.157345947458091
4.151191475293081
4.151191475293081
4.145037003128072
4.151191475293081
4.151191475293081
4.145037003128072
4.145037003128072
4.145037003128072
4.151191475293081
4.138882530963089
4.145037003128072
4.138882530963089
4.138882530963089
4.138882530963089
4.138882530963089
4.138882530963089
4.138882530963089
4.1327280587980795
4.1327280587980795
4.1327280587980795
4.1327280587980795
4.138882530963089
4.1327280587980795
4.138882530963089
4.1327280587980795
4.1327280587980795
4.12657358663307
4.12657358663307
4.1327280587980795
4.12657358663307
4.12657358663307
4.12657358663307
4.1327280587980795
4.1327280587980795
4.1327280587980795
4.1327280587980795
4.12657358663307
4.1327280587980795
4.12657358663307
4.1327280587980795
4.12657358663307
4.120419114468088
4.1327280587980795
4.1327280587980795
4.12657358663307
4.12657358663307
4.1327280587980795
4.12657358663307
4.12657358663307
4.12657358663307
4.1327280587980795
4.12657358663307
4.1327280587980795
4.1327280587980795
4.1327280587980795
4.1327280587980795
4.108110170138069
4.028102031993082
4.1327280587980795
4.138882530963089
4.1327280587980795
4.138882530963089
4.138882530963089
4.1327280587980795
4.120419114468088
4.108110170138069
4.114264642303079
4.120419114468088
4.120419114468088
4.120419114468088
4.114264642303079
4.114264642303079
4.120419114468088
4.120419114468088
4.120419114468088
4.120419114468088
4.12657358663307
4.120419114468088
4.12657358663307
4.138882530963089
4.1327280587980795
4.145037003128072
4.145037003128072
4.145037003128072
4.145037003128072
4.151191475293081
4.138882530963089
4.138882530963089
4.1327280587980795
4.1327280587980795
4.138882530963089
4.12657358663307
4.12657358663307
4.12657358663307
4.12657358663307
4.120419114468088
4.120419114468088
4.1327280587980795
4.1327280587980795
4.1327280587980795
4.138882530963089
4.12657358663307
4.1327280587980795
4.12657358663307
4.12657358663307
4.12657358663307
4.1327280587980795
4.1327280587980795
4.1327280587980795
4.138882530963089
4.138882530963089
4.138882530963089
4.12657358663307
4.12657358663307
4.120419114468088
4.114264642303079
4.1327280587980795
4.157345947458091
4.225045141273086
4.298898807253093
4.385061417563119
4.428142722718132
4.360443528903107
4.218890669108104
4.120419114468088
4.089646753643067
4.077337809313075
4.083492281478085
4.101955697973087
4.114264642303079
4.12657358663307
4.12657358663307
4.120419114468088
4.12657358663307
4.120419114468088
4.12657358663307
4.120419114468088
4.12657358663307
4.1327280587980795
4.1327280587980795
4.1327280587980795
4.12657358663307
4.12657358663307
4.120419114468088
4.1327280587980795
4.12657358663307
4.1327280587980795
4.1327280587980795
4.1327280587980795
4.1327280587980795
4.138882530963089
4.1327280587980795
4.138882530963089
4.1327280587980795
4.138882530963089
4.138882530963089
4.145037003128072
4.138882530963089
4.145037003128072
4.1327280587980795
4.145037003128072
4.151191475293081
4.138882530963089
4.138882530963089
4.145037003128072
4.138882530963089
4.157345947458091
4.145037003128072
4.1327280587980795
4.12657358663307
4.1327280587980795
4.1327280587980795
4.138882530963089
4.138882530963089
4.095801225808079
4.028102031993082
4.12657358663307
4.12657358663307
4.089646753643067
3.905012588693053
3.720378423743037
3.541898730958004
3.418809287657976
3.3388011495129604
3.3203377330179586
3.2957198443579747
3.258793011367972
3.234175122707961
3.2034027618829395
3.191093817552948
3.197248289717957
3.197248289717957
3.191093817552948
3.178784873222956
3.166475928892937
3.154166984562945
3.1480125123979352
3.154166984562945
3.166475928892937
3.1726304010579467
3.191093817552948
3.2095572340479492
3.2095572340479492
3.215711706212959
3.221866178377941
3.234175122707961
3.2280206505429514
3.2464840670379527
3.2464840670379527
3.264947483532954
3.271101955697964
3.271101955697964
3.271101955697964
3.277256427862973
3.2957198443579747
3.308028788687967
3.3141832608529764
3.3141832608529764
3.3264922051829684
3.332646677347978
3.332646677347978
3.3388011495129604
3.332646677347978
3.3203377330179586
3.3264922051829684
3.3264922051829684
3.332646677347978
3.3449556216779697
3.3511100938429803
3.3511100938429803
3.363419038172971
3.375727982502963
3.394191398997992
3.406500343327984
3.406500343327984
3.424963759822985
3.437272704152977
3.437272704152977
3.449581648482997
3.4618905928129893
3.468045064977998
3.468045064977998
3.48035400930799
3.4988174258029914
3.511126370132983
3.5172808422979926
3.541898730958004
3.560362147453006
3.572671091782997
3.591134508277999
3.5849800361130173
3.578825563948007
3.6034434526080172
3.609597924773
3.640370285598021
3.6465247577630033
3.6896060629180156
3.7080694794130173
3.720378423743037
3.75115078456803
3.781923145393024
3.800386561888025
3.831158922713046
3.8803947000330408
4.163500419623101
4.692785025813162
4.846646829938186
4.8651102464331855
4.8651102464331855
4.871264718598195
4.8651102464331855
4.8651102464331855
4.871264718598195
4.8651102464331855
4.8528013021031935
4.8528013021031935
4.840492357773174
4.822028941278172
4.822028941278172
4.81587446911319
4.81587446911319
4.803565524783171
4.797411052618189
4.785102108288171
4.778947636123188
4.766638691793168
4.772793163958178
4.754329747463175
4.754329747463175
4.7420208031331565
4.735866330968175
4.735866330968175
4.735866330968175
4.735866330968175
4.7297118588031655
4.711248442308165
4.698939497978172
4.698939497978172
4.686630553648152
4.68047608148317
4.637394776328158
4.563541110348153
4.649703720658149
4.649703720658149
4.637394776328158
4.631240304163148
4.625085831998166
4.612776887668146
4.588158999008135
4.588158999008135
4.5943134711731455
4.5820045268431535
4.575850054678144
4.569695582513134
4.563541110348153
4.557386638183142
4.557386638183142
4.551232166018132
4.54507769385315
4.538923221688139
4.5327687495231315
4.5327687495231315
4.52661427735815
4.508150860863147
4.508150860863147
4.495841916533129
4.489687444368147
4.483532972203136
4.489687444368147
4.508150860863147
4.569695582513134
4.631240304163148
4.711248442308165
4.748175275298167
4.655858192823159
4.520459805193139
4.421988250553122
4.37890694539811
4.360443528903107
4.360443528903107
4.391215889728128
4.40352483405812
4.40352483405812
4.40967930622313
4.397370361893111
4.40352483405812
4.397370361893111
4.391215889728128
4.391215889728128
4.37890694539811
4.385061417563119
4.37890694539811
4.37890694539811
4.3727524732331275
4.366598001068117
4.360443528903107
4.366598001068117
4.360443528903107
4.366598001068117
4.360443528903107
4.354289056738125
4.354289056738125
4.348134584573115
4.341980112408105
4.341980112408105
4.348134584573115
4.335825640243124
4.341980112408105
4.335825640243124
4.335825640243124
4.329671168078114
4.3173622237481215
4.323516695913104
4.323516695913104
4.3112077515831135
4.305053279418103
4.3112077515831135
4.305053279418103
4.3112077515831135
4.298898807253093
4.292744335088111
4.292744335088111
4.2865898629231
4.292744335088111
4.280435390758093
4.280435390758093
4.280435390758093
4.27428091859311
4.27428091859311
4.27428091859311
4.2681264464281
4.2681264464281
4.27428091859311
4.27428091859311
4.261971974263091
4.27428091859311
4.27428091859311
4.2681264464281
4.2681264464281
4.2681264464281
4.27428091859311
4.27428091859311
4.261971974263091
4.27428091859311
4.27428091859311
4.27428091859311
4.27428091859311
4.280435390758093
4.27428091859311
4.280435390758093
4.2681264464281
4.27428091859311
4.2681264464281
4.27428091859311
4.261971974263091
4.255817502098108
4.255817502098108
4.255817502098108
4.237354085603107
4.243508557768089
4.237354085603107
4.237354085603107
4.218890669108104
4.145037003128072
4.237354085603107
4.237354085603107
4.218890669108104
4.225045141273086
4.218890669108104
4.218890669108104
4.225045141273086
4.218890669108104
4.212736196943095
4.2065817247780855
4.2065817247780855
4.212736196943095
4.218890669108104
4.212736196943095
4.2065817247780855
4.2065817247780855
4.2065817247780855
4.1942727804480935
4.2065817247780855
4.2065817247780855
4.200427252613103
4.1942727804480935
4.200427252613103
4.1942727804480935
4.200427252613103
4.188118308283084
4.188118308283084
4.188118308283084
4.188118308283084
4.181963836118102
4.181963836118102
4.181963836118102
4.163500419623101
4.151191475293081
4.145037003128072
4.101955697973087
3.9911751990030497
3.788077617558033
3.652679229928013
3.591134508277999
3.548053203123014
3.486508481473
3.4557361206479786
3.4311182319879947
3.412654815492993
3.394191398997992
3.375727982502963
3.375727982502963
3.3695735103379807
3.3695735103379807
3.3511100938429803
3.3388011495129604
3.3141832608529764
3.301874316522957
3.301874316522957
3.289565372192965
3.283410900027955
3.289565372192965
3.308028788687967
3.308028788687967
3.308028788687967
3.2957198443579747
3.2957198443579747
3.308028788687967
3.289565372192965
3.215711706212959
3.3203377330179586
3.332646677347978
3.3264922051829684
3.3449556216779697
3.363419038172971
3.363419038172971
3.3695735103379807
3.394191398997992
3.449581648482997
3.4988174258029914
3.541898730958004
3.6034434526080172
3.658833702093023
3.677297118588024
3.658833702093023
3.7080694794130173
3.7942320897230433
3.7942320897230433
3.905012588693053
4.120419114468088
4.231199613438097
4.298898807253093
4.335825640243124
4.354289056738125
4.391215889728128
4.483532972203136
4.514305333028129
4.5327687495231315
4.5327687495231315
4.52661427735815
4.52661427735815
4.5327687495231315
4.5327687495231315
4.52661427735815
4.520459805193139
4.520459805193139
4.520459805193139
4.508150860863147
4.501996388698137
4.508150860863147
4.501996388698137
4.495841916533129
4.489687444368147
4.483532972203136
4.483532972203136
4.489687444368147
4.508150860863147
4.557386638183142
4.625085831998166
4.698939497978172
4.717402914473172
4.637394776328158
4.514305333028129
4.421988250553122
4.354289056738125
4.27428091859311
4.3727524732331275
4.397370361893111
