3.5542076752879965
3.5849800361130173
3.677297118588024
3.640370285598021
3.652679229928013
3.6219068691030203
3.6465247577630033
4.188118308283084
5.394394852623274
3.695760535083026
3.8126955062180454
3.7449963124030208
3.7080694794130173
3.8065410340530352
3.0003051804379233
2.070979883522784
3.4988174258029914
3.6834515907530063
3.640370285598021
3.701915007248036
3.652679229928013
3.6649881742580046
3.75730525673304
3.640370285598021
3.6219068691030203
3.677297118588024
3.671142646423015
3.781923145393024
3.6834515907530063
3.652679229928013
3.7142239515780275
3.548053203123014
3.677297118588024
3.6465247577630033
3.609597924773
3.6649881742580046
3.6834515907530063
3.7142239515780275
4.994354161898196
4.440451667048122
3.9296304773530633
3.8803947000330408
3.948093893848065
3.695760535083026
3.6834515907530063
3.2957198443579747
1.8001831082627426
3.141858040232953
3.572671091782997
3.578825563948007
3.5972889804430093
3.652679229928013
3.6034434526080172
3.541898730958004
3.548053203123014
3.0249230690979347
3.234175122707961
3.486508481473
3.424963759822985
3.511126370132983
3.5357442587929944
3.541898730958004
3.5172808422979926
3.5234353144630024
3.529589786627985
3.572671091782997
3.578825563948007
3.511126370132983
3.541898730958004
3.5542076752879965
3.486508481473
3.486508481473
3.541898730958004
3.560362147453006
3.4988174258029914
3.5665166196180156
3.529589786627985
3.5542076752879965
3.529589786627985
3.541898730958004
3.578825563948007
3.609597924773
3.720378423743037
3.652679229928013
3.5849800361130173
3.6649881742580046
3.658833702093023
3.591134508277999
3.591134508277999
3.5665166196180156
3.6465247577630033
3.5972889804430093
3.640370285598021
3.6896060629180156
3.6219068691030203
3.5972889804430093
3.6649881742580046
3.634215813433012
3.652679229928013
3.609597924773
3.5234353144630024
3.6896060629180156
3.800386561888025
3.5172808422979926
3.634215813433012
3.640370285598021
3.658833702093023
3.7142239515780275
3.7449963124030208
3.652679229928013
3.9542483660130467
3.7696142010630322
3.640370285598021
3.7265328959080186
3.7265328959080186
3.75115078456803
3.7265328959080186
3.634215813433012
3.671142646423015
3.6834515907530063
3.6465247577630033
3.6280613412680016
3.6280613412680016
3.609597924773
3.375727982502963
3.5357442587929944
3.6034434526080172
3.578825563948007
3.671142646423015
4.298898807253093
5.579029017573289
3.486508481473
2.0340530505327803
3.166475928892937
3.720378423743037
3.800386561888025
3.837313394878028
3.837313394878028
3.738841840238039
3.7757686732280415
3.7942320897230433
3.8065410340530352
3.781923145393024
3.7696142010630322
3.8126955062180454
3.701915007248036
3.6649881742580046
4.255817502098108
3.308028788687967
3.283410900027955
3.6034434526080172
3.6219068691030203
3.5172808422979926
3.671142646423015
3.6219068691030203
3.6280613412680016
3.6219068691030203
3.634215813433012
3.5665166196180156
3.578825563948007
3.6034434526080172
3.6034434526080172
3.671142646423015
3.6280613412680016
3.738841840238039
4.280435390758093
3.8188499783830263
3.6465247577630033
3.6649881742580046
3.6834515907530063
3.7080694794130173
3.6896060629180156
3.6280613412680016
3.671142646423015
3.658833702093023
3.652679229928013
3.695760535083026
3.652679229928013
3.412654815492993
3.2526385392029624
3.48035400930799
3.652679229928013
3.5542076752879965
3.5665166196180156
3.6280613412680016
3.658833702093023
3.6649881742580046
3.634215813433012
3.6465247577630033
3.695760535083026
3.701915007248036
3.837313394878028
4.108110170138069
4.157345947458091
3.8927036443630603
3.695760535083026
3.831158922713046
3.8496223392080475
3.7757686732280415
3.7942320897230433
3.788077617558033
3.7696142010630322
3.788077617558033
3.7757686732280415
3.9419394216830552
3.9111670608580615
3.529589786627985
3.800386561888025
4.1758093639530935
4.2681264464281
4.212736196943095
4.237354085603107
4.323516695913104
4.2681264464281
4.3112077515831135
4.27428091859311
4.360443528903107
4.3112077515831135
4.243508557768089
4.2681264464281
4.341980112408105
4.2865898629231
4.249663029933098
4.255817502098108
4.231199613438097
4.2681264464281
4.1942727804480935
4.329671168078114
4.2865898629231
4.243508557768089
4.323516695913104
4.397370361893111
4.335825640243124
4.452760611378115
4.477378500038126
4.3727524732331275
4.508150860863147
4.477378500038126
4.40352483405812
4.421988250553122
4.385061417563119
4.366598001068117
4.3112077515831135
4.366598001068117
4.255817502098108
4.243508557768089
4.249663029933098
4.003484143333068
4.083492281478085
4.305053279418103
4.225045141273086
4.8651102464331855
6.102159151598369
4.2065817247780855
4.292744335088111
4.218890669108104
4.138882530963089
2.680272627857888
3.1357035680679433
4.052719920653064
4.323516695913104
5.043589939218219
4.563541110348153
4.40352483405812
4.366598001068117
4.40352483405812
4.3112077515831135
4.385061417563119
4.458915083543125
4.440451667048122
4.40967930622313
4.452760611378115
4.520459805193139
4.5327687495231315
4.1942727804480935
3.8126955062180454
4.477378500038126
4.477378500038126
4.385061417563119
4.428142722718132
4.2681264464281
4.329671168078114
4.298898807253093
4.2865898629231
4.3173622237481215
4.280435390758093
4.249663029933098
4.2681264464281
4.428142722718132
4.2865898629231
4.261971974263091
4.2681264464281
4.255817502098108
4.218890669108104
4.249663029933098
4.2681264464281
4.255817502098108
4.145037003128072
4.237354085603107
4.2681264464281
4.2065817247780855
4.218890669108104
4.212736196943095
4.1758093639530935
4.292744335088111
4.231199613438097
4.255817502098108
4.243508557768089
4.218890669108104
4.2065817247780855
4.188118308283084
4.200427252613103
4.151191475293081
4.181963836118102
4.157345947458091
4.3112077515831135
4.618931359833156
4.157345947458091
4.151191475293081
4.225045141273086
4.12657358663307
4.163500419623101
4.1327280587980795
4.120419114468088
4.151191475293081
4.095801225808079
4.083492281478085
4.052719920653064
4.028102031993082
3.831158922713046
3.6649881742580046
3.9850207268380675
4.058874392818074
3.886549172198051
3.7080694794130173
3.6896060629180156
3.7080694794130173
3.6896060629180156
3.695760535083026
3.658833702093023
3.732687368073029
3.7696142010630322
3.677297118588024
3.8680857557030492
3.6649881742580046
3.720378423743037
3.75115078456803
3.652679229928013
3.671142646423015
3.6465247577630033
3.7142239515780275
5.160524910353237
4.551232166018132
4.151191475293081
3.886549172198051
3.855776811373057
3.8496223392080475
3.9419394216830552
3.6219068691030203
2.04020752269779
3.160321456727955
3.831158922713046
3.7942320897230433
3.8680857557030492
3.905012588693053
3.800386561888025
3.831158922713046
3.9111670608580615
3.8988581165280416
3.837313394878028
3.9357849495180455
4.021947559828071
3.8126955062180454
4.341980112408105
4.440451667048122
2.55102871239285
3.5849800361130173
3.7757686732280415
3.8496223392080475
3.831158922713046
3.825004450548036
3.8680857557030492
3.9296304773530633
3.825004450548036
3.800386561888025
3.61575239693801
3.7449963124030208
3.732687368073029
3.8065410340530352
3.738841840238039
3.7265328959080186
3.720378423743037
3.7942320897230433
3.781923145393024
3.763459728898022
3.6896060629180156
3.6834515907530063
3.732687368073029
3.701915007248036
3.652679229928013
3.7080694794130173
3.634215813433012
3.671142646423015
3.7449963124030208
3.701915007248036
3.634215813433012
3.720378423743037
3.720378423743037
3.658833702093023
3.763459728898022
3.677297118588024
3.738841840238039
3.7265328959080186
3.695760535083026
3.8065410340530352
3.781923145393024
3.843467867043037
3.855776811373057
3.874240227868059
3.9111670608580615
3.8803947000330408
3.837313394878028
3.825004450548036
3.9542483660130467
3.9850207268380675
4.0465654484880815
4.101955697973087
4.034256504158063
4.058874392818074
4.1758093639530935
4.089646753643067
4.231199613438097
4.231199613438097
4.225045141273086
4.2065817247780855
4.151191475293081
4.145037003128072
4.212736196943095
4.225045141273086
4.040410976323072
3.9111670608580615
4.0711833371480655
4.145037003128072
4.151191475293081
4.163500419623101
4.188118308283084
4.1327280587980795
4.114264642303079
4.1327280587980795
4.108110170138069
4.1327280587980795
4.151191475293081
4.145037003128072
4.237354085603107
4.157345947458091
4.108110170138069
4.138882530963089
4.120419114468088
4.0711833371480655
3.9850207268380675
3.9542483660130467
3.8988581165280416
3.9665573103430645
3.9173215330230438
4.003484143333068
3.9542483660130467
3.9357849495180455
3.75115078456803
3.7942320897230433
3.800386561888025
3.75730525673304
3.7142239515780275
3.695760535083026
3.6896060629180156
3.7265328959080186
3.671142646423015
3.738841840238039
3.7265328959080186
3.732687368073029
3.7265328959080186
3.837313394878028
3.8065410340530352
3.855776811373057
3.7757686732280415
3.9234760051880535
4.1942727804480935
4.231199613438097
4.188118308283084
4.298898807253093
4.261971974263091
4.200427252613103
4.3173622237481215
4.200427252613103
4.1758093639530935
4.243508557768089
4.68047608148317
5.634419267058294
4.754329747463175
4.385061417563119
3.948093893848065
2.409475852597848
3.732687368073029
4.2681264464281
4.280435390758093
4.231199613438097
4.298898807253093
4.280435390758093
4.2865898629231
4.255817502098108
4.292744335088111
4.151191475293081
4.181963836118102
4.181963836118102
4.163500419623101
4.181963836118102
4.231199613438097
4.218890669108104
4.181963836118102
4.151191475293081
4.163500419623101
4.157345947458091
4.200427252613103
4.028102031993082
3.9911751990030497
4.040410976323072
4.021947559828071
4.0711833371480655
4.040410976323072
3.9727117825080467
3.9973296711680604
3.9419394216830552
3.9973296711680604
3.8988581165280416
3.9173215330230438
3.9788662546730578
4.366598001068117
4.446606139213133
3.9850207268380675
4.021947559828071
4.101955697973087
4.015793087663061
4.089646753643067
4.083492281478085
4.163500419623101
4.1327280587980795
4.145037003128072
4.163500419623101
4.145037003128072
4.1942727804480935
3.9665573103430645
3.8927036443630603
4.12657358663307
4.1327280587980795
4.138882530963089
4.0711833371480655
4.108110170138069
4.12657358663307
4.034256504158063
4.015793087663061
4.1327280587980795
4.101955697973087
3.9542483660130467
4.145037003128072
4.218890669108104
4.249663029933098
4.169654891788083
4.181963836118102
4.163500419623101
4.218890669108104
4.237354085603107
4.366598001068117
4.1327280587980795
4.329671168078114
4.341980112408105
4.3727524732331275
4.354289056738125
4.225045141273086
4.145037003128072
4.348134584573115
4.200427252613103
4.231199613438097
4.3112077515831135
4.249663029933098
4.255817502098108
4.292744335088111
4.280435390758093
4.3112077515831135
4.255817502098108
4.2865898629231
4.360443528903107
4.335825640243124
4.1327280587980795
4.225045141273086
4.2865898629231
4.255817502098108
4.218890669108104
4.261971974263091
4.2681264464281
4.225045141273086
4.323516695913104
4.298898807253093
4.108110170138069
4.188118308283084
4.237354085603107
4.329671168078114
4.249663029933098
4.298898807253093
4.218890669108104
4.2065817247780855
4.200427252613103
4.114264642303079
4.145037003128072
4.12657358663307
4.163500419623101
4.163500419623101
4.108110170138069
4.108110170138069
4.668167137153151
5.517484295923275
4.6435492484931675
4.249663029933098
4.200427252613103
4.1758093639530935
4.225045141273086
4.015793087663061
2.6433457948678853
3.4557361206479786
4.225045141273086
4.3112077515831135
4.261971974263091
4.360443528903107
4.3727524732331275
4.243508557768089
4.1942727804480935
4.114264642303079
3.9850207268380675
3.9296304773530633
3.9542483660130467
4.009638615498079
4.009638615498079
3.9788662546730578
3.874240227868059
3.8988581165280416
3.9296304773530633
3.9850207268380675
4.2865898629231
4.181963836118102
3.9788662546730578
4.040410976323072
3.9419394216830552
3.9911751990030497
3.9173215330230438
3.9173215330230438
3.8927036443630603
3.8803947000330408
3.9357849495180455
4.009638615498079
3.8927036443630603
3.8927036443630603
3.5357442587929944
3.572671091782997
3.8496223392080475
3.855776811373057
3.855776811373057
4.5820045268431535
5.517484295923275
4.218890669108104
3.8803947000330408
3.905012588693053
3.9111670608580615
4.009638615498079
3.7757686732280415
2.372549019607845
3.0680043742529195
3.75730525673304
3.8988581165280416
3.9173215330230438
3.843467867043037
3.9357849495180455
3.9727117825080467
3.9296304773530633
3.9173215330230438
3.837313394878028
3.905012588693053
3.9173215330230438
3.9296304773530633
3.9173215330230438
3.825004450548036
3.855776811373057
3.9111670608580615
3.948093893848065
3.9419394216830552
3.9173215330230438
4.065028864983084
4.015793087663061
4.095801225808079
4.009638615498079
4.040410976323072
3.9973296711680604
4.015793087663061
4.157345947458091
4.151191475293081
4.225045141273086
4.218890669108104
4.1327280587980795
4.151191475293081
4.101955697973087
4.1327280587980795
4.089646753643067
4.1327280587980795
4.151191475293081
4.040410976323072
4.021947559828071
4.108110170138069
3.843467867043037
4.021947559828071
4.1327280587980795
4.12657358663307
4.12657358663307
4.065028864983084
4.108110170138069
4.065028864983084
4.1758093639530935
4.138882530963089
4.1327280587980795
4.089646753643067
4.083492281478085
4.151191475293081
4.40967930622313
4.058874392818074
4.101955697973087
4.034256504158063
4.077337809313075
4.12657358663307
3.9665573103430645
4.034256504158063
4.095801225808079
4.083492281478085
4.034256504158063
4.52661427735815
5.517484295923275
4.618931359833156
3.3141832608529764
2.4894839907428636
3.8803947000330408
4.0465654484880815
4.12657358663307
4.101955697973087
4.058874392818074
4.083492281478085
4.145037003128072
4.065028864983084
4.034256504158063
4.058874392818074
4.077337809313075
3.8803947000330408
3.9296304773530633
4.058874392818074
4.065028864983084
4.095801225808079
4.089646753643067
4.114264642303079
4.108110170138069
4.108110170138069
4.120419114468088
4.101955697973087
4.145037003128072
4.114264642303079
4.243508557768089
4.5820045268431535
4.237354085603107
4.12657358663307
4.114264642303079
4.231199613438097
4.2065817247780855
4.077337809313075
4.138882530963089
4.0711833371480655
4.077337809313075
4.095801225808079
4.101955697973087
4.058874392818074
3.886549172198051
3.7449963124030208
3.948093893848065
3.9973296711680604
4.0711833371480655
4.12657358663307
4.151191475293081
4.212736196943095
4.157345947458091
4.12657358663307
4.12657358663307
4.145037003128072
4.089646753643067
4.157345947458091
4.157345947458091
4.1327280587980795
4.1327280587980795
4.169654891788083
4.181963836118102
4.163500419623101
4.021947559828071
4.138882530963089
4.1327280587980795
4.077337809313075
4.083492281478085
4.034256504158063
4.034256504158063
4.083492281478085
3.8680857557030492
3.9665573103430645
4.1327280587980795
4.065028864983084
3.9911751990030497
4.169654891788083
4.225045141273086
4.237354085603107
4.243508557768089
4.120419114468088
4.065028864983084
4.120419114468088
4.034256504158063
4.249663029933098
4.3727524732331275
4.095801225808079
4.028102031993082
4.058874392818074
4.021947559828071
4.077337809313075
4.095801225808079
4.058874392818074
3.9850207268380675
3.9788662546730578
4.065028864983084
4.145037003128072
4.1327280587980795
4.471224027873144
4.625085831998166
4.249663029933098
4.298898807253093
4.2865898629231
4.120419114468088
4.151191475293081
4.169654891788083
4.0465654484880815
4.108110170138069
4.157345947458091
4.145037003128072
4.200427252613103
4.2681264464281
3.3695735103379807
3.5972889804430093
4.138882530963089
4.27428091859311
4.181963836118102
4.163500419623101
4.1942727804480935
4.218890669108104
4.151191475293081
4.218890669108104
4.705093970143154
5.960606291803339
4.095801225808079
4.218890669108104
4.3727524732331275
4.12657358663307
3.7449963124030208
2.4648661020828517
3.7757686732280415
4.138882530963089
4.157345947458091
4.1758093639530935
4.181963836118102
4.145037003128072
4.169654891788083
4.058874392818074
4.083492281478085
4.391215889728128
4.5820045268431535
4.095801225808079
4.065028864983084
4.065028864983084
4.101955697973087
4.021947559828071
4.095801225808079
4.120419114468088
4.052719920653064
4.058874392818074
4.034256504158063
4.0465654484880815
4.108110170138069
3.652679229928013
3.677297118588024
4.065028864983084
4.040410976323072
4.009638615498079
4.101955697973087
4.009638615498079
4.003484143333068
3.9911751990030497
4.040410976323072
4.021947559828071
3.9604028381780574
4.003484143333068
4.101955697973087
4.12657358663307
4.1327280587980795
4.040410976323072
4.028102031993082
4.034256504158063
4.028102031993082
4.021947559828071
3.9234760051880535
3.9727117825080467
3.8927036443630603
3.9173215330230438
3.905012588693053
3.831158922713046
3.8188499783830263
3.837313394878028
3.843467867043037
3.9173215330230438
3.8496223392080475
3.825004450548036
3.9665573103430645
3.905012588693053
3.886549172198051
3.9419394216830552
3.874240227868059
4.003484143333068
3.9419394216830552
3.9111670608580615
4.021947559828071
3.8803947000330408
3.9296304773530633
3.9604028381780574
3.8496223392080475
3.8988581165280416
3.7942320897230433
3.788077617558033
3.7696142010630322
3.732687368073029
3.763459728898022
3.7757686732280415
3.8126955062180454
3.75730525673304
3.6649881742580046
3.75115078456803
3.8188499783830263
3.843467867043037
3.8988581165280416
3.905012588693053
3.825004450548036
3.9296304773530633
3.831158922713046
3.837313394878028
3.9296304773530633
3.8988581165280416
3.855776811373057
3.9419394216830552
4.003484143333068
3.9234760051880535
3.886549172198051
3.8126955062180454
3.8803947000330408
3.7696142010630322
3.800386561888025
3.8065410340530352
3.788077617558033
3.763459728898022
3.7696142010630322
3.7449963124030208
3.695760535083026
3.75730525673304
3.5542076752879965
3.701915007248036
4.705093970143154
4.668167137153151
3.658833702093023
3.3264922051829684
3.271101955697964
3.308028788687967
3.4557361206479786
2.7848986546628876
1.892500190737778
2.495638462907845
3.381882454667973
3.671142646423015
3.5542076752879965
3.357264566007961
3.271101955697964
3.258793011367972
3.332646677347978
3.258793011367972
3.191093817552948
3.234175122707961
3.2280206505429514
3.160321456727955
3.166475928892937
3.2280206505429514
3.4311182319879947
3.375727982502963
3.4557361206479786
3.5849800361130173
3.7696142010630322
3.7265328959080186
3.560362147453006
3.449581648482997
3.363419038172971
3.2957198443579747
3.283410900027955
3.400345871162973
3.4434271763179867
3.504971897968001
3.695760535083026
3.7265328959080186
3.3388011495129604
3.3880369268329824
3.3449556216779697
3.4311182319879947
3.381882454667973
3.3449556216779697
3.258793011367972
3.191093817552948
2.975687291777912
3.0310775412629165
3.0126141247679152
2.9141425701278982
3.018768596932925
2.981841763942921
3.0003051804379233
2.994150708272913
3.006459652602933
2.932605986622927
3.018768596932925
3.037232013427927
3.0003051804379233
3.1110856794079322
3.191093817552948
3.264947483532954
3.332646677347978
3.406500343327984
3.357264566007961
3.264947483532954
3.3880369268329824
3.332646677347978
3.394191398997992
3.215711706212959
3.092622262912931
3.2095572340479492
3.2095572340479492
3.221866178377941
3.301874316522957
3.3511100938429803
3.234175122707961
3.2464840670379527
3.3388011495129604
3.283410900027955
3.308028788687967
3.375727982502963
3.468045064977998
3.375727982502963
3.375727982502963
3.3695735103379807
3.4311182319879947
3.406500343327984
3.3449556216779697
3.283410900027955
3.2957198443579747
3.437272704152977
3.4311182319879947
3.301874316522957
3.301874316522957
3.258793011367972
3.264947483532954
3.277256427862973
3.197248289717957
3.2464840670379527
3.2957198443579747
3.301874316522957
3.301874316522957
3.215711706212959
3.308028788687967
3.449581648482997
3.548053203123014
3.5172808422979926
3.61575239693801
3.529589786627985
3.548053203123014
3.5542076752879965
3.578825563948007
3.6034434526080172
3.658833702093023
3.75730525673304
3.800386561888025
3.738841840238039
3.738841840238039
3.529589786627985
3.609597924773
3.6896060629180156
3.591134508277999
3.591134508277999
3.406500343327984
3.468045064977998
3.9727117825080467
5.092825716538213
3.4988174258029914
3.529589786627985
3.5849800361130173
2.563337656722869
2.2371506319778245
3.6465247577630033
3.6834515907530063
3.6219068691030203
3.591134508277999
3.5972889804430093
3.7449963124030208
3.8803947000330408
3.75730525673304
3.800386561888025
3.8619312835380395
3.800386561888025
3.732687368073029
3.7449963124030208
3.7942320897230433
3.8619312835380395
3.788077617558033
3.9296304773530633
4.015793087663061
4.151191475293081
4.089646753643067
4.145037003128072
4.095801225808079
4.145037003128072
4.095801225808079
4.0465654484880815
4.058874392818074
4.040410976323072
3.905012588693053
3.8680857557030492
3.9850207268380675
3.9665573103430645
3.9604028381780574
4.009638615498079
4.009638615498079
3.9234760051880535
3.948093893848065
3.9173215330230438
3.9788662546730578
3.855776811373057
4.009638615498079
4.095801225808079
4.5820045268431535
4.27428091859311
4.1942727804480935
4.249663029933098
4.261971974263091
4.1758093639530935
4.225045141273086
4.169654891788083
4.034256504158063
3.9542483660130467
3.9296304773530633
3.9357849495180455
3.9419394216830552
3.855776811373057
3.418809287657976
3.8065410340530352
4.169654891788083
4.101955697973087
4.083492281478085
4.1942727804480935
4.231199613438097
4.181963836118102
4.0465654484880815
4.1327280587980795
4.034256504158063
4.305053279418103
4.243508557768089
4.37890694539811
4.3112077515831135
4.12657358663307
4.341980112408105
4.575850054678144
4.668167137153151
4.662012664988168
4.797411052618189
4.840492357773174
4.92050049591819
4.889728135093197
4.908191551588198
4.846646829938186
4.8528013021031935
4.692785025813162
4.434297194883113
4.458915083543125
4.225045141273086
4.212736196943095
4.083492281478085
4.083492281478085
4.1327280587980795
4.225045141273086
4.261971974263091
4.3112077515831135
4.3112077515831135
4.415833778388112
4.557386638183142
4.951272856743211
4.5943134711731455
4.5327687495231315
4.52661427735815
4.40967930622313
4.3727524732331275
4.2681264464281
4.3112077515831135
4.446606139213133
4.5820045268431535
4.637394776328158
4.5820045268431535
4.520459805193139
4.243508557768089
3.8188499783830263
4.120419114468088
4.169654891788083
4.145037003128072
4.12657358663307
4.348134584573115
5.462094046438272
4.858955774268176
4.243508557768089
4.151191475293081
4.1942727804480935
4.151191475293081
4.12657358663307
3.591134508277999
2.3110042979578305
3.855776811373057
4.181963836118102
4.151191475293081
4.360443528903107
4.434297194883113
4.495841916533129
4.68047608148317
4.7912565804531795
4.846646829938186
4.871264718598195
4.766638691793168
4.871264718598195
4.8651102464331855
4.883573662928187
5.0312809948882
4.895882607258178
5.043589939218219
5.105134660868233
5.129752549528216
5.3390046031382425
5.486711935098282
5.560565601078289
5.6713461000482965
5.677500572213306
5.486711935098282
5.31438671447826
4.91434602375318
4.649703720658149
4.686630553648152
4.686630553648152
4.778947636123188
4.735866330968175
4.840492357773174
4.8651102464331855
4.748175275298167
4.649703720658149
4.514305333028129
4.446606139213133
4.366598001068117
4.428142722718132
4.428142722718132
4.495841916533129
4.557386638183142
4.692785025813162
4.631240304163148
4.6435492484931675
4.834337885608192
4.828183413443182
4.846646829938186
4.908191551588198
4.969736273238212
4.895882607258178
5.037435467053208
6.274484372218392
6.914549477378518
5.972915236133329
5.2405330484982535
5.369776963963263
5.455939574273261
5.455939574273261
5.572874545408279
4.563541110348153
4.563541110348153
5.628264794893284
5.665191627883287
5.357468019633243
5.289768825818246
4.754329747463175
4.932809440248209
5.4005493247882566
5.302077770148239
5.474402990768261
5.923679458813336
6.151394928918363
6.41603723201345
6.446809592838443
6.372955926858436
6.551435619643471
6.379110399023446
5.905216042318334
5.560565601078289
5.345159075303252
5.160524910353237
5.185142799013221
5.289768825818246
5.068207827878203
5.0497444113832
4.908191551588198
4.902037079423188
5.105134660868233
4.8651102464331855
4.723557386638154
5.542102184583286
4.514305333028129
4.501996388698137
4.93896391241319
4.766638691793168
4.760484219628157
4.902037079423188
5.025126522723218
5.117443605198224
5.05589888354821
5.203606215508222
5.252841992828244
5.277459881488257
5.3390046031382425
5.283614353653239
5.277459881488257
5.468248518603279
5.080516772208221
4.754329747463175
4.5943134711731455
4.8528013021031935
5.6713461000482965
4.822028941278172
4.292744335088111
2.7910531268278973
3.4988174258029914
4.089646753643067
4.009638615498079
4.009638615498079
4.009638615498079
3.7142239515780275
3.701915007248036
3.8126955062180454
3.825004450548036
3.9604028381780574
3.9542483660130467
4.095801225808079
4.1758093639530935
4.114264642303079
4.1327280587980795
4.298898807253093
4.292744335088111
4.225045141273086
4.40352483405812
4.391215889728128
4.477378500038126
4.557386638183142
4.551232166018132
4.483532972203136
4.54507769385315
4.588158999008135
4.625085831998166
4.662012664988168
4.612776887668146
4.631240304163148
4.668167137153151
4.52661427735815
4.54507769385315
4.3727524732331275
4.2065817247780855
4.108110170138069
4.065028864983084
4.138882530963089
4.200427252613103
4.249663029933098
4.329671168078114
4.385061417563119
4.446606139213133
4.458915083543125
4.452760611378115
4.483532972203136
4.618931359833156
4.68047608148317
4.7297118588031655
4.655858192823159
4.606622415503137
4.631240304163148
4.705093970143154
4.754329747463175
4.797411052618189
4.8651102464331855
4.822028941278172
4.723557386638154
4.631240304163148
4.662012664988168
4.440451667048122
4.3112077515831135
4.40967930622313
4.440451667048122
4.440451667048122
4.458915083543125
4.434297194883113
4.3173622237481215
4.397370361893111
4.385061417563119
4.354289056738125
4.471224027873144
4.40967930622313
4.397370361893111
4.348134584573115
4.354289056738125
4.335825640243124
4.366598001068117
4.2065817247780855
4.163500419623101
4.052719920653064
4.231199613438097
4.163500419623101
4.120419114468088
4.052719920653064
4.0465654484880815
4.0465654484880815
4.181963836118102
4.12657358663307
4.015793087663061
3.9357849495180455
3.886549172198051
3.8988581165280416
3.9111670608580615
3.874240227868059
3.4988174258029914
3.3388011495129604
3.4434271763179867
3.4741995371429804
3.5172808422979926
3.449581648482997
3.3695735103379807
3.3511100938429803
3.418809287657976
3.4618905928129893
3.4557361206479786
3.4434271763179867
3.418809287657976
3.357264566007961
3.48035400930799
3.5172808422979926
3.437272704152977
3.4311182319879947
3.424963759822985
3.4926629536379816
3.591134508277999
3.5665166196180156
3.9850207268380675
4.846646829938186
4.0711833371480655
3.652679229928013
3.634215813433012
3.541898730958004
3.548053203123014
2.323313242287821
2.2433051041428067
3.381882454667973
3.5972889804430093
3.701915007248036
3.75730525673304
3.831158922713046
3.9234760051880535
3.9542483660130467
3.9357849495180455
3.9419394216830552
3.8619312835380395
3.843467867043037
3.8680857557030492
3.886549172198051
3.9111670608580615
3.9234760051880535
3.9727117825080467
3.905012588693053
3.874240227868059
3.9419394216830552
3.9296304773530633
3.948093893848065
3.9911751990030497
3.9419394216830552
3.9296304773530633
3.9234760051880535
4.003484143333068
4.003484143333068
3.874240227868059
3.9604028381780574
3.948093893848065
4.225045141273086
4.083492281478085
3.9542483660130467
3.9234760051880535
3.9973296711680604
4.034256504158063
3.9234760051880535
3.8988581165280416
3.9850207268380675
3.9542483660130467
3.886549172198051
3.905012588693053
3.843467867043037
3.8988581165280416
3.905012588693053
3.831158922713046
3.7757686732280415
3.8126955062180454
3.763459728898022
3.7757686732280415
3.738841840238039
3.7265328959080186
3.763459728898022
3.738841840238039
3.658833702093023
3.843467867043037
3.7942320897230433
3.738841840238039
3.8988581165280416
3.843467867043037
3.75730525673304
3.7449963124030208
3.738841840238039
3.831158922713046
3.843467867043037
3.763459728898022
3.831158922713046
3.75115078456803
3.7449963124030208
3.788077617558033
3.732687368073029
3.504971897968001
3.5972889804430093
3.7142239515780275
3.7080694794130173
3.7449963124030208
4.495841916533129
3.3203377330179586
3.3388011495129604
3.720378423743037
3.7142239515780275
3.701915007248036
3.701915007248036
3.677297118588024
3.720378423743037
3.5172808422979926
3.572671091782997
3.6465247577630033
3.6896060629180156
3.652679229928013
3.6896060629180156
3.7080694794130173
3.7142239515780275
3.671142646423015
3.6896060629180156
3.695760535083026
3.591134508277999
3.61575239693801
3.7942320897230433
3.8126955062180454
3.6649881742580046
3.640370285598021
3.6834515907530063
3.695760535083026
3.7142239515780275
3.640370285598021
3.738841840238039
3.732687368073029
3.7696142010630322
3.652679229928013
3.6465247577630033
3.7449963124030208
4.163500419623101
4.797411052618189
5.591337961903281
3.2280206505429514
1.9971262175427773
3.357264566007961
3.6896060629180156
3.7080694794130173
3.75115078456803
3.7080694794130173
3.7696142010630322
4.40967930622313
5.609801378398282
3.8803947000330408
3.2034027618829395
3.3511100938429803
3.7942320897230433
3.7757686732280415
3.7757686732280415
2.680272627857888
2.372549019607845
3.578825563948007
3.658833702093023
3.640370285598021
3.701915007248036
3.75730525673304
3.732687368073029
3.800386561888025
3.720378423743037
3.6649881742580046
3.800386561888025
3.75115078456803
3.7449963124030208
3.800386561888025
3.732687368073029
3.658833702093023
3.738841840238039
3.75730525673304
3.7696142010630322
3.75730525673304
3.732687368073029
3.8680857557030492
3.8126955062180454
3.7449963124030208
3.75115078456803
3.701915007248036
3.7265328959080186
3.7696142010630322
3.75730525673304
3.7449963124030208
3.695760535083026
3.7757686732280415
3.837313394878028
3.75115078456803
3.8188499783830263
4.305053279418103
4.200427252613103
3.9911751990030497
3.9173215330230438
3.8188499783830263
3.825004450548036
3.9357849495180455
3.9173215330230438
3.8619312835380395
3.837313394878028
3.8927036443630603
3.843467867043037
3.763459728898022
3.671142646423015
3.1233946237379517
3.381882454667973
3.7696142010630322
3.781923145393024
3.855776811373057
3.701915007248036
3.843467867043037
3.825004450548036
3.701915007248036
3.75115078456803
3.788077617558033
3.831158922713046
3.8188499783830263
3.843467867043037
3.8496223392080475
3.8126955062180454
3.7696142010630322
3.8188499783830263
3.8188499783830263
3.781923145393024
3.738841840238039
3.825004450548036
3.8126955062180454
3.843467867043037
3.8619312835380395
3.8065410340530352
3.905012588693053
3.9911751990030497
3.8803947000330408
3.9296304773530633
3.8619312835380395
4.034256504158063
3.9542483660130467
3.9357849495180455
4.058874392818074
4.040410976323072
4.021947559828071
3.9911751990030497
4.181963836118102
4.354289056738125
4.483532972203136
4.883573662928187
4.858955774268176
4.68047608148317
4.717402914473172
4.649703720658149
4.686630553648152
4.711248442308165
4.717402914473172
4.698939497978172
4.7420208031331565
4.723557386638154
4.588158999008135
4.563541110348153
5.142061493858235
5.8559802649983395
4.397370361893111
4.501996388698137
4.606622415503137
4.421988250553122
2.7848986546628876
3.800386561888025
4.5327687495231315
4.588158999008135
4.618931359833156
4.6435492484931675
4.631240304163148
4.698939497978172
4.612776887668146
4.588158999008135
4.637394776328158
4.637394776328158
4.649703720658149
4.588158999008135
4.5820045268431535
4.508150860863147
4.668167137153151
4.668167137153151
4.52661427735815
4.5820045268431535
4.717402914473172
4.692785025813162
4.698939497978172
4.668167137153151
4.625085831998166
4.711248442308165
4.778947636123188
4.686630553648152
4.723557386638154
4.7912565804531795
4.7912565804531795
4.803565524783171
4.705093970143154
4.7297118588031655
4.7912565804531795
4.778947636123188
4.9881996897332135
4.858955774268176
4.766638691793168
4.889728135093197
4.7912565804531795
4.698939497978172
4.754329747463175
4.7420208031331565
4.705093970143154
4.735866330968175
4.723557386638154
4.772793163958178
4.686630553648152
4.735866330968175
4.52661427735815
4.711248442308165
4.760484219628157
4.717402914473172
4.735866330968175
4.717402914473172
4.754329747463175
4.723557386638154
4.834337885608192
4.81587446911319
4.698939497978172
4.772793163958178
5.474402990768261
4.662012664988168
4.7912565804531795
4.772793163958178
4.7297118588031655
4.698939497978172
4.760484219628157
4.68047608148317
4.723557386638154
4.723557386638154
4.698939497978172
4.67432160931816
4.748175275298167
4.68047608148317
4.5820045268431535
4.520459805193139
4.495841916533129
4.5820045268431535
4.637394776328158
4.723557386638154
4.711248442308165
4.711248442308165
4.662012664988168
4.686630553648152
4.760484219628157
4.686630553648152
4.68047608148317
4.711248442308165
4.698939497978172
4.501996388698137
4.5943134711731455
4.797411052618189
4.760484219628157
4.778947636123188
4.778947636123188
4.748175275298167
4.785102108288171
4.698939497978172
4.723557386638154
4.754329747463175
4.68047608148317
4.698939497978172
4.778947636123188
4.766638691793168
4.705093970143154
4.754329747463175
4.748175275298167
4.7420208031331565
4.7297118588031655
4.717402914473172
4.711248442308165
4.711248442308165
4.772793163958178
4.748175275298167
5.271305409323245
6.09600467943336
5.419012741283257
4.969736273238212
4.8528013021031935
4.803565524783171
4.81587446911319
4.766638691793168
4.649703720658149
3.2526385392029624
3.5665166196180156
4.5820045268431535
4.67432160931816
4.68047608148317
4.692785025813162
4.7420208031331565
4.698939497978172
4.563541110348153
4.649703720658149
4.748175275298167
4.778947636123188
4.766638691793168
4.754329747463175
4.8528013021031935
4.846646829938186
4.81587446911319
4.871264718598195
4.8528013021031935
4.785102108288171
4.883573662928187
5.092825716538213
4.871264718598195
4.822028941278172
4.828183413443182
4.8651102464331855
4.9881996897332135
4.957427328908192
4.902037079423188
4.834337885608192
4.846646829938186
5.018972050558207
4.91434602375318
4.895882607258178
5.0497444113832
5.080516772208221
4.975890745403193
5.068207827878203
5.0312809948882
5.062053355713221
5.0312809948882
4.957427328908192
4.91434602375318
4.9266549680832
4.8528013021031935
4.963581801073202
5.05589888354821
4.9881996897332135
4.969736273238212
4.969736273238212
4.883573662928187
4.809719996948181
4.828183413443182
4.7912565804531795
4.705093970143154
4.705093970143154
4.668167137153151
4.662012664988168
4.723557386638154
4.760484219628157
4.717402914473172
4.68047608148317
4.360443528903107
4.348134584573115
4.508150860863147
4.495841916533129
4.705093970143154
4.723557386638154
4.668167137153151
4.662012664988168
5.142061493858235
6.7114518959335
4.81587446911319
4.840492357773174
4.7912565804531795
4.846646829938186
4.975890745403193
4.766638691793168
3.843467867043037
3.092622262912931
4.5327687495231315
4.637394776328158
4.68047608148317
4.692785025813162
4.68047608148317
4.785102108288171
4.9881996897332135
4.908191551588198
5.037435467053208
5.449785102108279
5.782126599018308
5.19745174334324
5.135907021693225
5.154370438188227
5.142061493858235
5.0497444113832
5.006663106228215
4.93896391241319
4.908191551588198
4.975890745403193
5.043589939218219
5.05589888354821
5.129752549528216
4.606622415503137
4.452760611378115
4.91434602375318
4.9881996897332135
4.877419190763177
4.8528013021031935
4.932809440248209
4.883573662928187
4.957427328908192
4.785102108288171
5.154370438188227
6.059077846443356
5.19129727117823
4.797411052618189
3.9357849495180455
2.7171994608478913
4.3112077515831135
4.618931359833156
4.662012664988168
4.662012664988168
4.692785025813162
4.7297118588031655
4.692785025813162
4.7297118588031655
4.846646829938186
4.81587446911319
4.871264718598195
5.006663106228215
4.9266549680832
4.834337885608192
5.05589888354821
4.908191551588198
4.9881996897332135
4.9881996897332135
4.889728135093197
4.902037079423188
4.93896391241319
4.895882607258178
4.895882607258178
4.822028941278172
4.858955774268176
4.945118384578201
4.957427328908192
4.932809440248209
4.8528013021031935
4.883573662928187
4.908191551588198
4.982045217568204
5.080516772208221
5.068207827878203
5.012817578393197
4.883573662928187
4.822028941278172
4.932809440248209
4.957427328908192
5.105134660868233
4.9881996897332135
4.951272856743211
5.018972050558207
4.902037079423188
4.846646829938186
5.899061570153325
4.637394776328158
4.735866330968175
5.209760687673231
5.252841992828244
5.228224104168233
5.246687520663237
5.302077770148239
5.0497444113832
5.025126522723218
5.228224104168233
5.474402990768261
5.492866407263264
5.579029017573289
5.437476157778259
5.0497444113832
5.006663106228215
4.963581801073202
5.0312809948882
5.129752549528216
5.258996464993254
5.84982579283333
6.065232318608365
5.862134737163322
5.868289209328331
5.474402990768261
5.068207827878203
4.809719996948181
4.705093970143154
4.662012664988168
4.711248442308165
4.877419190763177
5.105134660868233
5.185142799013221
5.0743623000432105
4.91434602375318
4.809719996948181
4.803565524783171
4.766638691793168
4.785102108288171
4.902037079423188
4.951272856743211
5.092825716538213
5.092825716538213
4.975890745403193
4.93896391241319
5.092825716538213
5.283614353653239
5.437476157778259
5.185142799013221
4.9881996897332135
4.8528013021031935
4.557386638183142
4.557386638183142
4.686630553648152
4.834337885608192
4.883573662928187
5.092825716538213
5.086671244373231
5.105134660868233
5.185142799013221
5.0312809948882
5.000508634063205
4.8528013021031935
4.735866330968175
4.92050049591819
4.883573662928187
4.877419190763177
5.000508634063205
5.0743623000432105
5.105134660868233
5.782126599018308
6.945321838203511
4.951272856743211
5.086671244373231
5.160524910353237
5.228224104168233
5.2405330484982535
5.062053355713221
3.578825563948007
4.828183413443182
5.468248518603279
6.452964065003453
6.779151089748497
6.114468095928361
5.960606291803339
5.81905343200831
6.108313623763351
6.09600467943336
5.634419267058294
5.8559802649983395
5.812898959843329
5.652882683553296
6.194476234073376
6.791460034078489
6.7114518959335
6.243712011393371
6.028305485618365
5.991378652628332
5.8805981536583225
5.720581877368319
5.702118460873318
5.775972126853325
5.73904529386332
6.102159151598369
5.81905343200831
5.511329823758264
5.388240380458265
5.3390046031382425
5.394394852623274
5.923679458813336
5.954451819638329
5.6713461000482965
5.443630629943269
5.2220696320032225
5.086671244373231
5.062053355713221
4.858955774268176
4.2865898629231
4.822028941278172
4.957427328908192
5.006663106228215
4.957427328908192
4.92050049591819
4.908191551588198
4.8528013021031935
4.8651102464331855
4.895882607258178
5.025126522723218
5.117443605198224
5.123598077363234
5.412858269118276
5.455939574273261
5.277459881488257
5.246687520663237
5.246687520663237
5.148215966023217
4.982045217568204
4.994354161898196
4.9266549680832
4.846646829938186
4.883573662928187
4.692785025813162
4.766638691793168
4.834337885608192
4.834337885608192
4.846646829938186
4.93896391241319
4.963581801073202
5.018972050558207
4.994354161898196
5.178988326848239
5.209760687673231
5.0743623000432105
4.858955774268176
4.828183413443182
4.7420208031331565
4.508150860863147
4.458915083543125
4.40967930622313
4.471224027873144
4.655858192823159
4.7420208031331565
4.723557386638154
4.748175275298167
4.7420208031331565
4.711248442308165
4.618931359833156
4.52661427735815
4.391215889728128
4.157345947458091
3.9973296711680604
4.218890669108104
4.471224027873144
4.471224027873144
4.415833778388112
4.243508557768089
4.101955697973087
3.9850207268380675
3.8927036443630603
3.7942320897230433
3.8927036443630603
3.948093893848065
3.9911751990030497
4.1327280587980795
4.225045141273086
4.477378500038126
4.305053279418103
3.75115078456803
3.5234353144630024
3.7142239515780275
3.837313394878028
3.9357849495180455
4.5327687495231315
5.7328908216983105
4.249663029933098
2.4648661020828517
2.335622186617841
3.381882454667973
3.4557361206479786
2.877215737137895
2.907988097962916
3.3203377330179586
3.4311182319879947
3.652679229928013
3.6280613412680016
3.8680857557030492
4.631240304163148
4.994354161898196
3.788077617558033
2.329467714452832
2.2802319371328093
3.166475928892937
3.9665573103430645
4.6435492484931675
4.428142722718132
4.40967930622313
4.3727524732331275
4.27428091859311
4.6004679433381535
5.425167213448267
4.908191551588198
4.218890669108104
4.034256504158063
4.089646753643067
4.034256504158063
4.021947559828071
3.948093893848065
1.9848172732127856
3.578825563948007
4.243508557768089
4.354289056738125
4.421988250553122
4.397370361893111
4.465069555708134
4.563541110348153
4.52661427735815
4.575850054678144
4.563541110348153
4.458915083543125
4.415833778388112
4.280435390758093
4.225045141273086
4.40352483405812
4.440451667048122
4.588158999008135
4.575850054678144
4.5820045268431535
4.495841916533129
4.421988250553122
4.2865898629231
4.249663029933098
4.218890669108104
4.163500419623101
4.37890694539811
5.037435467053208
4.723557386638154
4.54507769385315
4.514305333028129
4.52661427735815
4.618931359833156
4.625085831998166
4.6435492484931675
4.68047608148317
4.662012664988168
4.612776887668146
4.711248442308165
4.649703720658149
4.397370361893111
3.763459728898022
4.305053279418103
4.489687444368147
4.563541110348153
4.5820045268431535
4.6004679433381535
4.471224027873144
4.415833778388112
4.3727524732331275
4.397370361893111
4.348134584573115
4.40352483405812
4.2865898629231
4.323516695913104
4.360443528903107
4.385061417563119
4.169654891788083
4.243508557768089
4.225045141273086
4.1942727804480935
4.231199613438097
4.163500419623101
4.009638615498079
4.114264642303079
4.065028864983084
4.034256504158063
4.145037003128072
4.538923221688139
4.514305333028129
4.3727524732331275
4.188118308283084
4.1758093639530935
4.2065817247780855
4.2065817247780855
4.231199613438097
4.255817502098108
4.225045141273086
4.237354085603107
4.298898807253093
4.292744335088111
4.341980112408105
3.874240227868059
3.9973296711680604
4.151191475293081
4.181963836118102
4.163500419623101
4.692785025813162
5.560565601078289
4.6435492484931675
4.3173622237481215
4.237354085603107
4.200427252613103
3.375727982502963
2.538719768062857
4.003484143333068
4.145037003128072
4.058874392818074
4.169654891788083
4.120419114468088
4.218890669108104
4.200427252613103
3.9850207268380675
4.021947559828071
4.028102031993082
4.034256504158063
4.101955697973087
4.101955697973087
4.095801225808079
4.169654891788083
4.009638615498079
4.169654891788083
4.052719920653064
4.034256504158063
4.0465654484880815
4.151191475293081
4.237354085603107
4.2065817247780855
4.298898807253093
4.298898807253093
4.212736196943095
4.169654891788083
4.237354085603107
4.40352483405812
4.151191475293081
4.003484143333068
3.9911751990030497
4.095801225808079
4.2065817247780855
4.145037003128072
4.1942727804480935
4.151191475293081
4.114264642303079
4.089646753643067
4.169654891788083
4.181963836118102
4.249663029933098
3.9973296711680604
3.9665573103430645
4.1942727804480935
4.169654891788083
4.145037003128072
4.1758093639530935
4.138882530963089
4.231199613438097
4.2065817247780855
4.114264642303079
4.1942727804480935
4.200427252613103
4.0465654484880815
4.163500419623101
4.366598001068117
4.243508557768089
4.101955697973087
4.27428091859311
4.261971974263091
4.181963836118102
4.292744335088111
4.391215889728128
4.341980112408105
4.243508557768089
4.3112077515831135
4.225045141273086
4.200427252613103
4.188118308283084
4.145037003128072
4.354289056738125
4.501996388698137
4.385061417563119
4.3173622237481215
4.366598001068117
4.3173622237481215
4.261971974263091
4.27428091859311
4.231199613438097
4.237354085603107
4.212736196943095
4.280435390758093
4.625085831998166
4.40967930622313
4.40967930622313
4.323516695913104
4.348134584573115
4.40967930622313
4.471224027873144
4.520459805193139
4.557386638183142
4.631240304163148
4.6435492484931675
4.662012664988168
4.668167137153151
4.606622415503137
4.237354085603107
4.563541110348153
4.686630553648152
4.692785025813162
4.705093970143154
4.723557386638154
4.686630553648152
4.569695582513134
4.5327687495231315
4.5327687495231315
4.557386638183142
4.458915083543125
4.452760611378115
4.483532972203136
4.452760611378115
4.465069555708134
4.477378500038126
5.018972050558207
5.695963988708308
3.2280206505429514
3.9296304773530633
4.489687444368147
4.631240304163148
4.563541110348153
4.612776887668146
4.5820045268431535
4.67432160931816
4.785102108288171
4.588158999008135
4.458915083543125
4.557386638183142
4.5327687495231315
4.508150860863147
4.465069555708134
4.37890694539811
4.446606139213133
4.563541110348153
4.538923221688139
4.551232166018132
4.52661427735815
4.686630553648152
5.166679382518219
4.858955774268176
4.711248442308165
4.735866330968175
4.6435492484931675
4.68047608148317
4.717402914473172
4.785102108288171
4.778947636123188
4.748175275298167
4.772793163958178
4.760484219628157
4.760484219628157
4.538923221688139
4.065028864983084
4.625085831998166
4.828183413443182
4.957427328908192
4.982045217568204
5.000508634063205
4.957427328908192
4.982045217568204
4.963581801073202
4.809719996948181
4.711248442308165
4.637394776328158
4.6435492484931675
4.828183413443182
4.858955774268176
4.778947636123188
4.772793163958178
4.686630553648152
4.68047608148317
4.692785025813162
4.7297118588031655
4.908191551588198
5.092825716538213
5.006663106228215
4.895882607258178
4.809719996948181
4.9881996897332135
5.0312809948882
4.834337885608192
4.951272856743211
4.92050049591819
4.902037079423188
4.8651102464331855
4.871264718598195
4.908191551588198
4.7297118588031655
4.514305333028129
4.446606139213133
4.452760611378115
4.305053279418103
4.348134584573115
4.108110170138069
4.089646753643067
4.188118308283084
4.1758093639530935
4.077337809313075
4.058874392818074
4.0711833371480655
4.083492281478085
4.101955697973087
4.052719920653064
3.905012588693053
4.009638615498079
4.028102031993082
4.225045141273086
4.323516695913104
4.120419114468088
4.305053279418103
6.009842069123361
4.1758093639530935
3.9419394216830552
3.8927036443630603
3.7757686732280415
3.7265328959080186
3.658833702093023
2.9633783474479203
1.6955570814577436
3.080313318582939
3.3449556216779697
3.449581648482997
3.671142646423015
3.7757686732280415
3.948093893848065
4.058874392818074
4.108110170138069
4.12657358663307
4.169654891788083
4.120419114468088
4.145037003128072
4.095801225808079
3.9850207268380675
4.028102031993082
3.7142239515780275
3.609597924773
4.101955697973087
5.025126522723218
4.120419114468088
3.7942320897230433
3.6219068691030203
2.2679229928028177
2.55102871239285
3.5234353144630024
3.652679229928013
3.7080694794130173
3.763459728898022
3.8988581165280416
4.421988250553122
3.9788662546730578
3.874240227868059
3.9604028381780574
4.015793087663061
4.095801225808079
4.040410976323072
4.0465654484880815
4.1758093639530935
4.188118308283084
4.3173622237481215
4.3727524732331275
4.335825640243124
4.077337809313075
3.788077617558033
4.280435390758093
4.360443528903107
4.3727524732331275
4.305053279418103
4.3112077515831135
4.335825640243124
4.255817502098108
4.212736196943095
4.1758093639530935
4.2065817247780855
4.200427252613103
4.280435390758093
4.5327687495231315
4.471224027873144
4.3112077515831135
4.360443528903107
4.391215889728128
4.495841916533129
4.686630553648152
4.975890745403193
5.098980188703223
5.166679382518219
5.21591515983824
5.209760687673231
5.178988326848239
5.178988326848239
5.178988326848239
5.154370438188227
5.209760687673231
5.234378576333243
5.178988326848239
5.252841992828244
5.302077770148239
5.345159075303252
5.283614353653239
5.351313547468262
5.308232242313249
5.369776963963263
5.443630629943269
5.363622491798253
5.302077770148239
5.486711935098282
5.523638768088285
5.431321685613277
5.468248518603279
5.412858269118276
5.523638768088285
5.6590371557183055
5.462094046438272
5.431321685613277
5.419012741283257
5.246687520663237
5.025126522723218
5.037435467053208
4.9266549680832
4.655858192823159
4.698939497978172
4.557386638183142
4.551232166018132
4.569695582513134
4.520459805193139
4.434297194883113
4.495841916533129
4.489687444368147
4.446606139213133
4.335825640243124
4.335825640243124
3.9911751990030497
3.9727117825080467
4.169654891788083
4.089646753643067
4.058874392818074
4.0711833371480655
4.034256504158063
4.021947559828071
3.8680857557030492
3.781923145393024
3.609597924773
3.591134508277999
3.5665166196180156
3.5972889804430093
3.8188499783830263
3.6280613412680016
3.6219068691030203
3.6834515907530063
3.7942320897230433
3.8188499783830263
3.843467867043037
3.905012588693053
3.7942320897230433
3.800386561888025
3.9234760051880535
3.874240227868059
3.763459728898022
3.843467867043037
4.335825640243124
6.163703873248383
4.3173622237481215
4.3112077515831135
4.2065817247780855
4.095801225808079
4.015793087663061
3.9788662546730578
2.9510694031179288
2.4894839907428636
3.8496223392080475
4.083492281478085
4.2065817247780855
4.551232166018132
4.692785025813162
4.5327687495231315
4.40967930622313
4.354289056738125
4.477378500038126
4.54507769385315
4.520459805193139
4.458915083543125
4.446606139213133
4.415833778388112
4.27428091859311
4.366598001068117
4.329671168078114
4.520459805193139
4.483532972203136
4.335825640243124
4.2865898629231
4.329671168078114
4.329671168078114
4.329671168078114
4.446606139213133
4.421988250553122
4.465069555708134
4.557386638183142
4.655858192823159
4.7420208031331565
4.465069555708134
3.8988581165280416
4.298898807253093
4.40967930622313
4.434297194883113
4.446606139213133
4.477378500038126
5.3390046031382425
4.237354085603107
4.218890669108104
4.489687444368147
4.575850054678144
4.6435492484931675
4.803565524783171
4.957427328908192
5.172833854683229
5.172833854683229
5.234378576333243
5.289768825818246
5.098980188703223
4.772793163958178
4.489687444368147
4.218890669108104
4.2681264464281
4.446606139213133
4.692785025813162
4.748175275298167
4.883573662928187
5.018972050558207
4.803565524783171
4.7297118588031655
5.0497444113832
5.308232242313249
5.517484295923275
5.492866407263264
5.505175351593283
5.209760687673231
5.160524910353237
4.975890745403193
4.932809440248209
4.908191551588198
4.871264718598195
4.477378500038126
4.465069555708134
4.723557386638154
4.858955774268176
4.91434602375318
4.9881996897332135
4.957427328908192
5.154370438188227
5.0497444113832
4.957427328908192
4.889728135093197
4.797411052618189
4.662012664988168
4.452760611378115
4.120419114468088
3.9788662546730578
4.021947559828071
4.083492281478085
4.1327280587980795
4.181963836118102
4.1942727804480935
4.12657358663307
4.095801225808079
4.120419114468088
4.095801225808079
4.095801225808079
4.120419114468088
4.218890669108104
4.145037003128072
4.1327280587980795
4.181963836118102
4.083492281478085
4.169654891788083
4.1327280587980795
4.021947559828071
3.9173215330230438
3.9111670608580615
3.8988581165280416
3.8065410340530352
3.788077617558033
4.335825640243124
5.812898959843329
4.7297118588031655
3.6465247577630033
2.009435161872797
3.2957198443579747
3.843467867043037
3.9111670608580615
3.9727117825080467
4.040410976323072
4.169654891788083
4.188118308283084
4.280435390758093
4.329671168078114
4.298898807253093
3.738841840238039
4.009638615498079
4.169654891788083
4.1942727804480935
4.280435390758093
4.237354085603107
4.237354085603107
4.2681264464281
4.255817502098108
4.237354085603107
4.323516695913104
4.415833778388112
4.471224027873144
4.52661427735815
4.5820045268431535
4.5820045268431535
4.631240304163148
4.625085831998166
4.649703720658149
4.606622415503137
4.618931359833156
4.495841916533129
4.471224027873144
4.557386638183142
4.5327687495231315
4.483532972203136
4.477378500038126
4.612776887668146
5.622110322728302
5.178988326848239
4.686630553648152
4.3112077515831135
4.2865898629231
4.237354085603107
4.261971974263091
3.800386561888025
2.3663945474428347
3.788077617558033
4.212736196943095
4.169654891788083
4.305053279418103
4.280435390758093
4.292744335088111
4.37890694539811
4.551232166018132
4.67432160931816
4.606622415503137
4.557386638183142
4.618931359833156
4.631240304163148
4.6435492484931675
4.514305333028129
4.292744335088111
4.218890669108104
4.3112077515831135
4.7297118588031655
4.2681264464281
4.200427252613103
4.151191475293081
4.231199613438097
4.188118308283084
4.3112077515831135
4.3173622237481215
4.249663029933098
4.237354085603107
4.200427252613103
4.114264642303079
4.1327280587980795
4.015793087663061
3.8496223392080475
4.169654891788083
4.360443528903107
4.415833778388112
4.360443528903107
4.323516695913104
4.292744335088111
4.3112077515831135
4.3173622237481215
4.3173622237481215
4.440451667048122
4.385061417563119
4.335825640243124
4.385061417563119
4.27428091859311
4.255817502098108
4.255817502098108
4.341980112408105
4.3173622237481215
4.1942727804480935
4.2065817247780855
4.120419114468088
4.2865898629231
4.458915083543125
4.157345947458091
4.12657358663307
4.1327280587980795
4.169654891788083
4.120419114468088
4.114264642303079
4.065028864983084
4.095801225808079
4.028102031993082
4.1327280587980795
4.188118308283084
4.1327280587980795
4.138882530963089
3.9850207268380675
4.575850054678144
5.8559802649983395
4.009638615498079
4.225045141273086
4.12657358663307
4.058874392818074
3.9911751990030497
2.391012436102846
3.1480125123979352
4.108110170138069
4.12657358663307
4.101955697973087
4.169654891788083
4.138882530963089
4.163500419623101
4.151191475293081
3.9665573103430645
3.9234760051880535
4.120419114468088
4.212736196943095
4.298898807253093
4.237354085603107
4.329671168078114
4.305053279418103
4.335825640243124
4.421988250553122
4.2865898629231
4.2065817247780855
4.151191475293081
4.120419114468088
4.717402914473172
3.6465247577630033
3.652679229928013
4.052719920653064
4.151191475293081
4.212736196943095
4.323516695913104
4.225045141273086
4.003484143333068
4.157345947458091
4.138882530963089
4.058874392818074
4.009638615498079
4.034256504158063
4.483532972203136
4.231199613438097
4.003484143333068
3.9357849495180455
3.9788662546730578
4.034256504158063
3.9788662546730578
3.9665573103430645
4.0465654484880815
4.083492281478085
4.169654891788083
4.2065817247780855
4.1327280587980795
3.9911751990030497
3.738841840238039
4.0465654484880815
4.0711833371480655
4.108110170138069
4.169654891788083
4.052719920653064
4.200427252613103
4.280435390758093
4.145037003128072
4.1942727804480935
4.3173622237481215
4.292744335088111
4.446606139213133
4.397370361893111
4.3112077515831135
4.305053279418103
4.280435390758093
4.354289056738125
4.335825640243124
4.37890694539811
4.3112077515831135
4.298898807253093
4.305053279418103
4.3173622237481215
4.385061417563119
4.354289056738125
4.465069555708134
4.982045217568204
4.748175275298167
4.520459805193139
4.495841916533129
4.5327687495231315
4.514305333028129
4.440451667048122
4.415833778388112
4.446606139213133
4.341980112408105
4.3727524732331275
4.40352483405812
4.360443528903107
4.3173622237481215
3.640370285598021
3.9973296711680604
4.3173622237481215
4.231199613438097
4.188118308283084
4.3112077515831135
4.2865898629231
4.2865898629231
4.37890694539811
4.440451667048122
4.520459805193139
4.465069555708134
4.421988250553122
4.520459805193139
4.446606139213133
4.440451667048122
4.421988250553122
4.305053279418103
4.348134584573115
4.434297194883113
4.335825640243124
4.298898807253093
4.366598001068117
4.994354161898196
6.212939650568378
3.4557361206479786
2.655654739197877
4.200427252613103
4.305053279418103
4.255817502098108
4.280435390758093
4.225045141273086
4.1942727804480935
4.1758093639530935
4.157345947458091
4.188118308283084
4.12657358663307
4.089646753643067
4.058874392818074
4.058874392818074
4.077337809313075
3.9727117825080467
3.9357849495180455
4.015793087663061
3.9604028381780574
3.9727117825080467
3.948093893848065
4.034256504158063
3.9727117825080467
3.9665573103430645
3.9665573103430645
3.8927036443630603
3.9234760051880535
3.9788662546730578
4.114264642303079
4.138882530963089
4.015793087663061
4.12657358663307
4.095801225808079
4.083492281478085
4.145037003128072
4.2065817247780855
4.237354085603107
4.163500419623101
4.108110170138069
4.261971974263091
4.188118308283084
4.095801225808079
4.52661427735815
4.846646829938186
4.280435390758093
4.280435390758093
4.231199613438097
4.108110170138069
4.181963836118102
4.2065817247780855
4.2681264464281
4.225045141273086
4.2681264464281
4.2865898629231
4.181963836118102
4.157345947458091
3.8065410340530352
3.6834515907530063
4.0711833371480655
4.151191475293081
4.108110170138069
4.200427252613103
4.188118308283084
3.9973296711680604
4.151191475293081
4.151191475293081
3.9973296711680604
4.0711833371480655
4.0711833371480655
4.095801225808079
4.101955697973087
4.015793087663061
4.1327280587980795
4.138882530963089
4.058874392818074
4.114264642303079
4.249663029933098
4.169654891788083
4.138882530963089
4.077337809313075
4.1327280587980795
4.138882530963089
4.101955697973087
4.083492281478085
4.028102031993082
3.9542483660130467
4.095801225808079
4.120419114468088
4.0465654484880815
4.163500419623101
4.0465654484880815
4.040410976323072
4.145037003128072
4.120419114468088
4.052719920653064
4.101955697973087
4.083492281478085
4.108110170138069
4.015793087663061
3.9296304773530633
3.9973296711680604
4.052719920653064
3.9296304773530633
4.015793087663061
4.040410976323072
4.0711833371480655
4.003484143333068
4.077337809313075
4.095801225808079
5.412858269118276
4.91434602375318
4.471224027873144
4.138882530963089
4.1942727804480935
4.169654891788083
4.138882530963089
3.855776811373057
2.378703491772827
3.394191398997992
4.668167137153151
5.991378652628332
4.058874392818074
4.083492281478085
4.12657358663307
3.738841840238039
2.3971669082678284
3.677297118588024
4.108110170138069
4.108110170138069
4.101955697973087
3.9850207268380675
3.9111670608580615
4.065028864983084
4.077337809313075
3.9850207268380675
4.028102031993082
4.040410976323072
3.9665573103430645
3.948093893848065
3.7080694794130173
3.9111670608580615
3.8496223392080475
3.9850207268380675
3.948093893848065
3.9604028381780574
3.9788662546730578
4.015793087663061
3.9727117825080467
4.021947559828071
3.9850207268380675
4.015793087663061
4.009638615498079
4.145037003128072
4.101955697973087
3.9727117825080467
4.034256504158063
4.0711833371480655
4.095801225808079
4.021947559828071
4.028102031993082
4.145037003128072
4.157345947458091
4.058874392818074
4.114264642303079
3.9604028381780574
3.886549172198051
3.732687368073029
3.75115078456803
3.837313394878028
3.6896060629180156
3.948093893848065
3.788077617558033
3.855776811373057
3.886549172198051
3.886549172198051
3.874240227868059
3.8988581165280416
3.905012588693053
3.8927036443630603
4.138882530963089
4.662012664988168
4.231199613438097
4.083492281478085
4.089646753643067
4.089646753643067
3.9357849495180455
4.009638615498079
4.083492281478085
3.9788662546730578
3.9111670608580615
3.948093893848065
3.9788662546730578
4.034256504158063
3.9788662546730578
3.8126955062180454
3.9911751990030497
3.9357849495180455
4.009638615498079
3.9911751990030497
3.9542483660130467
3.9357849495180455
3.9357849495180455
3.9850207268380675
3.9296304773530633
3.9419394216830552
3.9419394216830552
3.9111670608580615
3.732687368073029
3.7080694794130173
3.837313394878028
3.886549172198051
3.9542483660130467
3.8927036443630603
3.8988581165280416
3.948093893848065
3.9357849495180455
3.9542483660130467
3.9419394216830552
3.781923145393024
3.701915007248036
3.781923145393024
3.7942320897230433
3.732687368073029
3.701915007248036
3.763459728898022
3.825004450548036
3.7449963124030208
3.6465247577630033
3.781923145393024
3.738841840238039
3.75730525673304
3.8065410340530352
3.8188499783830263
3.7696142010630322
3.763459728898022
3.5234353144630024
3.75730525673304
3.843467867043037
3.8680857557030492
3.9234760051880535
3.905012588693053
4.360443528903107
5.252841992828244
4.465069555708134
4.095801225808079
3.9850207268380675
3.9911751990030497
3.9911751990030497
4.212736196943095
4.077337809313075
2.3540856031128428
3.2403295948729705
3.8803947000330408
4.009638615498079
4.0465654484880815
4.095801225808079
4.083492281478085
4.083492281478085
4.108110170138069
4.138882530963089
4.015793087663061
4.0465654484880815
3.9542483660130467
4.009638615498079
4.058874392818074
3.9973296711680604
4.040410976323072
4.034256504158063
4.065028864983084
4.065028864983084
3.9850207268380675
4.028102031993082
4.083492281478085
4.077337809313075
3.9850207268380675
4.021947559828071
4.015793087663061
4.028102031993082
4.021947559828071
3.9727117825080467
4.003484143333068
4.028102031993082
3.9973296711680604
3.9604028381780574
3.9604028381780574
3.948093893848065
4.003484143333068
3.9542483660130467
3.905012588693053
4.089646753643067
3.9973296711680604
3.831158922713046
3.8803947000330408
3.9542483660130467
3.886549172198051
3.8680857557030492
3.9604028381780574
3.9542483660130467
3.9234760051880535
3.9727117825080467
3.9973296711680604
4.003484143333068
4.021947559828071
4.385061417563119
4.385061417563119
4.163500419623101
4.157345947458091
4.0465654484880815
4.065028864983084
4.034256504158063
4.077337809313075
4.120419114468088
3.9727117825080467
4.114264642303079
4.101955697973087
4.095801225808079
4.1327280587980795
3.634215813433012
3.763459728898022
4.095801225808079
4.058874392818074
4.089646753643067
4.065028864983084
4.028102031993082
4.083492281478085
4.040410976323072
4.003484143333068
4.052719920653064
4.021947559828071
3.9911751990030497
4.218890669108104
4.1327280587980795
4.021947559828071
4.231199613438097
4.212736196943095
4.163500419623101
4.27428091859311
4.077337809313075
4.120419114468088
4.225045141273086
4.095801225808079
4.083492281478085
4.0711833371480655
4.083492281478085
4.138882530963089
4.0711833371480655
4.138882530963089
4.1758093639530935
4.12657358663307
4.157345947458091
4.163500419623101
4.157345947458091
4.169654891788083
4.218890669108104
4.298898807253093
4.225045141273086
4.157345947458091
4.2065817247780855
4.225045141273086
4.114264642303079
4.157345947458091
4.145037003128072
4.101955697973087
4.606622415503137
5.425167213448267
4.67432160931816
4.237354085603107
3.1233946237379517
2.674118155692878
3.9357849495180455
4.058874392818074
4.120419114468088
4.157345947458091
4.138882530963089
4.095801225808079
4.108110170138069
3.9973296711680604
4.009638615498079
4.021947559828071
3.9727117825080467
3.9296304773530633
3.9357849495180455
3.9357849495180455
3.9111670608580615
3.831158922713046
3.9727117825080467
3.874240227868059
3.905012588693053
4.052719920653064
4.009638615498079
3.9911751990030497
3.9542483660130467
3.9850207268380675
3.9604028381780574
3.9788662546730578
3.886549172198051
3.9173215330230438
4.009638615498079
3.9419394216830552
3.9419394216830552
3.9419394216830552
3.9234760051880535
3.9357849495180455
3.9357849495180455
3.948093893848065
3.8927036443630603
3.9665573103430645
3.905012588693053
4.021947559828071
4.0711833371480655
4.0465654484880815
3.9296304773530633
3.9788662546730578
4.421988250553122
4.391215889728128
4.028102031993082
4.065028864983084
4.052719920653064
4.021947559828071
4.089646753643067
4.058874392818074
4.058874392818074
4.840492357773174
4.91434602375318
4.754329747463175
4.058874392818074
4.0465654484880815
3.671142646423015
3.874240227868059
3.9604028381780574
2.4648661020828517
3.2034027618829395
3.9542483660130467
4.077337809313075
4.0711833371480655
4.095801225808079
4.089646753643067
4.151191475293081
4.237354085603107
4.040410976323072
4.1942727804480935
4.212736196943095
4.12657358663307
4.101955697973087
4.089646753643067
4.095801225808079
4.108110170138069
4.151191475293081
4.108110170138069
4.009638615498079
3.9973296711680604
4.040410976323072
3.9973296711680604
4.015793087663061
4.077337809313075
4.040410976323072
3.9665573103430645
3.9419394216830552
4.058874392818074
4.0465654484880815
4.040410976323072
4.003484143333068
3.9604028381780574
4.003484143333068
4.003484143333068
3.948093893848065
3.9850207268380675
4.058874392818074
4.040410976323072
4.065028864983084
3.9973296711680604
3.9604028381780574
4.034256504158063
4.095801225808079
4.0465654484880815
4.1327280587980795
4.0465654484880815
3.9788662546730578
4.058874392818074
4.0465654484880815
4.009638615498079
3.9850207268380675
3.6034434526080172
3.8496223392080475
3.9911751990030497
4.631240304163148
5.892907097988342
4.101955697973087
4.009638615498079
4.077337809313075
3.9542483660130467
4.015793087663061
3.437272704152977
2.2186872154828228
3.6465247577630033
4.095801225808079
4.200427252613103
4.095801225808079
4.095801225808079
4.0711833371480655
4.0711833371480655
4.0465654484880815
4.034256504158063
4.040410976323072
3.9727117825080467
3.9727117825080467
4.003484143333068
3.9788662546730578
4.108110170138069
4.095801225808079
4.065028864983084
4.12657358663307
3.948093893848065
3.9788662546730578
3.9665573103430645
4.015793087663061
4.040410976323072
3.948093893848065
4.040410976323072
4.095801225808079
4.181963836118102
4.058874392818074
3.9234760051880535
3.763459728898022
3.843467867043037
4.009638615498079
3.9973296711680604
3.8927036443630603
3.9419394216830552
3.9604028381780574
3.9234760051880535
3.9296304773530633
3.9788662546730578
3.9234760051880535
3.8803947000330408
3.9419394216830552
4.015793087663061
4.188118308283084
4.077337809313075
3.9604028381780574
3.9542483660130467
3.9173215330230438
3.8927036443630603
3.886549172198051
3.905012588693053
3.9357849495180455
3.9973296711680604
4.040410976323072
4.034256504158063
3.9973296711680604
3.9357849495180455
3.9850207268380675
3.8680857557030492
3.8619312835380395
3.905012588693053
3.886549172198051
3.7942320897230433
3.8065410340530352
3.8803947000330408
3.8619312835380395
3.8126955062180454
3.788077617558033
3.8188499783830263
3.8803947000330408
4.305053279418103
4.2865898629231
4.052719920653064
4.095801225808079
4.101955697973087
4.0711833371480655
4.101955697973087
4.034256504158063
4.003484143333068
4.083492281478085
4.040410976323072
4.0711833371480655
4.058874392818074
4.052719920653064
3.424963759822985
3.732687368073029
4.1327280587980795
4.101955697973087
4.120419114468088
4.200427252613103
4.151191475293081
4.145037003128072
4.108110170138069
4.188118308283084
4.169654891788083
4.157345947458091
4.157345947458091
4.329671168078114
4.354289056738125
4.2865898629231
4.366598001068117
4.27428091859311
4.341980112408105
4.360443528903107
4.366598001068117
4.40967930622313
4.323516695913104
4.163500419623101
4.151191475293081
4.077337809313075
4.188118308283084
4.218890669108104
4.2065817247780855
4.723557386638154
5.702118460873318
4.7912565804531795
2.8649067928079033
3.48035400930799
4.348134584573115
4.366598001068117
4.397370361893111
4.37890694539811
4.354289056738125
4.3727524732331275
4.360443528903107
3.9727117825080467
3.9296304773530633
3.9727117825080467
4.009638615498079
3.9727117825080467
3.9727117825080467
3.9911751990030497
3.9296304773530633
4.009638615498079
3.9111670608580615
3.9296304773530633
4.003484143333068
3.905012588693053
4.095801225808079
5.6713461000482965
3.7696142010630322
3.5665166196180156
3.9788662546730578
4.0465654484880815
4.089646753643067
3.9788662546730578
3.9911751990030497
4.028102031993082
3.9234760051880535
3.9173215330230438
3.905012588693053
3.9296304773530633
3.652679229928013
3.357264566007961
3.9173215330230438
3.9173215330230438
3.874240227868059
3.9357849495180455
3.9604028381780574
3.9357849495180455
3.9850207268380675
4.009638615498079
3.9296304773530633
3.9850207268380675
3.9911751990030497
4.058874392818074
4.1327280587980795
4.108110170138069
4.101955697973087
4.083492281478085
4.108110170138069
4.120419114468088
4.0711833371480655
4.083492281478085
4.138882530963089
4.101955697973087
4.0711833371480655
4.249663029933098
4.27428091859311
4.157345947458091
4.501996388698137
4.385061417563119
4.225045141273086
4.151191475293081
4.212736196943095
4.341980112408105
4.40352483405812
4.551232166018132
4.366598001068117
4.231199613438097
4.501996388698137
4.434297194883113
4.458915083543125
4.434297194883113
3.8988581165280416
4.095801225808079
4.255817502098108
4.2065817247780855
4.255817502098108
4.261971974263091
4.2065817247780855
4.169654891788083
4.151191475293081
4.163500419623101
4.212736196943095
4.305053279418103
4.157345947458091
4.163500419623101
4.083492281478085
3.9665573103430645
4.089646753643067
4.083492281478085
3.9542483660130467
3.9357849495180455
3.9973296711680604
3.9973296711680604
4.052719920653064
3.9727117825080467
3.9357849495180455
4.040410976323072
4.101955697973087
4.114264642303079
4.089646753643067
3.8803947000330408
3.8803947000330408
3.831158922713046
3.8803947000330408
3.886549172198051
3.8619312835380395
3.8619312835380395
3.9665573103430645
3.948093893848065
3.9850207268380675
3.9542483660130467
3.9111670608580615
4.483532972203136
5.702118460873318
3.8927036443630603
3.843467867043037
3.9173215330230438
3.9173215330230438
3.5542076752879965
3.7696142010630322
4.415833778388112
3.9850207268380675
4.089646753643067
4.058874392818074
3.9727117825080467
3.9850207268380675
2.483329518577854
2.834134431982911
3.738841840238039
3.855776811373057
3.8927036443630603
3.8065410340530352
3.8680857557030492
3.8619312835380395
3.800386561888025
3.886549172198051
3.8988581165280416
3.8927036443630603
3.948093893848065
3.874240227868059
3.75730525673304
3.9234760051880535
3.9604028381780574
3.874240227868059
3.9296304773530633
3.8619312835380395
3.8065410340530352
3.843467867043037
3.8065410340530352
3.7080694794130173
3.720378423743037
3.788077617558033
3.788077617558033
3.948093893848065
3.825004450548036
3.7757686732280415
3.7757686732280415
3.8188499783830263
3.75730525673304
3.837313394878028
3.9357849495180455
3.9665573103430645
3.8927036443630603
3.948093893848065
3.948093893848065
3.9173215330230438
3.8065410340530352
3.7942320897230433
3.831158922713046
3.9173215330230438
3.8680857557030492
3.886549172198051
3.905012588693053
3.825004450548036
3.8188499783830263
3.7757686732280415
3.8619312835380395
3.9419394216830552
3.8126955062180454
3.831158922713046
4.003484143333068
4.120419114468088
4.083492281478085
3.9173215330230438
3.8927036443630603
3.948093893848065
3.9911751990030497
3.9788662546730578
4.003484143333068
3.9542483660130467
4.003484143333068
4.021947559828071
3.9542483660130467
4.009638615498079
3.9173215330230438
3.905012588693053
3.9542483660130467
3.9604028381780574
3.874240227868059
3.905012588693053
3.8680857557030492
3.8619312835380395
3.9234760051880535
3.9296304773530633
3.9234760051880535
3.8803947000330408
3.9173215330230438
3.9357849495180455
3.541898730958004
3.640370285598021
3.905012588693053
3.843467867043037
3.8188499783830263
3.8126955062180454
3.8680857557030492
3.874240227868059
3.9111670608580615
3.9173215330230438
4.015793087663061
4.077337809313075
4.077337809313075
3.9357849495180455
4.065028864983084
3.9850207268380675
3.9604028381780574
3.8927036443630603
3.9111670608580615
3.948093893848065
4.015793087663061
3.9419394216830552
3.8988581165280416
3.9911751990030497
4.003484143333068
4.021947559828071
4.557386638183142
5.129752549528216
2.8525978484779113
3.843467867043037
4.052719920653064
3.9850207268380675
4.0465654484880815
4.0465654484880815
4.1327280587980795
3.9788662546730578
4.101955697973087
4.120419114468088
4.052719920653064
4.058874392818074
4.065028864983084
4.200427252613103
4.163500419623101
4.015793087663061
3.9604028381780574
4.058874392818074
4.077337809313075
4.058874392818074
4.058874392818074
4.028102031993082
4.052719920653064
4.034256504158063
4.003484143333068
4.003484143333068
4.034256504158063
3.9665573103430645
3.9727117825080467
3.9419394216830552
3.9788662546730578
3.9665573103430645
3.8927036443630603
3.9419394216830552
3.9727117825080467
3.9604028381780574
4.034256504158063
3.9788662546730578
3.9604028381780574
3.9296304773530633
3.9665573103430645
3.781923145393024
3.8126955062180454
3.9542483660130467
3.8803947000330408
3.855776811373057
3.8988581165280416
3.874240227868059
3.781923145393024
3.8988581165280416
3.886549172198051
3.9542483660130467
3.9173215330230438
3.9419394216830552
4.034256504158063
3.8496223392080475
3.9296304773530633
3.9111670608580615
3.800386561888025
3.843467867043037
3.8496223392080475
3.781923145393024
3.9111670608580615
3.8988581165280416
3.837313394878028
3.874240227868059
3.8803947000330408
3.9296304773530633
3.7696142010630322
3.75730525673304
3.9727117825080467
3.8619312835380395
3.8988581165280416
4.003484143333068
3.9542483660130467
3.9788662546730578
4.003484143333068
4.003484143333068
3.9296304773530633
3.9727117825080467
3.9850207268380675
4.015793087663061
4.200427252613103
3.9111670608580615
3.9111670608580615
3.695760535083026
3.9234760051880535
3.9296304773530633
3.831158922713046
3.800386561888025
3.874240227868059
3.831158922713046
3.9296304773530633
3.8680857557030492
3.831158922713046
3.9234760051880535
3.763459728898022
3.825004450548036
3.9727117825080467
4.015793087663061
3.9419394216830552
3.9604028381780574
3.8927036443630603
3.9665573103430645
3.948093893848065
4.003484143333068
4.052719920653064
3.9850207268380675
3.9850207268380675
4.089646753643067
3.948093893848065
3.9357849495180455
3.9665573103430645
4.0711833371480655
4.015793087663061
3.9911751990030497
4.0711833371480655
4.040410976323072
4.009638615498079
4.021947559828071
4.5820045268431535
5.81905343200831
4.058874392818074
4.065028864983084
3.8065410340530352
2.304849825792821
3.277256427862973
4.009638615498079
4.0711833371480655
4.040410976323072
4.015793087663061
4.015793087663061
4.101955697973087
3.9419394216830552
3.9911751990030497
3.9542483660130467
4.034256504158063
4.089646753643067
4.077337809313075
4.052719920653064
3.9973296711680604
3.9850207268380675
4.058874392818074
4.0711833371480655
4.009638615498079
4.028102031993082
4.077337809313075
4.034256504158063
4.089646753643067
4.003484143333068
4.040410976323072
3.9604028381780574
4.040410976323072
4.114264642303079
4.034256504158063
4.003484143333068
4.120419114468088
3.9357849495180455
3.948093893848065
4.015793087663061
3.9665573103430645
3.9542483660130467
3.9604028381780574
4.015793087663061
3.9850207268380675
3.788077617558033
3.886549172198051
3.9296304773530633
3.9419394216830552
3.905012588693053
3.886549172198051
3.8927036443630603
3.9296304773530633
3.9296304773530633
3.9234760051880535
3.905012588693053
3.9604028381780574
4.052719920653064
4.138882530963089
3.9850207268380675
3.8927036443630603
3.9111670608580615
3.9665573103430645
3.9727117825080467
3.9911751990030497
4.015793087663061
3.886549172198051
3.9111670608580615
4.034256504158063
3.9357849495180455
3.9111670608580615
3.905012588693053
3.837313394878028
3.874240227868059
3.9234760051880535
4.520459805193139
5.117443605198224
4.366598001068117
4.077337809313075
3.9542483660130467
3.9173215330230438
3.8927036443630603
3.8988581165280416
2.6371913227028756
2.581801073217871
3.8496223392080475
3.837313394878028
3.831158922713046
3.800386561888025
3.825004450548036
3.855776811373057
3.8126955062180454
3.825004450548036
3.905012588693053
3.9234760051880535
3.874240227868059
3.886549172198051
3.874240227868059
3.9296304773530633
3.9357849495180455
3.825004450548036
3.9604028381780574
3.9111670608580615
3.8988581165280416
3.9788662546730578
3.8803947000330408
3.9296304773530633
4.003484143333068
3.886549172198051
3.9234760051880535
3.9173215330230438
3.843467867043037
3.8619312835380395
3.6280613412680016
3.61575239693801
3.948093893848065
3.8496223392080475
3.8496223392080475
3.8188499783830263
3.788077617558033
3.8188499783830263
3.9234760051880535
4.5327687495231315
5.640573739223304
3.886549172198051
3.886549172198051
3.9973296711680604
4.021947559828071
3.8619312835380395
3.7696142010630322
2.434093741257831
2.624882378372884
3.6649881742580046
3.6465247577630033
3.591134508277999
3.6219068691030203
3.6219068691030203
3.6465247577630033
3.671142646423015
3.578825563948007
3.8188499783830263
3.8619312835380395
3.591134508277999
3.572671091782997
3.640370285598021
3.701915007248036
3.701915007248036
3.5665166196180156
3.6034434526080172
3.578825563948007
3.560362147453006
3.5665166196180156
3.61575239693801
3.6649881742580046
3.375727982502963
3.3203377330179586
3.671142646423015
3.6834515907530063
3.640370285598021
3.695760535083026
3.695760535083026
3.61575239693801
3.6034434526080172
3.5849800361130173
3.5665166196180156
3.609597924773
3.5849800361130173
3.658833702093023
3.763459728898022
3.695760535083026
3.640370285598021
3.8126955062180454
3.75730525673304
3.6649881742580046
3.6896060629180156
3.701915007248036
3.658833702093023
3.671142646423015
3.658833702093023
3.6896060629180156
3.61575239693801
3.6219068691030203
3.560362147453006
3.541898730958004
3.6219068691030203
3.6219068691030203
3.720378423743037
3.7265328959080186
3.541898730958004
3.4988174258029914
3.5234353144630024
3.486508481473
3.4434271763179867
3.4434271763179867
3.4988174258029914
3.332646677347978
3.117240151572942
3.289565372192965
3.3511100938429803
3.301874316522957
3.3141832608529764
3.2464840670379527
3.289565372192965
3.3388011495129604
3.289565372192965
3.301874316522957
3.2957198443579747
3.308028788687967
3.394191398997992
3.529589786627985
3.3449556216779697
3.258793011367972
3.3388011495129604
3.3511100938429803
3.381882454667973
3.363419038172971
3.289565372192965
3.2526385392029624
3.264947483532954
3.264947483532954
3.3880369268329824
3.2526385392029624
3.468045064977998
3.3264922051829684
3.2464840670379527
3.277256427862973
3.3511100938429803
3.3880369268329824
3.2526385392029624
3.258793011367972
3.289565372192965
3.258793011367972
3.3203377330179586
3.2957198443579747
3.289565372192965
3.289565372192965
3.3141832608529764
3.357264566007961
3.400345871162973
3.3880369268329824
3.48035400930799
3.4557361206479786
3.4618905928129893
3.437272704152977
3.9111670608580615
4.7297118588031655
3.9727117825080467
3.006459652602933
1.6647847206327224
3.0987767350779407
3.504971897968001
3.5357442587929944
3.658833702093023
3.732687368073029
3.8126955062180454
3.9665573103430645
3.874240227868059
3.6649881742580046
3.5234353144630024
3.578825563948007
3.5172808422979926
3.5234353144630024
3.5234353144630024
3.4434271763179867
3.1049312072429505
3.264947483532954
3.4741995371429804
3.6649881742580046
3.6834515907530063
3.7265328959080186
3.8188499783830263
3.9911751990030497
4.095801225808079
4.181963836118102
4.243508557768089
4.341980112408105
4.415833778388112
4.483532972203136
4.5327687495231315
4.471224027873144
4.434297194883113
4.415833778388112
4.391215889728128
4.458915083543125
4.440451667048122
4.3112077515831135
4.440451667048122
4.520459805193139
4.477378500038126
4.40967930622313
4.452760611378115
4.52661427735815
4.452760611378115
4.54507769385315
4.501996388698137
4.575850054678144
4.668167137153151
4.662012664988168
4.6435492484931675
4.668167137153151
4.662012664988168
4.6435492484931675
4.705093970143154
4.5943134711731455
4.7297118588031655
4.8528013021031935
4.772793163958178
4.735866330968175
4.908191551588198
5.018972050558207
4.766638691793168
4.871264718598195
4.871264718598195
4.871264718598195
4.846646829938186
4.754329747463175
4.8528013021031935
4.754329747463175
4.803565524783171
5.19745174334324
4.705093970143154
4.3727524732331275
4.200427252613103
4.181963836118102
4.157345947458091
4.040410976323072
4.009638615498079
3.9911751990030497
3.948093893848065
3.9419394216830552
3.9173215330230438
3.9111670608580615
3.738841840238039
3.4618905928129893
3.8988581165280416
3.9850207268380675
3.9542483660130467
3.905012588693053
3.9173215330230438
3.8803947000330408
3.837313394878028
3.781923145393024
3.9234760051880535
3.831158922713046
3.905012588693053
3.9111670608580615
3.9604028381780574
3.948093893848065
3.9173215330230438
4.065028864983084
3.9296304773530633
3.8927036443630603
4.015793087663061
3.9850207268380675
3.9542483660130467
4.009638615498079
4.0711833371480655
4.052719920653064
3.9850207268380675
4.169654891788083
4.618931359833156
4.360443528903107
4.114264642303079
4.0465654484880815
4.083492281478085
4.101955697973087
4.649703720658149
5.905216042318334
4.0465654484880815
4.120419114468088
4.120419114468088
4.169654891788083
3.9419394216830552
2.3663945474428347
2.8895246814679143
3.855776811373057
4.077337809313075
4.095801225808079
4.108110170138069
4.095801225808079
4.108110170138069
3.9973296711680604
3.9604028381780574
3.9234760051880535
3.9665573103430645
3.9173215330230438
3.8619312835380395
3.9357849495180455
5.203606215508222
5.308232242313249
3.75115078456803
4.021947559828071
3.948093893848065
4.052719920653064
4.101955697973087
4.083492281478085
2.9202970422929075
2.55718318455786
3.8496223392080475
3.9419394216830552
3.9665573103430645
4.114264642303079
3.9911751990030497
3.8988581165280416
3.9296304773530633
3.8803947000330408
3.9604028381780574
4.003484143333068
4.003484143333068
4.108110170138069
4.145037003128072
4.052719920653064
4.077337809313075
4.003484143333068
4.028102031993082
4.052719920653064
4.021947559828071
4.077337809313075
4.101955697973087
3.9973296711680604
4.009638615498079
4.065028864983084
4.021947559828071
4.0465654484880815
4.009638615498079
4.040410976323072
3.9727117825080467
3.9788662546730578
4.034256504158063
3.9788662546730578
3.9911751990030497
4.021947559828071
4.065028864983084
4.101955697973087
4.052719920653064
4.0465654484880815
4.028102031993082
3.9911751990030497
4.021947559828071
4.040410976323072
4.003484143333068
3.9542483660130467
4.329671168078114
4.5820045268431535
4.034256504158063
3.9419394216830552
3.9911751990030497
3.9788662546730578
3.9542483660130467
3.9788662546730578
3.9296304773530633
3.8988581165280416
3.9419394216830552
3.874240227868059
3.7449963124030208
3.8496223392080475
3.301874316522957
3.3264922051829684
3.6834515907530063
3.75115078456803
3.732687368073029
3.7265328959080186
3.7449963124030208
3.7449963124030208
3.6896060629180156
3.7080694794130173
3.6896060629180156
3.671142646423015
3.763459728898022
3.825004450548036
4.421988250553122
4.034256504158063
3.837313394878028
3.7696142010630322
3.720378423743037
3.7142239515780275
3.732687368073029
3.677297118588024
3.6219068691030203
3.6280613412680016
3.591134508277999
3.5972889804430093
3.640370285598021
3.2957198443579747
2.981841763942921
3.2464840670379527
3.3264922051829684
3.308028788687967
3.9665573103430645
5.172833854683229
2.2063782711528033
2.0586709391927913
3.221866178377941
3.406500343327984
3.375727982502963
3.4557361206479786
3.5172808422979926
3.572671091782997
3.701915007248036
3.4618905928129893
3.5357442587929944
3.541898730958004
3.4434271763179867
3.511126370132983
3.529589786627985
3.4434271763179867
3.4741995371429804
3.560362147453006
3.5357442587929944
3.4741995371429804
3.5172808422979926
3.277256427862973
3.271101955697964
3.486508481473
3.5665166196180156
3.671142646423015
3.7449963124030208
3.7142239515780275
3.6034434526080172
3.5357442587929944
3.578825563948007
3.412654815492993
3.541898730958004
3.511126370132983
3.5849800361130173
3.578825563948007
3.486508481473
3.6034434526080172
3.5357442587929944
3.6034434526080172
3.6219068691030203
3.6834515907530063
3.677297118588024
3.75115078456803
3.7265328959080186
3.677297118588024
3.7142239515780275
3.905012588693053
4.077337809313075
4.114264642303079
3.9604028381780574
4.009638615498079
4.028102031993082
4.021947559828071
4.120419114468088
4.145037003128072
4.083492281478085
4.034256504158063
4.052719920653064
4.083492281478085
4.12657358663307
4.034256504158063
4.003484143333068
4.028102031993082
3.874240227868059
4.034256504158063
4.0711833371480655
4.108110170138069
4.101955697973087
4.058874392818074
4.065028864983084
4.114264642303079
4.089646753643067
4.077337809313075
4.052719920653064
4.1327280587980795
4.0711833371480655
4.089646753643067
4.108110170138069
4.200427252613103
4.101955697973087
4.12657358663307
4.089646753643067
4.052719920653064
4.120419114468088
4.089646753643067
4.095801225808079
4.077337809313075
4.163500419623101
4.366598001068117
4.975890745403193
4.446606139213133
4.292744335088111
4.354289056738125
4.434297194883113
4.329671168078114
4.37890694539811
4.385061417563119
4.341980112408105
4.261971974263091
4.225045141273086
4.243508557768089
4.341980112408105
3.905012588693053
3.511126370132983
4.052719920653064
4.163500419623101
4.120419114468088
4.1942727804480935
4.163500419623101
4.243508557768089
4.218890669108104
4.200427252613103
4.218890669108104
4.231199613438097
4.261971974263091
4.2681264464281
4.2865898629231
4.218890669108104
4.052719920653064
4.68047608148317
5.677500572213306
4.538923221688139
4.095801225808079
4.108110170138069
4.095801225808079
1.9601993845527748
3.3449556216779697
3.8188499783830263
3.9111670608580615
4.015793087663061
4.114264642303079
4.003484143333068
4.065028864983084
3.9173215330230438
4.003484143333068
4.015793087663061
3.8927036443630603
3.8619312835380395
3.9111670608580615
3.9850207268380675
4.009638615498079
3.886549172198051
3.9173215330230438
3.9542483660130467
3.8680857557030492
3.886549172198051
3.905012588693053
3.9973296711680604
4.003484143333068
3.8126955062180454
3.9911751990030497
3.9604028381780574
3.9542483660130467
4.021947559828071
3.9234760051880535
3.948093893848065
4.003484143333068
4.089646753643067
4.021947559828071
3.9788662546730578
3.9788662546730578
4.052719920653064
4.083492281478085
4.108110170138069
4.052719920653064
4.058874392818074
4.021947559828071
4.083492281478085
4.108110170138069
4.065028864983084
4.1942727804480935
4.735866330968175
4.341980112408105
4.114264642303079
4.1327280587980795
4.138882530963089
4.1327280587980795
4.108110170138069
4.138882530963089
4.1758093639530935
4.052719920653064
4.114264642303079
4.058874392818074
4.200427252613103
4.040410976323072
3.166475928892937
3.8065410340530352
4.021947559828071
3.905012588693053
3.9357849495180455
3.9604028381780574
3.9604028381780574
3.8803947000330408
3.9173215330230438
3.9111670608580615
3.9850207268380675
3.948093893848065
3.9111670608580615
4.040410976323072
3.8927036443630603
3.781923145393024
3.7449963124030208
3.763459728898022
3.9604028381780574
3.9234760051880535
4.009638615498079
3.9604028381780574
3.9173215330230438
3.7449963124030208
3.7265328959080186
4.255817502098108
5.591337961903281
4.021947559828071
3.9911751990030497
3.763459728898022
3.8126955062180454
3.781923145393024
3.8188499783830263
3.037232013427927
2.212532743317813
3.4434271763179867
3.634215813433012
3.701915007248036
3.695760535083026
3.6649881742580046
3.671142646423015
3.511126370132983
3.5665166196180156
3.6834515907530063
3.7142239515780275
3.634215813433012
3.640370285598021
3.732687368073029
3.738841840238039
3.763459728898022
3.75115078456803
3.738841840238039
3.7080694794130173
3.7142239515780275
3.7265328959080186
3.837313394878028
4.483532972203136
5.388240380458265
4.902037079423188
4.225045141273086
3.9665573103430645
4.2681264464281
4.249663029933098
4.200427252613103
3.7942320897230433
2.4279392690928487
3.640370285598021
4.034256504158063
4.058874392818074
4.009638615498079
4.077337809313075
4.101955697973087
4.003484143333068
4.114264642303079
4.2065817247780855
4.249663029933098
4.169654891788083
4.108110170138069
4.145037003128072
4.12657358663307
4.169654891788083
4.200427252613103
4.428142722718132
4.255817502098108
4.163500419623101
4.169654891788083
4.145037003128072
4.169654891788083
4.292744335088111
4.200427252613103
4.1758093639530935
4.1942727804480935
4.243508557768089
4.151191475293081
4.145037003128072
4.138882530963089
3.9604028381780574
4.058874392818074
4.163500419623101
4.12657358663307
4.114264642303079
4.114264642303079
4.108110170138069
4.0465654484880815
4.040410976323072
4.101955697973087
4.145037003128072
4.1758093639530935
4.151191475293081
4.261971974263091
4.145037003128072
4.101955697973087
4.12657358663307
4.1327280587980795
4.108110170138069
4.089646753643067
4.0465654484880815
4.0465654484880815
4.040410976323072
3.8496223392080475
4.083492281478085
4.065028864983084
3.8927036443630603
3.9173215330230438
3.837313394878028
3.8496223392080475
3.720378423743037
3.732687368073029
3.7449963124030208
3.7142239515780275
3.732687368073029
3.7757686732280415
3.788077617558033
3.800386561888025
3.855776811373057
3.9173215330230438
3.855776811373057
3.9727117825080467
3.9973296711680604
4.0465654484880815
4.021947559828071
4.040410976323072
3.9727117825080467
3.9973296711680604
4.028102031993082
3.9850207268380675
3.9357849495180455
3.9788662546730578
3.8988581165280416
3.8988581165280416
3.8988581165280416
3.7449963124030208
3.8988581165280416
4.003484143333068
3.9604028381780574
3.9296304773530633
3.9296304773530633
3.9788662546730578
3.9296304773530633
3.9173215330230438
4.003484143333068
3.9357849495180455
3.8619312835380395
3.9173215330230438
3.8680857557030492
3.788077617558033
4.452760611378115
3.541898730958004
3.5542076752879965
3.7449963124030208
3.75730525673304
3.7757686732280415
3.75730525673304
3.8126955062180454
3.8496223392080475
3.7449963124030208
3.8065410340530352
3.7942320897230433
4.489687444368147
5.615955850563292
3.825004450548036
3.855776811373057
2.5325652958978484
2.612573434042864
3.7142239515780275
3.8988581165280416
3.8803947000330408
3.843467867043037
3.9111670608580615
3.8988581165280416
3.8680857557030492
3.8988581165280416
3.9111670608580615
3.855776811373057
3.9357849495180455
3.886549172198051
3.9173215330230438
3.855776811373057
3.7696142010630322
3.837313394878028
3.9357849495180455
4.015793087663061
4.095801225808079
4.089646753643067
4.120419114468088
4.188118308283084
4.0711833371480655
4.052719920653064
4.040410976323072
4.138882530963089
4.058874392818074
4.108110170138069
4.077337809313075
4.0711833371480655
4.101955697973087
4.095801225808079
4.151191475293081
4.108110170138069
4.101955697973087
4.1758093639530935
4.034256504158063
4.095801225808079
4.021947559828071
4.145037003128072
4.101955697973087
4.095801225808079
4.0711833371480655
4.157345947458091
4.1327280587980795
4.0711833371480655
3.9727117825080467
4.089646753643067
4.065028864983084
3.9727117825080467
3.8126955062180454
3.9419394216830552
3.948093893848065
3.9234760051880535
3.9111670608580615
3.9788662546730578
3.8988581165280416
3.8496223392080475
4.015793087663061
3.9973296711680604
3.886549172198051
4.114264642303079
4.138882530963089
4.120419114468088
4.040410976323072
4.114264642303079
4.163500419623101
4.163500419623101
4.1942727804480935
4.1942727804480935
4.249663029933098
4.145037003128072
4.163500419623101
4.2065817247780855
4.1758093639530935
4.188118308283084
4.323516695913104
4.237354085603107
4.101955697973087
4.1327280587980795
4.181963836118102
4.218890669108104
4.151191475293081
4.12657358663307
4.101955697973087
4.058874392818074
4.163500419623101
4.077337809313075
4.089646753643067
4.009638615498079
4.231199613438097
4.225045141273086
4.0465654484880815
4.0711833371480655
4.083492281478085
4.034256504158063
4.145037003128072
4.212736196943095
4.145037003128072
4.212736196943095
4.200427252613103
4.169654891788083
4.163500419623101
4.169654891788083
4.1758093639530935
4.163500419623101
4.181963836118102
4.292744335088111
4.341980112408105
4.292744335088111
4.2865898629231
4.366598001068117
4.3173622237481215
4.27428091859311
4.231199613438097
4.1327280587980795
4.797411052618189
5.98522418046335
3.9296304773530633
4.108110170138069
4.157345947458091
4.225045141273086
4.237354085603107
3.2526385392029624
2.538719768062857
3.9173215330230438
3.9911751990030497
4.058874392818074
4.058874392818074
4.040410976323072
3.9911751990030497
4.077337809313075
3.9234760051880535
3.763459728898022
4.040410976323072
4.003484143333068
3.9419394216830552
3.9727117825080467
4.052719920653064
4.058874392818074
3.9911751990030497
4.114264642303079
4.120419114468088
4.114264642303079
4.188118308283084
4.3173622237481215
4.305053279418103
4.083492281478085
4.089646753643067
4.200427252613103
4.1758093639530935
4.077337809313075
4.0711833371480655
4.1758093639530935
4.40967930622313
5.363622491798253
4.8528013021031935
4.212736196943095
4.145037003128072
4.0465654484880815
4.034256504158063
4.225045141273086
3.5172808422979926
2.3540856031128428
3.8065410340530352
4.101955697973087
4.101955697973087
4.052719920653064
4.095801225808079
4.1758093639530935
4.145037003128072
4.0711833371480655
4.212736196943095
4.298898807253093
4.114264642303079
4.1942727804480935
4.212736196943095
4.27428091859311
4.360443528903107
4.218890669108104
4.292744335088111
4.2865898629231
4.3112077515831135
4.3112077515831135
4.298898807253093
4.249663029933098
4.261971974263091
4.40352483405812
4.391215889728128
4.280435390758093
4.366598001068117
4.354289056738125
4.249663029933098
4.292744335088111
4.2681264464281
4.243508557768089
4.212736196943095
4.157345947458091
4.188118308283084
4.212736196943095
3.9727117825080467
3.886549172198051
4.077337809313075
4.138882530963089
4.138882530963089
4.058874392818074
4.089646753643067
4.101955697973087
4.089646753643067
4.668167137153151
3.7757686732280415
3.781923145393024
4.052719920653064
4.181963836118102
4.778947636123188
4.446606139213133
4.138882530963089
4.163500419623101
4.157345947458091
4.231199613438097
4.114264642303079
4.145037003128072
4.089646753643067
4.108110170138069
3.9911751990030497
3.9419394216830552
3.9296304773530633
3.831158922713046
3.258793011367972
3.7449963124030208
4.021947559828071
4.058874392818074
4.021947559828071
4.089646753643067
4.0465654484880815
4.0465654484880815
4.114264642303079
4.083492281478085
4.698939497978172
5.954451819638329
3.825004450548036
2.4156303247628297
3.572671091782997
4.077337809313075
4.163500419623101
4.108110170138069
4.108110170138069
4.089646753643067
4.108110170138069
3.9850207268380675
3.9604028381780574
3.855776811373057
3.843467867043037
3.8126955062180454
3.874240227868059
3.8065410340530352
3.7449963124030208
3.831158922713046
3.8496223392080475
3.831158922713046
3.886549172198051
3.886549172198051
3.9111670608580615
3.9973296711680604
3.8988581165280416
3.8619312835380395
3.9296304773530633
3.948093893848065
4.065028864983084
4.5820045268431535
4.1758093639530935
3.9911751990030497
3.9234760051880535
3.8927036443630603
3.831158922713046
3.800386561888025
3.825004450548036
3.8188499783830263
3.75115078456803
3.75730525673304
3.7080694794130173
3.695760535083026
3.7080694794130173
3.61575239693801
3.677297118588024
3.7449963124030208
3.75115078456803
3.7942320897230433
3.7942320897230433
3.738841840238039
3.7696142010630322
3.800386561888025
3.837313394878028
3.886549172198051
3.8988581165280416
3.9419394216830552
3.640370285598021
3.486508481473
3.8988581165280416
3.8680857557030492
3.8988581165280416
3.905012588693053
3.9788662546730578
3.9111670608580615
3.75115078456803
3.9173215330230438
3.905012588693053
3.886549172198051
3.8496223392080475
3.8803947000330408
3.9973296711680604
3.855776811373057
3.9788662546730578
4.145037003128072
4.145037003128072
4.089646753643067
4.058874392818074
4.163500419623101
4.218890669108104
4.145037003128072
4.163500419623101
4.1942727804480935
4.200427252613103
4.237354085603107
4.120419114468088
4.108110170138069
4.261971974263091
4.335825640243124
4.225045141273086
4.280435390758093
4.225045141273086
4.249663029933098
4.2065817247780855
4.188118308283084
4.1327280587980795
4.188118308283084
4.157345947458091
4.329671168078114
4.575850054678144
4.225045141273086
4.255817502098108
4.237354085603107
4.089646753643067
4.163500419623101
4.225045141273086
4.231199613438097
4.200427252613103
4.0465654484880815
4.003484143333068
4.1327280587980795
4.237354085603107
3.9357849495180455
3.948093893848065
4.249663029933098
4.218890669108104
4.335825640243124
4.366598001068117
4.3173622237481215
4.27428091859311
4.101955697973087
4.692785025813162
5.905216042318334
4.151191475293081
4.108110170138069
4.114264642303079
4.200427252613103
2.5325652958978484
3.018768596932925
3.9665573103430645
4.114264642303079
4.058874392818074
4.151191475293081
4.151191475293081
4.021947559828071
4.009638615498079
3.9788662546730578
4.12657358663307
4.255817502098108
4.341980112408105
4.840492357773174
4.465069555708134
4.329671168078114
4.292744335088111
4.2865898629231
4.255817502098108
4.188118308283084
4.083492281478085
4.120419114468088
4.138882530963089
4.009638615498079
4.065028864983084
4.169654891788083
3.7757686732280415
3.578825563948007
4.083492281478085
4.108110170138069
4.120419114468088
4.089646753643067
3.9357849495180455
4.028102031993082
4.040410976323072
4.021947559828071
4.028102031993082
4.009638615498079
4.058874392818074
4.0465654484880815
3.9665573103430645
4.003484143333068
4.028102031993082
4.003484143333068
3.9542483660130467
4.009638615498079
3.9111670608580615
3.9296304773530633
3.948093893848065
3.9173215330230438
3.9727117825080467
3.9542483660130467
3.9788662546730578
4.083492281478085
4.003484143333068
3.9727117825080467
4.052719920653064
3.9665573103430645
4.034256504158063
4.083492281478085
3.9111670608580615
4.015793087663061
4.009638615498079
3.886549172198051
3.9296304773530633
3.9296304773530633
3.9665573103430645
4.065028864983084
3.8803947000330408
3.9357849495180455
3.886549172198051
4.015793087663061
4.003484143333068
3.9604028381780574
3.9911751990030497
4.009638615498079
3.9357849495180455
3.9727117825080467
4.083492281478085
4.0465654484880815
4.1327280587980795
3.9973296711680604
3.9911751990030497
4.034256504158063
4.034256504158063
4.058874392818074
4.0465654484880815
4.0465654484880815
4.077337809313075
3.9850207268380675
3.9542483660130467
3.837313394878028
3.8619312835380395
3.874240227868059
3.837313394878028
3.9973296711680604
3.9234760051880535
3.8680857557030492
3.855776811373057
3.9111670608580615
3.948093893848065
4.1327280587980795
5.886752625823332
4.169654891788083
4.089646753643067
4.169654891788083
4.009638615498079
3.9542483660130467
4.028102031993082
3.5357442587929944
2.1571424938328088
3.5849800361130173
3.9850207268380675
4.021947559828071
3.9850207268380675
3.905012588693053
4.520459805193139
4.9266549680832
2.1079067165127863
3.634215813433012
3.7757686732280415
3.7696142010630322
3.75730525673304
3.7942320897230433
3.75730525673304
3.9419394216830552
3.9234760051880535
3.9850207268380675
3.9973296711680604
3.9911751990030497
4.003484143333068
4.015793087663061
4.065028864983084
4.040410976323072
3.9296304773530633
4.015793087663061
4.034256504158063
3.9357849495180455
3.9173215330230438
3.9357849495180455
3.9173215330230438
3.8927036443630603
3.874240227868059
3.8988581165280416
3.9173215330230438
3.8680857557030492
3.8988581165280416
3.9788662546730578
3.9173215330230438
3.9665573103430645
4.335825640243124
4.1327280587980795
3.9973296711680604
4.009638615498079
3.9296304773530633
3.9173215330230438
3.886549172198051
3.948093893848065
4.015793087663061
3.9111670608580615
3.9911751990030497
4.003484143333068
3.9542483660130467
3.9788662546730578
3.437272704152977
3.658833702093023
3.9296304773530633
3.9727117825080467
4.052719920653064
3.9234760051880535
3.948093893848065
4.089646753643067
4.292744335088111
4.077337809313075
4.0711833371480655
4.101955697973087
3.9911751990030497
4.218890669108104
4.397370361893111
4.089646753643067
3.9973296711680604
3.9419394216830552
3.874240227868059
3.874240227868059
3.9604028381780574
3.9911751990030497
3.905012588693053
3.9604028381780574
4.034256504158063
3.9973296711680604
4.021947559828071
3.825004450548036
3.738841840238039
4.003484143333068
3.9604028381780574
3.9911751990030497
3.9850207268380675
4.009638615498079
4.015793087663061
4.052719920653064
3.9604028381780574
3.9665573103430645
4.0465654484880815
3.9357849495180455
3.9296304773530633
4.003484143333068
3.837313394878028
3.9788662546730578
3.9357849495180455
3.9727117825080467
3.9850207268380675
3.9973296711680604
3.886549172198051
4.052719920653064
4.101955697973087
4.077337809313075
4.114264642303079
4.145037003128072
4.181963836118102
4.151191475293081
4.052719920653064
4.249663029933098
4.27428091859311
4.323516695913104
4.3112077515831135
4.280435390758093
4.27428091859311
4.3727524732331275
4.2065817247780855
4.218890669108104
4.225045141273086
4.225045141273086
4.2865898629231
4.3112077515831135
4.255817502098108
4.249663029933098
4.2681264464281
4.292744335088111
5.062053355713221
6.360646982528445
4.434297194883113
4.569695582513134
4.138882530963089
2.587955545382853
3.831158922713046
4.2865898629231
4.237354085603107
4.225045141273086
4.261971974263091
4.181963836118102
4.089646753643067
4.2865898629231
4.2065817247780855
4.12657358663307
4.138882530963089
4.101955697973087
4.1942727804480935
4.138882530963089
4.101955697973087
4.089646753643067
4.2865898629231
4.151191475293081
4.1758093639530935
4.1942727804480935
4.2681264464281
4.323516695913104
4.225045141273086
3.9911751990030497
3.9357849495180455
4.021947559828071
4.015793087663061
3.9542483660130467
3.9173215330230438
4.028102031993082
3.948093893848065
3.948093893848065
4.015793087663061
4.034256504158063
4.040410976323072
3.9173215330230438
3.9111670608580615
4.015793087663061
3.9665573103430645
3.8927036443630603
3.9542483660130467
3.8988581165280416
3.9727117825080467
4.151191475293081
4.225045141273086
4.3112077515831135
4.495841916533129
4.329671168078114
4.114264642303079
4.181963836118102
4.231199613438097
4.2865898629231
4.280435390758093
4.81587446911319
3.8927036443630603
3.8803947000330408
4.200427252613103
4.169654891788083
4.305053279418103
4.354289056738125
4.077337809313075
4.200427252613103
4.255817502098108
4.3112077515831135
4.188118308283084
4.108110170138069
4.108110170138069
4.1327280587980795
4.243508557768089
4.157345947458091
3.9973296711680604
3.800386561888025
3.8803947000330408
3.9234760051880535
4.028102031993082
3.9542483660130467
3.9911751990030497
4.021947559828071
3.874240227868059
3.9357849495180455
3.9727117825080467
3.9357849495180455
3.9419394216830552
3.9173215330230438
4.015793087663061
4.0711833371480655
3.8927036443630603
3.886549172198051
3.886549172198051
3.843467867043037
3.8126955062180454
3.7942320897230433
3.800386561888025
3.7942320897230433
3.843467867043037
3.800386561888025
3.8927036443630603
3.874240227868059
4.298898807253093
4.341980112408105
3.8496223392080475
3.634215813433012
3.7265328959080186
3.738841840238039
3.720378423743037
3.75115078456803
3.75115078456803
3.825004450548036
3.837313394878028
3.695760535083026
3.763459728898022
3.831158922713046
3.363419038172971
3.541898730958004
3.837313394878028
3.8496223392080475
4.385061417563119
5.277459881488257
4.385061417563119
4.028102031993082
3.9296304773530633
3.9665573103430645
3.948093893848065
3.843467867043037
2.298695353627811
3.2095572340479492
3.8126955062180454
3.9173215330230438
3.9727117825080467
3.8988581165280416
3.9665573103430645
3.9604028381780574
3.9296304773530633
3.9727117825080467
3.9234760051880535
3.9419394216830552
3.9727117825080467
4.138882530963089
4.231199613438097
4.3112077515831135
4.188118308283084
4.1942727804480935
4.249663029933098
4.1942727804480935
4.212736196943095
4.2065817247780855
4.218890669108104
4.298898807253093
4.27428091859311
4.27428091859311
4.188118308283084
4.231199613438097
4.391215889728128
4.501996388698137
4.323516695913104
4.483532972203136
4.385061417563119
4.397370361893111
4.489687444368147
4.471224027873144
4.385061417563119
4.452760611378115
4.397370361893111
4.397370361893111
4.298898807253093
4.3112077515831135
4.341980112408105
4.458915083543125
4.415833778388112
4.3727524732331275
4.52661427735815
6.348338038198453
4.957427328908192
4.557386638183142
4.471224027873144
4.501996388698137
4.52661427735815
4.489687444368147
4.157345947458091
2.6987360443528896
3.9357849495180455
4.255817502098108
4.329671168078114
4.385061417563119
4.348134584573115
4.3112077515831135
4.354289056738125
4.477378500038126
4.637394776328158
4.6004679433381535
4.588158999008135
4.551232166018132
4.618931359833156
4.606622415503137
4.52661427735815
4.40352483405812
4.557386638183142
4.6004679433381535
4.5820045268431535
4.501996388698137
4.508150860863147
4.501996388698137
4.538923221688139
4.465069555708134
4.428142722718132
4.428142722718132
4.471224027873144
4.5327687495231315
4.618931359833156
4.440451667048122
4.366598001068117
4.305053279418103
4.237354085603107
4.280435390758093
4.323516695913104
4.360443528903107
4.292744335088111
4.3112077515831135
4.354289056738125
4.329671168078114
4.255817502098108
4.341980112408105
4.858955774268176
4.452760611378115
4.231199613438097
4.218890669108104
4.101955697973087
4.040410976323072
4.0465654484880815
3.948093893848065
3.843467867043037
3.8188499783830263
3.7757686732280415
3.677297118588024
3.75730525673304
3.634215813433012
2.9202970422929075
3.5542076752879965
4.077337809313075
4.932809440248209
4.188118308283084
2.858752320642893
2.194069326822812
3.4926629536379816
3.677297118588024
3.6896060629180156
3.6034434526080172
3.609597924773
3.6034434526080172
3.5234353144630024
3.308028788687967
3.486508481473
3.5357442587929944
3.486508481473
3.6649881742580046
3.75115078456803
3.671142646423015
3.7265328959080186
3.7449963124030208
3.7696142010630322
3.75115078456803
3.738841840238039
3.886549172198051
4.606622415503137
4.225045141273086
3.9357849495180455
3.8680857557030492
3.905012588693053
3.843467867043037
3.8496223392080475
3.8619312835380395
3.8619312835380395
3.8496223392080475
3.8065410340530352
3.788077617558033
3.8496223392080475
3.763459728898022
3.1295490959029335
3.5849800361130173
3.843467867043037
3.75115078456803
3.831158922713046
3.886549172198051
3.855776811373057
3.8065410340530352
3.788077617558033
3.781923145393024
3.8126955062180454
3.831158922713046
3.781923145393024
4.083492281478085
4.218890669108104
3.8988581165280416
3.8126955062180454
3.8496223392080475
3.9296304773530633
3.886549172198051
3.788077617558033
3.874240227868059
3.75730525673304
3.6649881742580046
3.738841840238039
3.8803947000330408
3.837313394878028
4.077337809313075
4.169654891788083
3.8065410340530352
3.8065410340530352
3.8065410340530352
3.8188499783830263
3.8126955062180454
3.8065410340530352
3.75115078456803
3.7265328959080186
3.763459728898022
3.7757686732280415
3.7696142010630322
3.7142239515780275
3.1480125123979352
3.4926629536379816
3.8065410340530352
3.8188499783830263
3.8188499783830263
3.825004450548036
3.8803947000330408
3.7696142010630322
3.781923145393024
3.8188499783830263
3.7696142010630322
3.837313394878028
3.843467867043037
4.003484143333068
4.034256504158063
3.9111670608580615
3.8619312835380395
3.9973296711680604
3.9296304773530633
3.732687368073029
3.634215813433012
3.5542076752879965
3.424963759822985
3.468045064977998
3.449581648482997
3.4434271763179867
3.4557361206479786
3.800386561888025
4.034256504158063
3.5849800361130173
3.5542076752879965
3.5542076752879965
3.5665166196180156
3.6219068691030203
3.529589786627985
3.4926629536379816
3.4926629536379816
3.5665166196180156
3.5357442587929944
3.5542076752879965
3.5542076752879965
3.055695429922928
3.468045064977998
4.760484219628157
4.034256504158063
3.609597924773
3.572671091782997
3.5172808422979926
3.0003051804379233
1.677093664962742
3.043386485592936
3.357264566007961
3.4618905928129893
3.4741995371429804
3.4988174258029914
3.855776811373057
3.6219068691030203
3.48035400930799
3.412654815492993
3.3880369268329824
3.437272704152977
3.4311182319879947
3.424963759822985
3.511126370132983
3.548053203123014
3.400345871162973
3.400345871162973
3.3880369268329824
3.3449556216779697
3.043386485592936
3.3141832608529764
3.357264566007961
3.486508481473
3.418809287657976
3.449581648482997
3.424963759822985
3.406500343327984
3.394191398997992
3.400345871162973
3.363419038172971
3.375727982502963
3.3264922051829684
3.486508481473
3.4741995371429804
3.424963759822985
3.449581648482997
3.468045064977998
3.504971897968001
3.449581648482997
3.424963759822985
3.4557361206479786
3.5357442587929944
3.548053203123014
3.486508481473
3.4741995371429804
3.4434271763179867
3.3141832608529764
3.3449556216779697
3.468045064977998
3.5172808422979926
3.4434271763179867
3.3880369268329824
3.4434271763179867
3.486508481473
3.4434271763179867
3.4311182319879947
3.5234353144630024
3.5234353144630024
3.3388011495129604
3.4618905928129893
3.6896060629180156
3.541898730958004
3.4311182319879947
3.4618905928129893
3.449581648482997
3.412654815492993
3.5234353144630024
3.5357442587929944
3.609597924773
3.591134508277999
3.5542076752879965
3.511126370132983
3.541898730958004
3.4618905928129893
3.400345871162973
3.424963759822985
3.4618905928129893
3.4434271763179867
3.3388011495129604
3.381882454667973
3.3695735103379807
3.3388011495129604
3.412654815492993
3.468045064977998
3.511126370132983
3.578825563948007
3.6280613412680016
3.529589786627985
3.4618905928129893
3.468045064977998
3.541898730958004
3.5542076752879965
3.4434271763179867
3.5972889804430093
3.6280613412680016
3.6219068691030203
3.61575239693801
3.652679229928013
3.640370285598021
3.6465247577630033
3.7142239515780275
3.732687368073029
3.720378423743037
3.7696142010630322
3.7696142010630322
3.800386561888025
3.831158922713046
3.800386561888025
3.8188499783830263
3.800386561888025
3.788077617558033
3.75730525673304
3.7142239515780275
3.75115078456803
4.1942727804480935
4.834337885608192
4.335825640243124
3.5172808422979926
3.6465247577630033
3.701915007248036
3.7696142010630322
3.7942320897230433
3.788077617558033
3.5234353144630024
1.9971262175427773
3.0249230690979347
3.578825563948007
3.578825563948007
3.7265328959080186
3.800386561888025
3.658833702093023
3.6896060629180156
3.6649881742580046
3.7080694794130173
3.6896060629180156
3.75115078456803
3.732687368073029
3.6834515907530063
3.763459728898022
3.609597924773
3.671142646423015
3.7757686732280415
3.4926629536379816
3.3264922051829684
3.6034434526080172
3.578825563948007
3.5542076752879965
3.6465247577630033
3.5234353144630024
3.61575239693801
3.5972889804430093
3.4926629536379816
3.486508481473
3.48035400930799
3.449581648482997
3.5665166196180156
3.5542076752879965
3.406500343327984
3.468045064977998
3.5172808422979926
3.6280613412680016
3.6465247577630033
3.6034434526080172
3.609597924773
3.5665166196180156
3.6280613412680016
3.671142646423015
3.652679229928013
3.6896060629180156
3.781923145393024
3.9911751990030497
3.738841840238039
3.75115078456803
3.732687368073029
3.75115078456803
3.7265328959080186
3.8188499783830263
3.905012588693053
3.8680857557030492
3.825004450548036
4.058874392818074
3.855776811373057
3.905012588693053
4.27428091859311
4.243508557768089
3.9850207268380675
3.9911751990030497
3.9296304773530633
3.8619312835380395
3.825004450548036
3.837313394878028
3.781923145393024
3.7696142010630322
3.9173215330230438
4.028102031993082
3.948093893848065
4.120419114468088
3.720378423743037
3.591134508277999
4.052719920653064
4.058874392818074
4.058874392818074
4.065028864983084
3.9604028381780574
3.9788662546730578
4.009638615498079
3.9419394216830552
3.948093893848065
3.9788662546730578
3.9604028381780574
4.009638615498079
3.9973296711680604
3.9542483660130467
3.9727117825080467
3.9296304773530633
3.9173215330230438
3.8988581165280416
3.9604028381780574
3.8988581165280416
3.8803947000330408
3.886549172198051
3.9234760051880535
3.9419394216830552
3.9542483660130467
4.0711833371480655
3.8619312835380395
3.9788662546730578
4.101955697973087
4.034256504158063
4.015793087663061
4.101955697973087
4.0711833371480655
4.065028864983084
4.028102031993082
3.9788662546730578
3.9973296711680604
4.40967930622313
5.252841992828244
4.415833778388112
3.948093893848065
3.831158922713046
2.704890516517872
2.495638462907845
3.701915007248036
3.75115078456803
3.800386561888025
3.8126955062180454
3.800386561888025
3.8680857557030492
3.8619312835380395
3.7696142010630322
3.825004450548036
3.7942320897230433
3.837313394878028
3.8496223392080475
3.781923145393024
3.8927036443630603
3.9173215330230438
3.843467867043037
3.837313394878028
3.8988581165280416
3.9911751990030497
3.886549172198051
3.9542483660130467
3.9665573103430645
3.905012588693053
3.9911751990030497
3.9357849495180455
3.9665573103430645
3.9234760051880535
3.9296304773530633
3.874240227868059
3.843467867043037
3.8680857557030492
3.8927036443630603
3.874240227868059
3.886549172198051
3.831158922713046
3.788077617558033
3.8126955062180454
3.788077617558033
3.8496223392080475
3.8065410340530352
3.8619312835380395
3.9173215330230438
3.9173215330230438
3.843467867043037
3.8496223392080475
3.9357849495180455
3.9173215330230438
3.948093893848065
3.9296304773530633
4.009638615498079
4.108110170138069
4.015793087663061
3.781923145393024
3.855776811373057
3.825004450548036
3.825004450548036
3.825004450548036
3.9357849495180455
3.8988581165280416
3.701915007248036
3.8188499783830263
3.855776811373057
3.8680857557030492
3.8065410340530352
3.7080694794130173
3.7080694794130173
3.7942320897230433
3.8496223392080475
3.837313394878028
3.8927036443630603
3.831158922713046
3.8619312835380395
3.837313394878028
3.8680857557030492
3.8803947000330408
3.7696142010630322
3.763459728898022
4.058874392818074
3.948093893848065
3.8188499783830263
3.831158922713046
3.8803947000330408
3.9111670608580615
3.8927036443630603
3.9111670608580615
3.8680857557030492
3.8680857557030492
3.8126955062180454
3.8803947000330408
3.8803947000330408
3.837313394878028
4.138882530963089
4.415833778388112
3.8496223392080475
3.886549172198051
3.9296304773530633
3.886549172198051
3.874240227868059
3.825004450548036
3.843467867043037
3.855776811373057
3.800386561888025
3.738841840238039
3.8065410340530352
3.8065410340530352
3.4557361206479786
3.4434271763179867
3.6834515907530063
3.677297118588024
3.671142646423015
3.7449963124030208
3.8126955062180454
3.781923145393024
3.75730525673304
3.75730525673304
3.9850207268380675
5.098980188703223
4.5943134711731455
3.9788662546730578
3.9296304773530633
3.9111670608580615
3.8680857557030492
3.9173215330230438
3.197248289717957
2.1817603824928202
3.511126370132983
3.800386561888025
3.8126955062180454
3.763459728898022
3.8126955062180454
3.8126955062180454
3.800386561888025
3.825004450548036
3.720378423743037
3.7942320897230433
3.8126955062180454
3.75730525673304
3.7942320897230433
3.8680857557030492
3.905012588693053
3.7942320897230433
3.8619312835380395
3.886549172198051
3.9111670608580615
3.8988581165280416
3.8680857557030492
3.9234760051880535
3.9788662546730578
3.9604028381780574
4.0465654484880815
4.065028864983084
4.181963836118102
4.329671168078114
4.3173622237481215
4.2681264464281
4.305053279418103
4.27428091859311
4.335825640243124
4.3727524732331275
4.354289056738125
4.249663029933098
4.231199613438097
4.428142722718132
4.40967930622313
4.37890694539811
4.385061417563119
4.348134584573115
4.335825640243124
4.341980112408105
4.335825640243124
4.440451667048122
4.323516695913104
4.385061417563119
4.483532972203136
4.569695582513134
4.434297194883113
4.434297194883113
4.421988250553122
4.298898807253093
4.354289056738125
4.391215889728128
4.200427252613103
4.292744335088111
4.292744335088111
4.385061417563119
4.40967930622313
5.209760687673231
5.357468019633243
4.91434602375318
4.385061417563119
4.360443528903107
4.434297194883113
4.385061417563119
4.243508557768089
2.723353933012873
3.48035400930799
4.108110170138069
4.421988250553122
4.243508557768089
4.218890669108104
4.231199613438097
4.68047608148317
4.7912565804531795
4.305053279418103
4.3173622237481215
4.298898807253093
4.2681264464281
4.261971974263091
4.237354085603107
4.249663029933098
4.151191475293081
4.225045141273086
4.218890669108104
4.237354085603107
4.212736196943095
3.5665166196180156
3.6834515907530063
4.114264642303079
4.12657358663307
4.0465654484880815
3.9542483660130467
3.8065410340530352
3.855776811373057
3.831158922713046
3.7696142010630322
3.831158922713046
3.695760535083026
3.6896060629180156
3.7696142010630322
3.9542483660130467
3.732687368073029
3.695760535083026
3.732687368073029
3.7942320897230433
3.7449963124030208
3.720378423743037
3.720378423743037
4.305053279418103
5.19129727117823
4.3173622237481215
3.781923145393024
2.1632969659978185
3.117240151572942
3.9296304773530633
4.237354085603107
4.237354085603107
4.157345947458091
4.083492281478085
4.034256504158063
4.015793087663061
4.052719920653064
4.2065817247780855
4.157345947458091
4.1327280587980795
4.151191475293081
4.12657358663307
4.101955697973087
4.120419114468088
4.169654891788083
4.169654891788083
4.114264642303079
4.0711833371480655
4.120419114468088
4.120419114468088
4.145037003128072
3.9419394216830552
3.9542483660130467
3.905012588693053
3.948093893848065
4.009638615498079
3.9665573103430645
3.9604028381780574
3.9973296711680604
3.8680857557030492
3.9973296711680604
3.9788662546730578
4.015793087663061
3.948093893848065
3.886549172198051
3.874240227868059
3.8496223392080475
3.7080694794130173
3.6649881742580046
3.7942320897230433
4.40352483405812
4.101955697973087
3.9357849495180455
3.905012588693053
3.8927036443630603
3.8803947000330408
3.8988581165280416
3.9665573103430645
3.8927036443630603
3.8680857557030492
3.8496223392080475
3.9296304773530633
3.9911751990030497
3.7142239515780275
3.332646677347978
3.8496223392080475
3.874240227868059
4.145037003128072
4.255817502098108
4.009638615498079
4.249663029933098
4.2065817247780855
4.108110170138069
4.200427252613103
4.2065817247780855
4.2681264464281
4.40967930622313
4.563541110348153
4.428142722718132
4.489687444368147
4.446606139213133
4.385061417563119
4.434297194883113
4.305053279418103
4.3727524732331275
4.40967930622313
4.385061417563119
4.415833778388112
4.3727524732331275
4.341980112408105
4.3727524732331275
4.218890669108104
4.3173622237481215
4.477378500038126
4.3727524732331275
4.335825640243124
4.360443528903107
4.348134584573115
4.397370361893111
4.341980112408105
4.397370361893111
4.465069555708134
4.329671168078114
4.280435390758093
4.335825640243124
4.151191475293081
4.231199613438097
4.151191475293081
4.2065817247780855
4.108110170138069
4.12657358663307
4.108110170138069
4.052719920653064
4.108110170138069
4.052719920653064
4.138882530963089
4.089646753643067
4.188118308283084
4.668167137153151
4.932809440248209
4.3112077515831135
4.249663029933098
4.261971974263091
4.181963836118102
4.243508557768089
4.81587446911319
6.071386790773348
4.1942727804480935
4.218890669108104
4.1758093639530935
4.145037003128072
4.114264642303079
2.1263701330077875
2.4587116299178424
3.8927036443630603
4.003484143333068
4.077337809313075
4.0711833371480655
4.058874392818074
4.0465654484880815
4.108110170138069
4.058874392818074
4.114264642303079
4.021947559828071
4.052719920653064
4.083492281478085
4.0711833371480655
3.9911751990030497
4.034256504158063
4.040410976323072
3.9234760051880535
3.886549172198051
3.9665573103430645
3.9296304773530633
3.9542483660130467
3.9973296711680604
3.9173215330230438
4.003484143333068
4.021947559828071
4.145037003128072
4.280435390758093
4.0711833371480655
4.083492281478085
4.120419114468088
4.052719920653064
4.083492281478085
4.101955697973087
4.157345947458091
4.077337809313075
4.169654891788083
4.138882530963089
4.101955697973087
4.0465654484880815
4.163500419623101
4.095801225808079
4.108110170138069
4.120419114468088
4.138882530963089
4.157345947458091
4.12657358663307
4.003484143333068
4.089646753643067
4.101955697973087
4.120419114468088
4.101955697973087
4.114264642303079
4.181963836118102
4.157345947458091
4.052719920653064
4.237354085603107
4.298898807253093
4.138882530963089
4.169654891788083
4.225045141273086
4.261971974263091
4.188118308283084
4.218890669108104
4.305053279418103
4.2681264464281
4.249663029933098
4.354289056738125
4.12657358663307
4.163500419623101
4.225045141273086
4.163500419623101
4.151191475293081
4.181963836118102
4.225045141273086
4.255817502098108
4.1942727804480935
4.261971974263091
4.243508557768089
4.231199613438097
4.157345947458091
4.255817502098108
4.2865898629231
4.292744335088111
4.249663029933098
4.323516695913104
4.1327280587980795
4.458915083543125
4.3727524732331275
4.40967930622313
4.341980112408105
