4.255817502098108
4.188118308283084
4.1758093639530935
4.145037003128072
4.181963836118102
4.237354085603107
4.163500419623101
4.188118308283084
4.1758093639530935
4.163500419623101
4.1758093639530935
3.9727117825080467
4.101955697973087
4.151191475293081
4.095801225808079
4.108110170138069
4.108110170138069
4.083492281478085
4.089646753643067
4.021947559828071
4.083492281478085
4.095801225808079
4.0465654484880815
4.120419114468088
4.120419114468088
4.089646753643067
4.0465654484880815
4.089646753643067
4.5820045268431535
5.6713461000482965
3.9850207268380675
4.052719920653064
4.040410976323072
3.541898730958004
2.298695353627811
3.609597924773
3.9296304773530633
3.9604028381780574
3.9850207268380675
3.9419394216830552
3.9234760051880535
3.9173215330230438
3.9604028381780574
4.021947559828071
3.9665573103430645
4.003484143333068
4.028102031993082
3.9850207268380675
4.021947559828071
4.003484143333068
3.9604028381780574
4.329671168078114
4.520459805193139
4.083492281478085
4.058874392818074
4.089646753643067
4.077337809313075
4.077337809313075
3.9788662546730578
4.034256504158063
4.077337809313075
4.058874392818074
4.009638615498079
4.040410976323072
3.9911751990030497
3.4557361206479786
3.548053203123014
3.9296304773530633
3.9296304773530633
3.905012588693053
3.8988581165280416
3.9973296711680604
3.9727117825080467
3.8619312835380395
3.9911751990030497
4.034256504158063
3.905012588693053
3.9419394216830552
4.052719920653064
4.181963836118102
3.9973296711680604
4.028102031993082
4.021947559828071
4.101955697973087
4.083492281478085
4.0465654484880815
4.065028864983084
4.052719920653064
4.114264642303079
4.065028864983084
4.12657358663307
4.009638615498079
4.089646753643067
3.948093893848065
4.003484143333068
4.114264642303079
3.9727117825080467
3.9973296711680604
4.028102031993082
4.083492281478085
4.095801225808079
4.089646753643067
4.095801225808079
4.145037003128072
4.231199613438097
4.021947559828071
3.9111670608580615
3.8619312835380395
4.040410976323072
4.040410976323072
4.021947559828071
4.015793087663061
4.021947559828071
3.9665573103430645
4.003484143333068
3.9727117825080467
4.034256504158063
4.009638615498079
3.9542483660130467
4.052719920653064
4.145037003128072
4.077337809313075
4.0711833371480655
4.009638615498079
4.021947559828071
4.009638615498079
3.9788662546730578
3.9173215330230438
3.9665573103430645
4.058874392818074
4.009638615498079
4.009638615498079
3.9173215330230438
4.003484143333068
4.551232166018132
4.1327280587980795
3.9911751990030497
3.9604028381780574
3.948093893848065
3.9788662546730578
3.9788662546730578
3.9419394216830552
3.9788662546730578
4.028102031993082
3.9850207268380675
4.040410976323072
3.948093893848065
3.677297118588024
3.486508481473
3.8680857557030492
4.440451667048122
5.289768825818246
4.563541110348153
4.145037003128072
4.052719920653064
4.151191475293081
4.12657358663307
4.1327280587980795
3.9296304773530633
2.477175046412844
3.5665166196180156
4.483532972203136
4.5327687495231315
4.2065817247780855
4.237354085603107
4.249663029933098
4.181963836118102
4.181963836118102
4.249663029933098
4.255817502098108
4.255817502098108
4.145037003128072
4.145037003128072
4.169654891788083
4.077337809313075
3.7449963124030208
3.75730525673304
4.003484143333068
4.108110170138069
4.083492281478085
4.083492281478085
4.095801225808079
4.0465654484880815
4.009638615498079
4.058874392818074
4.089646753643067
4.089646753643067
4.0465654484880815
4.157345947458091
4.12657358663307
4.0465654484880815
4.028102031993082
4.052719920653064
4.052719920653064
4.065028864983084
4.034256504158063
4.040410976323072
4.052719920653064
3.948093893848065
3.9419394216830552
3.9665573103430645
4.021947559828071
4.169654891788083
4.1942727804480935
3.9788662546730578
3.9604028381780574
3.9357849495180455
3.9604028381780574
3.8988581165280416
3.905012588693053
3.9234760051880535
3.825004450548036
3.8619312835380395
3.8065410340530352
3.874240227868059
3.9357849495180455
3.720378423743037
3.640370285598021
3.8803947000330408
3.9234760051880535
3.9173215330230438
3.905012588693053
3.9234760051880535
4.089646753643067
4.003484143333068
3.9911751990030497
4.003484143333068
3.9788662546730578
3.9973296711680604
4.052719920653064
4.015793087663061
3.9604028381780574
3.9604028381780574
3.9788662546730578
4.077337809313075
4.077337809313075
4.065028864983084
4.114264642303079
4.120419114468088
4.108110170138069
4.101955697973087
4.077337809313075
4.114264642303079
4.12657358663307
3.8188499783830263
4.065028864983084
4.095801225808079
4.120419114468088
4.200427252613103
4.181963836118102
4.138882530963089
4.12657358663307
4.120419114468088
4.138882530963089
4.108110170138069
4.089646753643067
4.077337809313075
4.292744335088111
4.305053279418103
4.181963836118102
4.114264642303079
4.138882530963089
4.114264642303079
4.169654891788083
4.157345947458091
4.1758093639530935
4.212736196943095
4.151191475293081
4.138882530963089
4.0711833371480655
4.145037003128072
4.1758093639530935
4.588158999008135
5.462094046438272
4.5943134711731455
4.243508557768089
3.0864677907479487
2.704890516517872
3.905012588693053
4.028102031993082
4.003484143333068
4.015793087663061
4.052719920653064
4.021947559828071
4.083492281478085
3.8188499783830263
3.9542483660130467
4.0711833371480655
4.083492281478085
4.089646753643067
4.101955697973087
4.101955697973087
4.108110170138069
4.120419114468088
4.083492281478085
4.077337809313075
4.058874392818074
4.083492281478085
4.163500419623101
4.458915083543125
5.258996464993254
4.846646829938186
4.40967930622313
4.065028864983084
4.151191475293081
4.120419114468088
4.1327280587980795
3.591134508277999
2.3417766587828237
3.6649881742580046
3.9850207268380675
4.089646753643067
4.065028864983084
3.8680857557030492
3.9973296711680604
4.034256504158063
3.9788662546730578
4.052719920653064
4.065028864983084
4.077337809313075
4.0711833371480655
4.12657358663307
4.12657358663307
4.169654891788083
3.9727117825080467
4.028102031993082
4.218890669108104
4.089646753643067
3.9727117825080467
4.021947559828071
4.0465654484880815
4.058874392818074
3.9911751990030497
4.015793087663061
4.003484143333068
4.077337809313075
4.040410976323072
4.009638615498079
4.077337809313075
4.065028864983084
4.065028864983084
4.0711833371480655
4.034256504158063
4.040410976323072
4.003484143333068
4.077337809313075
4.052719920653064
4.151191475293081
4.0711833371480655
4.0465654484880815
4.108110170138069
4.077337809313075
4.108110170138069
4.145037003128072
4.138882530963089
4.151191475293081
4.157345947458091
4.138882530963089
4.169654891788083
4.1758093639530935
4.114264642303079
4.108110170138069
4.1758093639530935
4.188118308283084
4.261971974263091
4.120419114468088
4.188118308283084
4.003484143333068
3.948093893848065
4.083492281478085
4.077337809313075
3.9542483660130467
4.021947559828071
3.9911751990030497
4.040410976323072
4.040410976323072
4.021947559828071
3.9173215330230438
3.8988581165280416
3.7757686732280415
3.9665573103430645
4.483532972203136
4.1942727804480935
4.089646753643067
4.077337809313075
3.9850207268380675
3.9296304773530633
3.9850207268380675
4.108110170138069
4.058874392818074
3.9665573103430645
4.052719920653064
4.0711833371480655
4.2681264464281
4.723557386638154
5.486711935098282
4.157345947458091
4.421988250553122
4.40967930622313
4.415833778388112
4.495841916533129
3.886549172198051
2.815671015487909
4.243508557768089
4.606622415503137
4.655858192823159
4.612776887668146
4.6435492484931675
4.520459805193139
4.483532972203136
4.575850054678144
4.625085831998166
4.606622415503137
4.588158999008135
4.5943134711731455
4.637394776328158
4.649703720658149
4.5943134711731455
4.520459805193139
4.508150860863147
4.37890694539811
4.452760611378115
4.588158999008135
4.520459805193139
4.3727524732331275
4.243508557768089
4.015793087663061
3.9727117825080467
3.948093893848065
3.8927036443630603
3.874240227868059
3.7942320897230433
3.75730525673304
3.825004450548036
3.837313394878028
3.8496223392080475
4.034256504158063
3.9604028381780574
4.009638615498079
4.101955697973087
3.9173215330230438
3.9173215330230438
3.9604028381780574
3.9604028381780574
4.089646753643067
4.040410976323072
3.9911751990030497
4.015793087663061
3.9419394216830552
4.280435390758093
4.501996388698137
4.188118308283084
4.108110170138069
4.052719920653064
4.0465654484880815
4.077337809313075
4.089646753643067
3.948093893848065
4.0711833371480655
4.108110170138069
3.9234760051880535
4.003484143333068
4.040410976323072
3.6834515907530063
3.4988174258029914
3.9111670608580615
4.009638615498079
3.9296304773530633
3.9296304773530633
3.9973296711680604
3.8927036443630603
3.9173215330230438
3.905012588693053
3.781923145393024
3.800386561888025
3.781923145393024
3.8988581165280416
4.329671168078114
4.218890669108104
3.9296304773530633
3.843467867043037
4.009638615498079
3.8803947000330408
3.8496223392080475
3.9234760051880535
3.8988581165280416
3.9357849495180455
4.040410976323072
4.003484143333068
3.9296304773530633
3.9357849495180455
3.5234353144630024
3.7757686732280415
4.021947559828071
4.058874392818074
4.157345947458091
4.058874392818074
4.040410976323072
4.065028864983084
4.083492281478085
4.157345947458091
4.077337809313075
4.034256504158063
4.120419114468088
4.083492281478085
4.2681264464281
4.114264642303079
4.089646753643067
4.145037003128072
4.145037003128072
4.114264642303079
4.138882530963089
4.040410976323072
4.089646753643067
4.0711833371480655
4.0711833371480655
4.698939497978172
5.83751684850331
3.9173215330230438
2.520256351567857
3.301874316522957
4.021947559828071
3.9850207268380675
4.040410976323072
4.138882530963089
4.151191475293081
4.108110170138069
4.108110170138069
4.1758093639530935
4.151191475293081
4.108110170138069
4.065028864983084
4.089646753643067
4.089646753643067
4.028102031993082
3.9973296711680604
4.021947559828071
4.009638615498079
3.9111670608580615
3.9542483660130467
3.9357849495180455
3.9850207268380675
4.021947559828071
3.9296304773530633
3.9665573103430645
4.083492281478085
3.9111670608580615
3.9665573103430645
4.114264642303079
4.052719920653064
4.095801225808079
4.009638615498079
4.114264642303079
4.120419114468088
4.101955697973087
4.169654891788083
4.114264642303079
4.188118308283084
4.225045141273086
4.231199613438097
4.243508557768089
4.27428091859311
4.2865898629231
4.298898807253093
4.27428091859311
4.329671168078114
4.37890694539811
4.27428091859311
4.200427252613103
4.243508557768089
4.2681264464281
4.323516695913104
4.292744335088111
4.7420208031331565
4.766638691793168
4.471224027873144
4.391215889728128
4.458915083543125
4.508150860863147
4.366598001068117
4.483532972203136
4.471224027873144
4.225045141273086
4.397370361893111
4.391215889728128
4.397370361893111
4.341980112408105
3.855776811373057
3.9973296711680604
4.3173622237481215
4.218890669108104
4.305053279418103
4.237354085603107
4.181963836118102
4.188118308283084
4.1942727804480935
4.101955697973087
4.095801225808079
4.0711833371480655
4.114264642303079
4.212736196943095
4.188118308283084
4.065028864983084
4.151191475293081
4.145037003128072
4.188118308283084
4.138882530963089
4.138882530963089
4.0465654484880815
4.077337809313075
4.040410976323072
4.083492281478085
4.181963836118102
5.425167213448267
5.092825716538213
5.05589888354821
4.188118308283084
4.015793087663061
4.052719920653064
4.083492281478085
3.701915007248036
2.304849825792821
3.5849800361130173
3.9973296711680604
4.015793087663061
4.083492281478085
4.114264642303079
4.114264642303079
3.394191398997992
3.4311182319879947
3.9788662546730578
4.0465654484880815
4.034256504158063
4.108110170138069
4.12657358663307
4.0711833371480655
4.108110170138069
4.114264642303079
4.668167137153151
5.7944355433483254
4.101955697973087
4.218890669108104
4.237354085603107
4.151191475293081
3.0126141247679152
2.9572238752829105
3.9850207268380675
4.077337809313075
4.145037003128072
4.151191475293081
4.101955697973087
4.200427252613103
4.231199613438097
4.034256504158063
4.077337809313075
4.0711833371480655
3.9419394216830552
4.028102031993082
4.1327280587980795
4.1758093639530935
4.169654891788083
4.188118308283084
4.12657358663307
4.218890669108104
4.225045141273086
4.163500419623101
4.188118308283084
4.157345947458091
4.2065817247780855
4.52661427735815
4.618931359833156
4.231199613438097
4.1942727804480935
4.200427252613103
4.1942727804480935
4.151191475293081
4.163500419623101
4.169654891788083
4.0711833371480655
4.0711833371480655
4.12657358663307
4.065028864983084
4.034256504158063
3.695760535083026
3.763459728898022
4.040410976323072
4.0711833371480655
4.145037003128072
4.1327280587980795
4.120419114468088
4.138882530963089
4.009638615498079
4.028102031993082
4.151191475293081
4.0711833371480655
4.1327280587980795
4.188118308283084
4.323516695913104
4.200427252613103
4.151191475293081
4.138882530963089
4.021947559828071
4.138882530963089
4.169654891788083
4.040410976323072
4.028102031993082
4.021947559828071
4.009638615498079
4.052719920653064
4.083492281478085
4.138882530963089
4.065028864983084
4.065028864983084
3.9973296711680604
3.9973296711680604
4.077337809313075
3.9911751990030497
4.034256504158063
4.065028864983084
3.9788662546730578
4.101955697973087
4.040410976323072
4.760484219628157
3.7757686732280415
3.837313394878028
4.108110170138069
4.120419114468088
4.089646753643067
4.089646753643067
4.101955697973087
4.0711833371480655
4.034256504158063
4.120419114468088
4.052719920653064
4.095801225808079
4.0465654484880815
4.120419114468088
4.034256504158063
3.8927036443630603
3.9850207268380675
4.114264642303079
4.114264642303079
4.077337809313075
4.114264642303079
4.151191475293081
4.1942727804480935
4.120419114468088
4.151191475293081
4.212736196943095
4.2065817247780855
4.243508557768089
4.329671168078114
4.40352483405812
4.323516695913104
4.354289056738125
4.280435390758093
4.360443528903107
4.415833778388112
4.385061417563119
4.341980112408105
4.902037079423188
5.209760687673231
3.221866178377941
4.188118308283084
4.329671168078114
4.477378500038126
4.551232166018132
4.421988250553122
4.37890694539811
4.2865898629231
4.218890669108104
4.188118308283084
4.157345947458091
4.218890669108104
4.188118308283084
4.12657358663307
4.145037003128072
4.231199613438097
4.0711833371480655
4.003484143333068
3.9357849495180455
4.0711833371480655
4.089646753643067
4.009638615498079
4.028102031993082
4.003484143333068
3.9727117825080467
4.089646753643067
4.0711833371480655
4.040410976323072
4.028102031993082
4.058874392818074
4.1327280587980795
4.3112077515831135
4.12657358663307
4.1327280587980795
4.058874392818074
4.12657358663307
4.12657358663307
4.1327280587980795
4.095801225808079
4.151191475293081
4.1327280587980795
4.151191475293081
4.1758093639530935
4.157345947458091
4.151191475293081
4.108110170138069
4.231199613438097
4.231199613438097
4.305053279418103
4.335825640243124
4.305053279418103
4.329671168078114
4.329671168078114
4.37890694539811
4.3727524732331275
4.298898807253093
4.298898807253093
4.212736196943095
4.335825640243124
4.3173622237481215
4.212736196943095
4.212736196943095
4.329671168078114
4.329671168078114
4.101955697973087
4.212736196943095
4.212736196943095
4.237354085603107
4.27428091859311
4.231199613438097
4.188118308283084
4.2065817247780855
4.1942727804480935
4.1327280587980795
4.237354085603107
4.218890669108104
4.218890669108104
4.2065817247780855
4.188118308283084
4.225045141273086
4.200427252613103
4.261971974263091
4.27428091859311
4.225045141273086
4.218890669108104
4.218890669108104
4.200427252613103
4.218890669108104
4.163500419623101
4.157345947458091
4.145037003128072
4.181963836118102
4.1327280587980795
4.065028864983084
4.12657358663307
4.163500419623101
4.0711833371480655
4.089646753643067
4.065028864983084
4.1758093639530935
4.138882530963089
4.12657358663307
4.120419114468088
4.163500419623101
4.218890669108104
4.138882530963089
4.212736196943095
4.163500419623101
4.218890669108104
4.2681264464281
4.255817502098108
4.280435390758093
4.243508557768089
4.305053279418103
4.089646753643067
4.188118308283084
4.1942727804480935
4.1327280587980795
4.163500419623101
4.249663029933098
4.834337885608192
6.028305485618365
4.169654891788083
4.237354085603107
4.003484143333068
2.507947407237865
3.5665166196180156
4.212736196943095
4.200427252613103
4.12657358663307
4.151191475293081
4.163500419623101
4.169654891788083
4.151191475293081
4.212736196943095
4.1758093639530935
4.095801225808079
4.163500419623101
4.151191475293081
4.101955697973087
4.120419114468088
4.748175275298167
4.391215889728128
4.225045141273086
4.200427252613103
4.101955697973087
4.083492281478085
4.1327280587980795
4.108110170138069
4.077337809313075
4.1327280587980795
4.169654891788083
4.188118308283084
4.188118308283084
3.886549172198051
3.504971897968001
4.138882530963089
4.145037003128072
4.169654891788083
4.120419114468088
4.163500419623101
4.138882530963089
4.151191475293081
4.138882530963089
5.320541186643241
4.834337885608192
4.501996388698137
4.101955697973087
4.37890694539811
4.3173622237481215
4.095801225808079
3.9234760051880535
2.4402482134228407
3.5357442587929944
4.083492281478085
4.108110170138069
4.089646753643067
4.089646753643067
4.101955697973087
4.163500419623101
4.065028864983084
4.169654891788083
4.495841916533129
4.323516695913104
4.237354085603107
4.2681264464281
4.27428091859311
5.142061493858235
3.825004450548036
3.75730525673304
4.225045141273086
4.2681264464281
4.249663029933098
4.292744335088111
4.261971974263091
4.2065817247780855
3.7080694794130173
3.9973296711680604
4.1942727804480935
4.323516695913104
4.27428091859311
4.298898807253093
4.354289056738125
4.446606139213133
4.354289056738125
4.335825640243124
4.440451667048122
4.440451667048122
4.40967930622313
4.508150860863147
4.508150860863147
4.483532972203136
4.415833778388112
4.434297194883113
4.483532972203136
4.477378500038126
4.446606139213133
4.37890694539811
4.397370361893111
4.477378500038126
4.341980112408105
4.255817502098108
4.354289056738125
4.329671168078114
4.181963836118102
4.212736196943095
4.1942727804480935
4.200427252613103
4.40352483405812
4.145037003128072
4.1942727804480935
4.138882530963089
4.323516695913104
4.1758093639530935
4.231199613438097
4.200427252613103
4.2681264464281
4.366598001068117
4.2065817247780855
4.145037003128072
4.2065817247780855
4.1942727804480935
4.803565524783171
5.892907097988342
4.225045141273086
4.2865898629231
4.298898807253093
4.341980112408105
4.2681264464281
4.108110170138069
2.883370209302905
3.0003051804379233
4.028102031993082
4.225045141273086
4.1942727804480935
4.255817502098108
4.200427252613103
4.188118308283084
4.225045141273086
4.138882530963089
4.138882530963089
4.151191475293081
4.212736196943095
4.3112077515831135
4.397370361893111
4.2065817247780855
4.218890669108104
4.2865898629231
4.225045141273086
4.3173622237481215
4.329671168078114
4.3112077515831135
4.2681264464281
4.212736196943095
4.243508557768089
4.249663029933098
4.2865898629231
4.3173622237481215
4.280435390758093
4.2865898629231
4.434297194883113
4.514305333028129
4.649703720658149
4.169654891788083
4.2681264464281
4.323516695913104
4.231199613438097
4.3173622237481215
4.1942727804480935
4.138882530963089
4.108110170138069
4.200427252613103
4.40352483405812
4.323516695913104
4.348134584573115
4.305053279418103
4.212736196943095
4.218890669108104
4.1327280587980795
4.1327280587980795
4.1758093639530935
4.138882530963089
4.151191475293081
4.200427252613103
4.151191475293081
4.003484143333068
3.8126955062180454
4.009638615498079
3.9788662546730578
4.021947559828071
3.9850207268380675
4.028102031993082
3.9973296711680604
3.9973296711680604
4.034256504158063
3.9665573103430645
3.9788662546730578
4.015793087663061
3.9850207268380675
4.212736196943095
3.8680857557030492
3.9665573103430645
4.028102031993082
4.0465654484880815
4.028102031993082
4.028102031993082
4.015793087663061
4.0465654484880815
4.157345947458091
4.120419114468088
4.1327280587980795
4.151191475293081
4.225045141273086
4.366598001068117
4.280435390758093
4.243508557768089
4.348134584573115
4.1758093639530935
4.163500419623101
4.218890669108104
4.280435390758093
4.212736196943095
4.212736196943095
4.200427252613103
4.212736196943095
4.095801225808079
4.188118308283084
4.101955697973087
4.052719920653064
4.1942727804480935
4.188118308283084
4.188118308283084
4.1942727804480935
4.255817502098108
4.237354085603107
4.218890669108104
4.212736196943095
4.181963836118102
4.120419114468088
4.138882530963089
4.0465654484880815
4.108110170138069
4.1327280587980795
4.157345947458091
4.723557386638154
5.8805981536583225
4.1327280587980795
3.5357442587929944
2.4525571577528327
3.8619312835380395
4.052719920653064
4.028102031993082
4.083492281478085
4.1327280587980795
4.292744335088111
4.366598001068117
4.114264642303079
4.181963836118102
4.188118308283084
4.261971974263091
4.341980112408105
4.243508557768089
4.2681264464281
4.200427252613103
4.077337809313075
4.225045141273086
4.237354085603107
4.237354085603107
4.341980112408105
4.2865898629231
4.255817502098108
4.225045141273086
4.188118308283084
4.218890669108104
4.255817502098108
4.120419114468088
4.1942727804480935
4.212736196943095
4.151191475293081
4.169654891788083
4.1758093639530935
4.200427252613103
3.9111670608580615
3.9604028381780574
4.145037003128072
4.145037003128072
4.095801225808079
4.108110170138069
4.120419114468088
4.083492281478085
4.052719920653064
4.052719920653064
4.034256504158063
4.009638615498079
4.557386638183142
3.837313394878028
4.095801225808079
4.101955697973087
4.077337809313075
4.034256504158063
3.9911751990030497
3.9727117825080467
4.009638615498079
3.9111670608580615
3.9788662546730578
3.9973296711680604
4.009638615498079
3.9727117825080467
4.058874392818074
3.9727117825080467
3.8927036443630603
3.9173215330230438
3.9419394216830552
4.009638615498079
4.058874392818074
4.021947559828071
4.003484143333068
4.034256504158063
4.083492281478085
4.065028864983084
4.028102031993082
4.052719920653064
4.108110170138069
4.1942727804480935
4.1758093639530935
4.145037003128072
4.0711833371480655
4.034256504158063
4.0711833371480655
4.052719920653064
3.9973296711680604
4.108110170138069
4.1327280587980795
4.151191475293081
4.218890669108104
4.163500419623101
4.077337809313075
3.825004450548036
4.003484143333068
4.101955697973087
4.089646753643067
4.083492281478085
4.145037003128072
4.120419114468088
4.052719920653064
4.021947559828071
4.052719920653064
4.089646753643067
4.021947559828071
4.028102031993082
4.034256504158063
4.083492281478085
4.0465654484880815
4.0711833371480655
4.009638615498079
4.015793087663061
4.065028864983084
5.265150937158236
5.080516772208221
4.2065817247780855
4.058874392818074
3.9973296711680604
4.028102031993082
4.089646753643067
3.75115078456803
2.3417766587828237
3.837313394878028
5.683655044378289
3.9357849495180455
4.163500419623101
4.145037003128072
4.1327280587980795
3.8496223392080475
2.372549019607845
3.5172808422979926
4.028102031993082
3.9850207268380675
4.065028864983084
4.003484143333068
3.886549172198051
3.9542483660130467
3.9234760051880535
3.9111670608580615
3.855776811373057
3.874240227868059
3.9665573103430645
3.9542483660130467
3.9357849495180455
4.009638615498079
3.9296304773530633
3.9788662546730578
4.034256504158063
4.003484143333068
3.9111670608580615
3.9911751990030497
4.0711833371480655
4.015793087663061
3.9604028381780574
4.101955697973087
4.077337809313075
4.052719920653064
4.1327280587980795
4.1327280587980795
4.12657358663307
4.12657358663307
4.12657358663307
4.0465654484880815
4.034256504158063
4.089646753643067
4.077337809313075
4.12657358663307
4.0465654484880815
4.058874392818074
4.065028864983084
4.077337809313075
4.0465654484880815
4.101955697973087
4.157345947458091
4.077337809313075
4.3112077515831135
4.255817502098108
4.095801225808079
4.0711833371480655
4.108110170138069
4.095801225808079
4.083492281478085
4.095801225808079
3.9604028381780574
4.065028864983084
4.1327280587980795
4.188118308283084
4.157345947458091
4.021947559828071
4.028102031993082
4.015793087663061
4.163500419623101
4.021947559828071
4.083492281478085
4.163500419623101
4.083492281478085
4.083492281478085
4.120419114468088
4.1327280587980795
4.157345947458091
4.077337809313075
4.095801225808079
4.163500419623101
4.1758093639530935
4.169654891788083
4.212736196943095
4.1758093639530935
4.089646753643067
4.120419114468088
4.145037003128072
4.145037003128072
4.138882530963089
4.145037003128072
4.145037003128072
4.138882530963089
4.1758093639530935
4.0465654484880815
3.9727117825080467
4.1327280587980795
4.163500419623101
4.120419114468088
4.0711833371480655
4.120419114468088
4.1327280587980795
4.114264642303079
4.021947559828071
4.083492281478085
4.1327280587980795
4.052719920653064
4.163500419623101
4.188118308283084
4.138882530963089
4.151191475293081
4.1327280587980795
4.101955697973087
4.151191475293081
4.120419114468088
4.163500419623101
4.212736196943095
4.114264642303079
4.181963836118102
4.2865898629231
4.237354085603107
4.335825640243124
5.2405330484982535
5.677500572213306
3.4434271763179867
3.2095572340479492
4.231199613438097
4.329671168078114
4.305053279418103
4.237354085603107
4.200427252613103
4.200427252613103
4.1758093639530935
4.095801225808079
4.0711833371480655
3.886549172198051
3.6280613412680016
3.9665573103430645
4.052719920653064
4.0711833371480655
4.040410976323072
4.1758093639530935
4.181963836118102
4.200427252613103
4.138882530963089
4.114264642303079
4.218890669108104
4.225045141273086
4.108110170138069
4.2681264464281
4.138882530963089
4.1327280587980795
4.249663029933098
4.188118308283084
4.138882530963089
4.7420208031331565
3.825004450548036
3.8988581165280416
4.200427252613103
4.12657358663307
4.114264642303079
4.040410976323072
4.114264642303079
4.163500419623101
4.021947559828071
4.089646753643067
4.095801225808079
4.089646753643067
4.052719920653064
4.0465654484880815
4.077337809313075
4.120419114468088
3.9850207268380675
4.083492281478085
4.163500419623101
4.065028864983084
4.089646753643067
4.028102031993082
4.0711833371480655
4.089646753643067
4.009638615498079
4.077337809313075
4.114264642303079
4.151191475293081
4.138882530963089
4.052719920653064
4.163500419623101
4.169654891788083
4.058874392818074
4.089646753643067
4.2065817247780855
4.1758093639530935
4.052719920653064
4.101955697973087
4.101955697973087
4.065028864983084
4.12657358663307
4.114264642303079
4.1327280587980795
4.188118308283084
4.1942727804480935
4.181963836118102
4.212736196943095
4.181963836118102
4.218890669108104
4.108110170138069
4.1758093639530935
4.157345947458091
4.095801225808079
4.12657358663307
4.1327280587980795
4.052719920653064
4.077337809313075
4.163500419623101
4.12657358663307
4.108110170138069
4.145037003128072
4.1942727804480935
4.237354085603107
4.138882530963089
4.101955697973087
4.1327280587980795
4.114264642303079
4.157345947458091
4.120419114468088
4.095801225808079
4.120419114468088
4.0711833371480655
4.12657358663307
4.058874392818074
4.058874392818074
4.12657358663307
4.077337809313075
4.0711833371480655
4.157345947458091
4.1327280587980795
4.188118308283084
4.145037003128072
4.138882530963089
4.188118308283084
4.1758093639530935
4.108110170138069
4.120419114468088
4.108110170138069
4.612776887668146
5.388240380458265
4.625085831998166
4.231199613438097
4.1758093639530935
3.332646677347978
2.6618092113628857
3.9111670608580615
4.089646753643067
4.138882530963089
4.101955697973087
4.108110170138069
4.188118308283084
3.9973296711680604
4.188118308283084
4.108110170138069
4.065028864983084
4.225045141273086
4.1942727804480935
4.1758093639530935
4.2681264464281
4.2681264464281
4.200427252613103
4.249663029933098
4.181963836118102
4.231199613438097
4.218890669108104
4.169654891788083
4.280435390758093
4.329671168078114
4.249663029933098
4.237354085603107
4.231199613438097
4.218890669108104
4.231199613438097
4.27428091859311
4.212736196943095
4.261971974263091
4.169654891788083
4.188118308283084
4.218890669108104
4.163500419623101
4.329671168078114
4.385061417563119
4.218890669108104
4.3173622237481215
4.415833778388112
4.329671168078114
4.3173622237481215
4.3727524732331275
4.3112077515831135
4.3727524732331275
4.440451667048122
4.3112077515831135
4.329671168078114
4.40967930622313
4.538923221688139
4.471224027873144
4.3727524732331275
4.360443528903107
5.265150937158236
5.468248518603279
4.92050049591819
4.385061417563119
4.40967930622313
4.397370361893111
4.465069555708134
4.335825640243124
2.9264515144579173
3.437272704152977
4.348134584573115
4.385061417563119
4.37890694539811
4.354289056738125
4.3727524732331275
4.452760611378115
4.5327687495231315
4.440451667048122
4.458915083543125
4.385061417563119
4.298898807253093
4.292744335088111
4.218890669108104
4.305053279418103
4.391215889728128
4.2865898629231
4.218890669108104
4.225045141273086
4.169654891788083
4.188118308283084
4.218890669108104
4.1327280587980795
4.261971974263091
4.243508557768089
4.077337809313075
4.095801225808079
4.114264642303079
3.9542483660130467
3.874240227868059
4.065028864983084
4.065028864983084
4.151191475293081
4.114264642303079
4.101955697973087
4.058874392818074
4.021947559828071
4.095801225808079
4.212736196943095
4.1327280587980795
4.163500419623101
4.157345947458091
4.711248442308165
4.538923221688139
4.108110170138069
4.157345947458091
4.188118308283084
4.077337809313075
4.145037003128072
4.163500419623101
4.169654891788083
4.200427252613103
4.218890669108104
4.6004679433381535
5.492866407263264
4.7420208031331565
3.695760535083026
3.738841840238039
4.052719920653064
4.040410976323072
4.089646753643067
3.6219068691030203
2.249459576307816
3.652679229928013
4.028102031993082
3.9850207268380675
3.9665573103430645
3.9850207268380675
4.021947559828071
5.7451997660283025
3.184939345387937
3.141858040232953
3.9665573103430645
4.009638615498079
3.9850207268380675
3.9419394216830552
4.021947559828071
4.052719920653064
4.021947559828071
4.077337809313075
4.028102031993082
4.0711833371480655
4.095801225808079
4.083492281478085
4.101955697973087
4.089646753643067
4.095801225808079
4.2065817247780855
4.1327280587980795
4.188118308283084
4.225045141273086
4.169654891788083
4.218890669108104
4.249663029933098
4.138882530963089
4.181963836118102
4.249663029933098
4.385061417563119
4.385061417563119
4.27428091859311
4.2865898629231
4.2865898629231
4.360443528903107
4.255817502098108
4.200427252613103
4.261971974263091
4.212736196943095
4.231199613438097
4.3112077515831135
4.2865898629231
4.280435390758093
4.54507769385315
4.40967930622313
4.3173622237481215
4.298898807253093
4.341980112408105
4.280435390758093
4.280435390758093
4.354289056738125
4.188118308283084
4.218890669108104
4.237354085603107
4.255817502098108
4.188118308283084
4.218890669108104
4.040410976323072
4.12657358663307
4.249663029933098
4.231199613438097
4.280435390758093
4.212736196943095
4.2681264464281
4.249663029933098
4.200427252613103
4.151191475293081
4.1942727804480935
4.1327280587980795
4.151191475293081
3.9788662546730578
3.8496223392080475
4.083492281478085
4.1327280587980795
4.163500419623101
4.145037003128072
4.163500419623101
4.181963836118102
4.089646753643067
4.12657358663307
4.058874392818074
4.12657358663307
4.181963836118102
4.188118308283084
4.249663029933098
4.188118308283084
4.138882530963089
4.095801225808079
4.163500419623101
4.151191475293081
4.151191475293081
4.163500419623101
4.138882530963089
4.163500419623101
4.151191475293081
4.2065817247780855
4.145037003128072
4.151191475293081
4.163500419623101
4.218890669108104
4.1758093639530935
4.145037003128072
4.188118308283084
4.237354085603107
4.212736196943095
4.237354085603107
4.292744335088111
4.723557386638154
5.560565601078289
4.717402914473172
4.2681264464281
2.7848986546628876
3.1357035680679433
4.1327280587980795
4.145037003128072
4.225045141273086
4.218890669108104
4.138882530963089
4.157345947458091
4.225045141273086
4.157345947458091
4.200427252613103
4.237354085603107
4.225045141273086
4.243508557768089
4.440451667048122
4.391215889728128
4.329671168078114
4.27428091859311
4.3112077515831135
4.280435390758093
4.231199613438097
4.225045141273086
4.058874392818074
4.1758093639530935
4.0465654484880815
3.9911751990030497
3.9234760051880535
3.9850207268380675
4.397370361893111
4.120419114468088
3.948093893848065
3.9542483660130467
3.788077617558033
3.7757686732280415
3.800386561888025
3.886549172198051
3.9173215330230438
3.9665573103430645
3.9788662546730578
3.9727117825080467
3.9850207268380675
3.9727117825080467
3.511126370132983
3.9173215330230438
4.169654891788083
4.157345947458091
4.2681264464281
4.237354085603107
4.249663029933098
4.415833778388112
4.385061417563119
4.428142722718132
4.520459805193139
4.508150860863147
4.483532972203136
4.477378500038126
4.465069555708134
4.52661427735815
4.514305333028129
4.483532972203136
4.575850054678144
4.569695582513134
4.40967930622313
4.458915083543125
4.446606139213133
4.341980112408105
4.218890669108104
4.138882530963089
4.003484143333068
3.8680857557030492
3.75730525673304
3.9850207268380675
3.9111670608580615
3.886549172198051
3.763459728898022
3.8803947000330408
3.8803947000330408
3.8803947000330408
3.843467867043037
3.7942320897230433
3.8803947000330408
3.8188499783830263
3.788077617558033
3.843467867043037
3.788077617558033
3.8188499783830263
3.8126955062180454
3.7142239515780275
3.7449963124030208
3.732687368073029
3.763459728898022
3.788077617558033
3.8126955062180454
3.7265328959080186
3.7265328959080186
3.671142646423015
3.8126955062180454
3.763459728898022
3.763459728898022
3.8680857557030492
3.788077617558033
3.75730525673304
3.8680857557030492
3.7142239515780275
3.781923145393024
3.75730525673304
3.658833702093023
3.6219068691030203
3.701915007248036
3.7757686732280415
3.7142239515780275
3.6649881742580046
3.6896060629180156
3.658833702093023
3.6896060629180156
3.677297118588024
3.720378423743037
3.652679229928013
4.249663029933098
5.086671244373231
4.2065817247780855
3.8188499783830263
3.738841840238039
3.843467867043037
3.9111670608580615
3.5357442587929944
3.9296304773530633
3.738841840238039
3.7757686732280415
3.831158922713046
3.905012588693053
3.9234760051880535
3.9296304773530633
2.704890516517872
2.871061264972913
3.8988581165280416
3.9665573103430645
3.9357849495180455
3.886549172198051
3.9296304773530633
3.9788662546730578
4.095801225808079
3.9788662546730578
4.034256504158063
4.101955697973087
4.108110170138069
4.021947559828071
4.0465654484880815
4.065028864983084
4.028102031993082
4.015793087663061
4.151191475293081
4.225045141273086
4.1327280587980795
4.114264642303079
4.138882530963089
4.151191475293081
4.138882530963089
4.157345947458091
4.169654891788083
4.1942727804480935
4.181963836118102
4.163500419623101
4.120419114468088
4.151191475293081
4.108110170138069
4.181963836118102
4.1758093639530935
4.058874392818074
4.114264642303079
4.114264642303079
4.040410976323072
4.138882530963089
4.015793087663061
4.101955697973087
4.138882530963089
4.040410976323072
4.0465654484880815
4.101955697973087
4.034256504158063
3.9665573103430645
3.8803947000330408
3.9173215330230438
4.015793087663061
3.9788662546730578
4.009638615498079
4.028102031993082
4.021947559828071
3.9788662546730578
4.089646753643067
4.021947559828071
3.9357849495180455
4.138882530963089
4.009638615498079
4.015793087663061
4.015793087663061
4.108110170138069
4.101955697973087
4.12657358663307
4.083492281478085
4.120419114468088
4.1758093639530935
4.151191475293081
4.095801225808079
4.077337809313075
4.077337809313075
4.495841916533129
4.735866330968175
4.2065817247780855
4.261971974263091
4.1942727804480935
4.2865898629231
4.1758093639530935
4.145037003128072
4.157345947458091
4.120419114468088
4.163500419623101
4.200427252613103
4.12657358663307
4.1758093639530935
3.5849800361130173
3.6034434526080172
4.034256504158063
3.9911751990030497
4.040410976323072
3.9173215330230438
3.905012588693053
4.003484143333068
3.9788662546730578
3.9788662546730578
3.8680857557030492
3.9296304773530633
3.8927036443630603
3.9173215330230438
4.120419114468088
3.9173215330230438
3.874240227868059
3.843467867043037
3.8126955062180454
3.9234760051880535
4.446606139213133
5.271305409323245
4.021947559828071
2.212532743317813
3.4741995371429804
3.9542483660130467
3.9542483660130467
3.9604028381780574
3.8065410340530352
3.9419394216830552
3.9911751990030497
4.021947559828071
3.9973296711680604
4.021947559828071
4.052719920653064
4.009638615498079
4.003484143333068
4.003484143333068
4.0711833371480655
4.083492281478085
4.058874392818074
4.157345947458091
4.218890669108104
4.12657358663307
4.108110170138069
4.163500419623101
4.1327280587980795
4.034256504158063
4.138882530963089
4.101955697973087
4.095801225808079
4.058874392818074
4.034256504158063
4.0711833371480655
4.151191475293081
4.188118308283084
4.095801225808079
4.089646753643067
3.9665573103430645
4.12657358663307
4.0465654484880815
4.095801225808079
4.108110170138069
3.9850207268380675
3.9911751990030497
4.028102031993082
4.040410976323072
4.052719920653064
4.065028864983084
3.9419394216830552
4.040410976323072
4.1327280587980795
4.108110170138069
4.101955697973087
4.151191475293081
4.114264642303079
4.157345947458091
4.040410976323072
4.151191475293081
4.1327280587980795
4.145037003128072
4.12657358663307
4.151191475293081
4.003484143333068
4.145037003128072
4.169654891788083
4.077337809313075
4.095801225808079
4.095801225808079
4.138882530963089
4.052719920653064
4.040410976323072
4.0465654484880815
4.120419114468088
3.9357849495180455
4.065028864983084
4.120419114468088
4.145037003128072
4.089646753643067
4.089646753643067
4.095801225808079
4.095801225808079
3.9542483660130467
4.028102031993082
3.9973296711680604
4.028102031993082
4.114264642303079
4.0465654484880815
4.052719920653064
4.114264642303079
4.114264642303079
3.9911751990030497
4.028102031993082
4.0711833371480655
4.0711833371480655
4.034256504158063
4.0465654484880815
4.015793087663061
4.0711833371480655
4.0711833371480655
4.034256504158063
4.065028864983084
4.021947559828071
4.021947559828071
3.9727117825080467
4.0711833371480655
4.0465654484880815
4.040410976323072
4.052719920653064
4.058874392818074
4.052719920653064
4.052719920653064
4.040410976323072
3.9604028381780574
4.028102031993082
3.9850207268380675
3.9542483660130467
3.948093893848065
3.8065410340530352
4.040410976323072
3.9850207268380675
3.9234760051880535
4.458915083543125
5.252841992828244
4.477378500038126
4.169654891788083
4.089646753643067
3.9419394216830552
2.5141018794028467
3.166475928892937
3.9604028381780574
4.034256504158063
4.108110170138069
4.065028864983084
4.0465654484880815
4.065028864983084
4.065028864983084
4.034256504158063
4.028102031993082
4.003484143333068
3.9727117825080467
4.040410976323072
4.065028864983084
3.9665573103430645
3.9727117825080467
4.465069555708134
4.255817502098108
4.052719920653064
4.052719920653064
4.034256504158063
4.003484143333068
4.797411052618189
3.75730525673304
3.800386561888025
4.12657358663307
4.157345947458091
4.077337809313075
4.108110170138069
4.040410976323072
3.541898730958004
3.8126955062180454
4.083492281478085
4.095801225808079
4.003484143333068
4.058874392818074
4.0465654484880815
4.077337809313075
4.077337809313075
4.003484143333068
4.015793087663061
4.021947559828071
4.077337809313075
4.151191475293081
4.200427252613103
4.052719920653064
4.095801225808079
4.058874392818074
4.058874392818074
4.058874392818074
4.009638615498079
4.015793087663061
3.9973296711680604
4.015793087663061
4.065028864983084
3.9973296711680604
4.009638615498079
3.9665573103430645
3.8619312835380395
3.9173215330230438
4.101955697973087
4.083492281478085
4.114264642303079
4.1327280587980795
4.058874392818074
4.108110170138069
4.101955697973087
4.101955697973087
4.083492281478085
4.698939497978172
5.874443681493341
4.298898807253093
4.249663029933098
4.157345947458091
4.1758093639530935
4.12657358663307
4.163500419623101
3.0618499020879373
2.8279799598179
3.905012588693053
4.028102031993082
4.083492281478085
4.12657358663307
4.083492281478085
4.163500419623101
4.009638615498079
4.040410976323072
4.181963836118102
4.1758093639530935
4.120419114468088
4.138882530963089
4.1758093639530935
4.151191475293081
4.163500419623101
4.089646753643067
4.157345947458091
4.089646753643067
4.034256504158063
4.040410976323072
3.9973296711680604
3.8988581165280416
3.9296304773530633
3.8803947000330408
3.8065410340530352
3.8065410340530352
3.800386561888025
3.7757686732280415
3.788077617558033
3.788077617558033
3.7142239515780275
3.763459728898022
3.800386561888025
3.701915007248036
3.720378423743037
3.781923145393024
4.151191475293081
4.1758093639530935
2.6371913227028756
3.658833702093023
3.7696142010630322
3.738841840238039
3.8126955062180454
3.781923145393024
3.8126955062180454
3.825004450548036
3.855776811373057
4.280435390758093
4.028102031993082
3.886549172198051
3.874240227868059
3.843467867043037
3.905012588693053
4.003484143333068
3.8988581165280416
3.9296304773530633
3.9788662546730578
4.009638615498079
4.034256504158063
4.003484143333068
4.0465654484880815
3.837313394878028
3.9788662546730578
4.1327280587980795
4.101955697973087
4.145037003128072
4.169654891788083
4.114264642303079
4.083492281478085
4.065028864983084
4.077337809313075
4.065028864983084
4.083492281478085
3.9850207268380675
4.015793087663061
3.9234760051880535
3.948093893848065
3.9973296711680604
4.1327280587980795
4.101955697973087
4.021947559828071
4.052719920653064
4.0465654484880815
4.034256504158063
4.108110170138069
4.003484143333068
4.058874392818074
3.9604028381780574
4.157345947458091
4.1327280587980795
4.034256504158063
4.015793087663061
4.015793087663061
3.9727117825080467
3.9604028381780574
4.021947559828071
3.9665573103430645
4.021947559828071
3.9604028381780574
3.905012588693053
3.9973296711680604
4.095801225808079
4.40967930622313
4.138882530963089
3.9542483660130467
4.003484143333068
3.9542483660130467
3.9173215330230438
4.003484143333068
3.948093893848065
3.9542483660130467
3.874240227868059
3.855776811373057
3.9111670608580615
3.886549172198051
3.695760535083026
3.4557361206479786
3.720378423743037
3.8126955062180454
3.8496223392080475
3.8065410340530352
3.8496223392080475
3.8927036443630603
3.831158922713046
3.8927036443630603
3.9111670608580615
3.9419394216830552
3.9419394216830552
3.9542483660130467
3.9850207268380675
4.021947559828071
4.040410976323072
3.9419394216830552
4.009638615498079
4.0465654484880815
4.083492281478085
4.040410976323072
4.009638615498079
3.9850207268380675
4.058874392818074
3.9973296711680604
3.9234760051880535
3.9911751990030497
3.7757686732280415
3.7265328959080186
3.9357849495180455
3.905012588693053
3.9973296711680604
4.003484143333068
3.9665573103430645
3.9911751990030497
4.021947559828071
4.0465654484880815
4.015793087663061
4.040410976323072
4.138882530963089
4.145037003128072
4.2865898629231
4.5820045268431535
5.388240380458265
4.625085831998166
4.188118308283084
3.61575239693801
2.2740774649678275
3.6280613412680016
3.9173215330230438
3.9357849495180455
3.8927036443630603
3.8988581165280416
3.8988581165280416
4.575850054678144
3.572671091782997
3.578825563948007
3.905012588693053
3.9727117825080467
4.003484143333068
3.9911751990030497
4.052719920653064
4.0465654484880815
3.9727117825080467
4.052719920653064
4.015793087663061
4.0711833371480655
4.083492281478085
3.9788662546730578
3.9665573103430645
4.065028864983084
3.9850207268380675
3.9727117825080467
4.052719920653064
3.9727117825080467
3.9604028381780574
3.9173215330230438
3.9111670608580615
4.077337809313075
3.9788662546730578
3.9973296711680604
4.052719920653064
4.157345947458091
4.052719920653064
3.9665573103430645
4.009638615498079
4.0711833371480655
4.028102031993082
4.0711833371480655
4.101955697973087
4.040410976323072
3.9973296711680604
4.034256504158063
4.021947559828071
3.9665573103430645
3.9234760051880535
3.886549172198051
3.905012588693053
3.9850207268380675
3.8988581165280416
3.9234760051880535
4.089646753643067
3.9727117825080467
3.9850207268380675
4.040410976323072
4.0465654484880815
4.108110170138069
4.101955697973087
4.009638615498079
4.120419114468088
3.9850207268380675
4.040410976323072
4.021947559828071
4.021947559828071
3.9911751990030497
3.9911751990030497
4.015793087663061
3.9788662546730578
3.9357849495180455
3.9911751990030497
4.009638615498079
3.9296304773530633
4.003484143333068
4.1758093639530935
4.028102031993082
4.021947559828071
3.9727117825080467
3.9911751990030497
4.058874392818074
3.9788662546730578
3.948093893848065
4.015793087663061
4.0711833371480655
4.083492281478085
4.052719920653064
4.040410976323072
3.9911751990030497
3.905012588693053
3.9850207268380675
4.040410976323072
4.009638615498079
3.9542483660130467
4.034256504158063
3.9911751990030497
4.052719920653064
4.040410976323072
4.009638615498079
4.040410976323072
4.12657358663307
4.028102031993082
4.095801225808079
4.1327280587980795
4.120419114468088
4.1327280587980795
4.138882530963089
4.12657358663307
4.163500419623101
4.077337809313075
4.138882530963089
4.108110170138069
4.114264642303079
4.1758093639530935
4.151191475293081
4.058874392818074
4.7297118588031655
5.726736349533301
4.1327280587980795
4.169654891788083
4.1327280587980795
4.120419114468088
4.077337809313075
3.9357849495180455
2.3971669082678284
3.308028788687967
4.040410976323072
3.9604028381780574
3.9234760051880535
4.009638615498079
4.028102031993082
4.028102031993082
4.095801225808079
4.181963836118102
4.108110170138069
4.101955697973087
4.114264642303079
4.0465654484880815
4.095801225808079
4.391215889728128
5.203606215508222
4.7912565804531795
4.157345947458091
4.151191475293081
4.095801225808079
4.021947559828071
4.089646753643067
3.178784873222956
2.563337656722869
3.8680857557030492
4.065028864983084
4.089646753643067
4.0465654484880815
4.108110170138069
4.138882530963089
4.108110170138069
4.157345947458091
4.188118308283084
4.065028864983084
4.1327280587980795
4.2065817247780855
4.151191475293081
4.188118308283084
4.077337809313075
4.077337809313075
4.1942727804480935
4.212736196943095
4.188118308283084
4.12657358663307
4.181963836118102
4.231199613438097
4.298898807253093
4.2865898629231
4.2065817247780855
4.323516695913104
4.366598001068117
4.329671168078114
4.341980112408105
4.225045141273086
4.2865898629231
4.323516695913104
4.231199613438097
4.280435390758093
4.292744335088111
4.261971974263091
4.261971974263091
4.138882530963089
4.27428091859311
4.2865898629231
4.292744335088111
4.298898807253093
4.255817502098108
4.243508557768089
4.2865898629231
4.298898807253093
4.212736196943095
4.27428091859311
4.2681264464281
4.2865898629231
4.323516695913104
4.225045141273086
4.261971974263091
4.231199613438097
4.2865898629231
4.335825640243124
4.151191475293081
4.1942727804480935
4.151191475293081
4.1942727804480935
4.188118308283084
4.114264642303079
4.052719920653064
4.1327280587980795
4.083492281478085
4.089646753643067
4.089646753643067
4.009638615498079
4.003484143333068
4.157345947458091
4.089646753643067
4.145037003128072
4.058874392818074
4.0711833371480655
4.120419114468088
4.145037003128072
4.1327280587980795
4.120419114468088
3.9911751990030497
4.101955697973087
4.138882530963089
4.034256504158063
4.058874392818074
4.108110170138069
4.668167137153151
3.7696142010630322
3.788077617558033
4.0711833371480655
4.1327280587980795
4.748175275298167
5.905216042318334
4.231199613438097
3.1049312072429505
2.766435238167886
4.0465654484880815
4.163500419623101
4.089646753643067
4.12657358663307
4.101955697973087
4.1327280587980795
4.181963836118102
4.108110170138069
4.083492281478085
4.065028864983084
4.0711833371480655
3.9911751990030497
3.9542483660130467
4.034256504158063
4.015793087663061
3.9665573103430645
4.034256504158063
4.077337809313075
4.009638615498079
3.9604028381780574
3.9850207268380675
3.9850207268380675
4.040410976323072
3.9973296711680604
4.145037003128072
4.120419114468088
4.028102031993082
4.0711833371480655
4.034256504158063
4.052719920653064
4.009638615498079
3.9234760051880535
3.9542483660130467
3.9911751990030497
3.9665573103430645
3.9604028381780574
3.9665573103430645
4.077337809313075
3.9788662546730578
3.9788662546730578
4.0711833371480655
4.0711833371480655
4.052719920653064
4.065028864983084
4.0465654484880815
4.040410976323072
3.9665573103430645
4.052719920653064
4.034256504158063
4.0465654484880815
4.009638615498079
4.0465654484880815
4.0465654484880815
4.015793087663061
4.028102031993082
4.015793087663061
4.052719920653064
4.12657358663307
4.028102031993082
4.1758093639530935
4.188118308283084
4.077337809313075
4.145037003128072
4.058874392818074
4.065028864983084
4.255817502098108
4.1758093639530935
3.9604028381780574
3.9296304773530633
3.9173215330230438
3.9542483660130467
3.948093893848065
3.9173215330230438
3.9973296711680604
3.9788662546730578
4.015793087663061
3.9911751990030497
3.9850207268380675
4.1327280587980795
4.108110170138069
4.108110170138069
4.163500419623101
4.138882530963089
4.12657358663307
4.101955697973087
4.052719920653064
4.083492281478085
4.101955697973087
4.015793087663061
4.058874392818074
4.077337809313075
4.101955697973087
4.145037003128072
3.948093893848065
3.9665573103430645
4.108110170138069
4.089646753643067
4.108110170138069
4.114264642303079
4.095801225808079
4.0465654484880815
3.9665573103430645
3.9788662546730578
4.058874392818074
4.034256504158063
4.040410976323072
4.169654891788083
4.2065817247780855
4.034256504158063
4.120419114468088
4.151191475293081
4.120419114468088
4.151191475293081
4.114264642303079
4.095801225808079
4.181963836118102
4.2681264464281
4.7912565804531795
5.905216042318334
4.120419114468088
4.305053279418103
4.335825640243124
4.138882530963089
3.468045064977998
2.360240075277825
3.7142239515780275
3.9788662546730578
3.9788662546730578
3.9665573103430645
3.9542483660130467
3.9357849495180455
3.9788662546730578
3.837313394878028
3.9357849495180455
4.181963836118102
4.225045141273086
4.034256504158063
4.095801225808079
4.225045141273086
4.280435390758093
4.145037003128072
4.2681264464281
4.341980112408105
4.37890694539811
4.520459805193139
4.446606139213133
4.477378500038126
4.520459805193139
4.188118308283084
4.440451667048122
4.655858192823159
4.68047608148317
4.705093970143154
4.662012664988168
4.68047608148317
4.5820045268431535
4.575850054678144
4.569695582513134
4.477378500038126
4.397370361893111
4.335825640243124
4.348134584573115
4.465069555708134
4.261971974263091
4.218890669108104
4.114264642303079
3.9850207268380675
4.021947559828071
4.0465654484880815
3.8803947000330408
3.781923145393024
3.8619312835380395
3.720378423743037
3.61575239693801
3.652679229928013
3.504971897968001
3.48035400930799
3.7265328959080186
3.640370285598021
3.677297118588024
3.6219068691030203
3.7265328959080186
3.8126955062180454
3.720378423743037
3.75115078456803
3.788077617558033
3.9234760051880535
3.7757686732280415
3.7942320897230433
3.8803947000330408
3.9296304773530633
3.8988581165280416
3.843467867043037
3.738841840238039
3.9542483660130467
3.8927036443630603
3.8680857557030492
3.825004450548036
3.788077617558033
3.781923145393024
3.7757686732280415
3.8065410340530352
3.763459728898022
3.6219068691030203
3.6649881742580046
3.781923145393024
3.6219068691030203
3.658833702093023
3.640370285598021
3.9419394216830552
5.486711935098282
3.7142239515780275
3.720378423743037
3.800386561888025
3.6834515907530063
3.677297118588024
3.75730525673304
3.043386485592936
1.966353856717784
3.289565372192965
3.572671091782997
3.671142646423015
3.6896060629180156
3.7142239515780275
3.677297118588024
3.7449963124030208
3.6834515907530063
3.75115078456803
3.75730525673304
3.8065410340530352
3.9357849495180455
3.8680857557030492
3.874240227868059
3.9296304773530633
3.8619312835380395
3.9542483660130467
3.9788662546730578
3.9234760051880535
3.9973296711680604
4.477378500038126
5.154370438188227
2.9202970422929075
3.215711706212959
3.9604028381780574
3.9665573103430645
3.886549172198051
4.015793087663061
3.9788662546730578
4.015793087663061
4.095801225808079
4.028102031993082
4.028102031993082
4.003484143333068
3.9850207268380675
4.034256504158063
4.0711833371480655
4.12657358663307
4.145037003128072
4.243508557768089
4.145037003128072
4.052719920653064
4.058874392818074
3.9850207268380675
4.0465654484880815
4.034256504158063
3.9604028381780574
4.003484143333068
4.003484143333068
4.021947559828071
3.9973296711680604
3.9911751990030497
3.9604028381780574
3.8619312835380395
3.8680857557030492
3.855776811373057
3.9357849495180455
3.9665573103430645
3.874240227868059
3.843467867043037
3.8988581165280416
3.905012588693053
3.855776811373057
3.9111670608580615
3.8680857557030492
3.905012588693053
3.8680857557030492
3.75730525673304
3.8680857557030492
3.9788662546730578
3.9296304773530633
3.9234760051880535
3.9542483660130467
3.9665573103430645
3.9727117825080467
4.003484143333068
4.021947559828071
3.9850207268380675
3.9727117825080467
4.028102031993082
4.083492281478085
4.028102031993082
4.0711833371480655
3.9911751990030497
4.077337809313075
4.028102031993082
3.9850207268380675
4.034256504158063
4.077337809313075
4.095801225808079
4.052719920653064
4.12657358663307
4.138882530963089
4.083492281478085
4.0711833371480655
4.108110170138069
4.12657358663307
4.120419114468088
4.163500419623101
4.1942727804480935
4.27428091859311
4.163500419623101
4.280435390758093
4.261971974263091
4.181963836118102
4.200427252613103
4.163500419623101
4.231199613438097
4.329671168078114
4.138882530963089
4.101955697973087
4.0711833371480655
4.077337809313075
4.058874392818074
4.052719920653064
3.9604028381780574
3.9788662546730578
3.9542483660130467
4.058874392818074
3.9727117825080467
4.034256504158063
4.083492281478085
4.095801225808079
4.065028864983084
4.083492281478085
4.003484143333068
4.065028864983084
4.089646753643067
4.028102031993082
4.058874392818074
4.1327280587980795
4.028102031993082
4.040410976323072
4.0711833371480655
4.101955697973087
3.9111670608580615
3.9419394216830552
4.058874392818074
4.028102031993082
4.114264642303079
4.065028864983084
4.040410976323072
4.612776887668146
5.763663182523304
4.145037003128072
4.181963836118102
4.089646753643067
2.9264515144579173
2.901833625797906
4.1327280587980795
4.052719920653064
4.021947559828071
4.058874392818074
4.120419114468088
4.052719920653064
4.077337809313075
4.009638615498079
4.114264642303079
4.120419114468088
4.058874392818074
4.151191475293081
4.138882530963089
4.163500419623101
4.2065817247780855
4.145037003128072
4.12657358663307
4.145037003128072
4.151191475293081
4.188118308283084
4.1758093639530935
4.163500419623101
4.181963836118102
4.163500419623101
4.181963836118102
4.169654891788083
4.181963836118102
4.138882530963089
4.114264642303079
4.021947559828071
4.12657358663307
4.1942727804480935
4.1758093639530935
4.231199613438097
4.188118308283084
4.200427252613103
4.243508557768089
4.27428091859311
4.200427252613103
4.231199613438097
4.323516695913104
4.421988250553122
4.298898807253093
4.1942727804480935
4.2065817247780855
4.212736196943095
4.089646753643067
4.163500419623101
4.120419114468088
4.095801225808079
4.083492281478085
4.065028864983084
4.028102031993082
4.120419114468088
4.095801225808079
3.886549172198051
3.9234760051880535
4.0465654484880815
4.028102031993082
3.9234760051880535
3.9973296711680604
4.065028864983084
4.009638615498079
3.9973296711680604
4.021947559828071
3.9788662546730578
4.021947559828071
3.9973296711680604
4.3173622237481215
4.495841916533129
4.101955697973087
4.052719920653064
4.040410976323072
4.015793087663061
4.028102031993082
4.028102031993082
3.9357849495180455
4.058874392818074
4.089646753643067
4.0465654484880815
4.009638615498079
3.8803947000330408
3.948093893848065
4.009638615498079
4.12657358663307
4.169654891788083
4.095801225808079
4.058874392818074
4.089646753643067
4.034256504158063
4.065028864983084
4.009638615498079
4.095801225808079
4.009638615498079
3.9665573103430645
3.9911751990030497
3.6834515907530063
3.843467867043037
4.028102031993082
3.9665573103430645
4.0465654484880815
4.028102031993082
4.009638615498079
4.003484143333068
4.015793087663061
4.015793087663061
3.9665573103430645
4.052719920653064
4.065028864983084
4.0465654484880815
4.052719920653064
4.028102031993082
4.0711833371480655
4.12657358663307
4.089646753643067
4.2065817247780855
5.302077770148239
4.945118384578201
4.329671168078114
4.169654891788083
4.1327280587980795
4.163500419623101
4.1942727804480935
4.163500419623101
2.1694514381628007
3.4988174258029914
4.0465654484880815
4.040410976323072
4.065028864983084
4.089646753643067
4.083492281478085
4.12657358663307
4.083492281478085
4.095801225808079
4.0711833371480655
4.089646753643067
4.1942727804480935
4.6435492484931675
4.501996388698137
4.2681264464281
4.065028864983084
4.157345947458091
4.12657358663307
4.12657358663307
4.120419114468088
4.108110170138069
4.145037003128072
4.138882530963089
4.1327280587980795
4.065028864983084
4.015793087663061
3.394191398997992
3.75115078456803
4.009638615498079
4.27428091859311
5.2405330484982535
4.846646829938186
4.428142722718132
4.12657358663307
4.181963836118102
4.255817502098108
4.151191475293081
3.7142239515780275
2.434093741257831
3.843467867043037
4.163500419623101
4.151191475293081
4.12657358663307
4.1758093639530935
4.200427252613103
4.225045141273086
4.12657358663307
4.095801225808079
4.108110170138069
4.145037003128072
4.138882530963089
4.101955697973087
4.169654891788083
4.058874392818074
3.843467867043037
3.948093893848065
3.9911751990030497
4.040410976323072
3.9973296711680604
3.9911751990030497
4.058874392818074
4.065028864983084
4.021947559828071
4.083492281478085
4.108110170138069
4.114264642303079
4.145037003128072
4.366598001068117
4.225045141273086
4.12657358663307
4.089646753643067
4.101955697973087
4.083492281478085
4.065028864983084
4.058874392818074
4.034256504158063
3.9911751990030497
3.9973296711680604
3.9727117825080467
4.015793087663061
4.052719920653064
3.8927036443630603
3.9296304773530633
4.0465654484880815
3.9542483660130467
3.9542483660130467
3.9604028381780574
3.9788662546730578
4.034256504158063
4.028102031993082
3.9542483660130467
4.0465654484880815
4.015793087663061
3.9850207268380675
4.052719920653064
3.7696142010630322
4.021947559828071
3.9850207268380675
3.9850207268380675
4.009638615498079
3.9173215330230438
3.9296304773530633
3.9850207268380675
3.9604028381780574
4.021947559828071
4.021947559828071
3.9234760051880535
4.052719920653064
4.1327280587980795
3.9296304773530633
4.065028864983084
4.065028864983084
4.625085831998166
5.775972126853325
4.101955697973087
3.9234760051880535
2.507947407237865
3.394191398997992
3.9911751990030497
4.077337809313075
4.003484143333068
4.138882530963089
4.754329747463175
4.335825640243124
4.058874392818074
3.9850207268380675
4.083492281478085
4.0465654484880815
4.065028864983084
4.058874392818074
4.028102031993082
4.015793087663061
4.095801225808079
4.089646753643067
4.083492281478085
3.9173215330230438
3.308028788687967
3.8619312835380395
4.052719920653064
4.089646753643067
4.021947559828071
4.021947559828071
3.9911751990030497
4.009638615498079
4.015793087663061
3.9419394216830552
4.009638615498079
3.9788662546730578
3.8803947000330408
4.003484143333068
3.9850207268380675
3.9665573103430645
3.9850207268380675
3.9357849495180455
3.9973296711680604
4.003484143333068
3.9788662546730578
3.9604028381780574
4.065028864983084
4.028102031993082
4.065028864983084
4.021947559828071
4.034256504158063
4.151191475293081
4.052719920653064
4.0465654484880815
4.0465654484880815
4.015793087663061
4.0465654484880815
4.077337809313075
4.040410976323072
4.077337809313075
4.065028864983084
4.095801225808079
4.12657358663307
4.052719920653064
4.181963836118102
4.188118308283084
3.8803947000330408
4.040410976323072
4.095801225808079
4.083492281478085
3.9911751990030497
3.9234760051880535
3.9357849495180455
3.9850207268380675
3.948093893848065
3.8619312835380395
3.9850207268380675
3.9296304773530633
3.9604028381780574
3.9973296711680604
4.015793087663061
4.065028864983084
4.120419114468088
3.9604028381780574
4.003484143333068
3.9911751990030497
3.9850207268380675
3.9788662546730578
3.9973296711680604
4.077337809313075
4.0465654484880815
4.015793087663061
4.065028864983084
3.837313394878028
3.9911751990030497
4.065028864983084
4.058874392818074
4.040410976323072
4.077337809313075
3.9296304773530633
3.9665573103430645
4.095801225808079
3.9973296711680604
3.9604028381780574
4.028102031993082
4.0465654484880815
4.188118308283084
4.065028864983084
4.058874392818074
4.0465654484880815
3.9788662546730578
3.9788662546730578
4.0465654484880815
4.822028941278172
3.781923145393024
3.720378423743037
4.015793087663061
4.052719920653064
4.015793087663061
4.114264642303079
4.065028864983084
4.021947559828071
4.508150860863147
5.449785102108279
4.465069555708134
4.120419114468088
4.12657358663307
4.040410976323072
4.040410976323072
2.674118155692878
2.9202970422929075
3.855776811373057
4.021947559828071
4.052719920653064
3.9604028381780574
4.009638615498079
4.0465654484880815
4.114264642303079
4.028102031993082
4.015793087663061
4.009638615498079
4.034256504158063
4.0465654484880815
4.034256504158063
3.9788662546730578
4.009638615498079
3.9911751990030497
4.114264642303079
4.083492281478085
3.9788662546730578
4.034256504158063
4.077337809313075
4.138882530963089
4.120419114468088
4.120419114468088
4.138882530963089
4.101955697973087
4.163500419623101
4.151191475293081
4.1327280587980795
4.163500419623101
4.1942727804480935
4.083492281478085
4.065028864983084
4.083492281478085
4.0465654484880815
4.028102031993082
3.9665573103430645
4.058874392818074
3.843467867043037
3.9296304773530633
3.905012588693053
3.855776811373057
3.8680857557030492
3.9234760051880535
3.6896060629180156
3.720378423743037
3.75730525673304
3.788077617558033
3.855776811373057
3.7942320897230433
3.831158922713046
3.8065410340530352
3.843467867043037
3.948093893848065
3.8496223392080475
3.9788662546730578
3.9419394216830552
3.800386561888025
3.831158922713046
3.8803947000330408
3.9419394216830552
3.9111670608580615
3.886549172198051
3.9173215330230438
4.003484143333068
3.9973296711680604
3.9850207268380675
4.009638615498079
4.095801225808079
4.1327280587980795
4.200427252613103
4.341980112408105
4.2681264464281
4.225045141273086
4.231199613438097
4.188118308283084
4.218890669108104
4.163500419623101
4.163500419623101
4.1327280587980795
4.157345947458091
4.12657358663307
4.145037003128072
4.157345947458091
4.255817502098108
4.083492281478085
4.089646753643067
4.1942727804480935
4.2065817247780855
4.181963836118102
4.200427252613103
4.261971974263091
4.292744335088111
4.212736196943095
4.237354085603107
4.200427252613103
4.255817502098108
4.225045141273086
4.212736196943095
4.151191475293081
5.954451819638329
4.538923221688139
4.231199613438097
4.2065817247780855
4.1942727804480935
4.138882530963089
4.157345947458091
3.800386561888025
2.520256351567857
3.75115078456803
4.120419114468088
4.163500419623101
4.212736196943095
4.766638691793168
5.923679458813336
3.578825563948007
2.4279392690928487
3.75730525673304
4.034256504158063
4.028102031993082
3.9727117825080467
3.9604028381780574
3.948093893848065
3.9234760051880535
3.855776811373057
3.874240227868059
3.9727117825080467
3.9542483660130467
3.9234760051880535
3.886549172198051
3.886549172198051
3.9357849495180455
3.8188499783830263
3.8803947000330408
3.9173215330230438
3.8988581165280416
3.905012588693053
3.9419394216830552
3.9357849495180455
3.9850207268380675
4.021947559828071
4.077337809313075
4.058874392818074
4.089646753643067
4.021947559828071
4.065028864983084
4.101955697973087
4.1327280587980795
4.157345947458091
4.108110170138069
4.089646753643067
4.145037003128072
4.114264642303079
4.151191475293081
4.120419114468088
4.120419114468088
4.157345947458091
4.12657358663307
4.12657358663307
4.095801225808079
4.145037003128072
4.151191475293081
4.052719920653064
4.181963836118102
4.212736196943095
4.157345947458091
4.145037003128072
4.249663029933098
4.2865898629231
4.212736196943095
4.200427252613103
4.151191475293081
4.151191475293081
4.1758093639530935
4.157345947458091
4.065028864983084
4.083492281478085
4.1758093639530935
4.108110170138069
3.9973296711680604
4.157345947458091
4.37890694539811
4.237354085603107
4.0465654484880815
4.052719920653064
4.0711833371480655
3.9665573103430645
3.9911751990030497
3.9850207268380675
3.9788662546730578
4.095801225808079
3.9973296711680604
3.905012588693053
4.015793087663061
3.9604028381780574
3.4311182319879947
3.788077617558033
3.9357849495180455
3.905012588693053
3.9296304773530633
3.948093893848065
3.9973296711680604
3.948093893848065
3.9357849495180455
3.948093893848065
3.9357849495180455
3.9357849495180455
3.9173215330230438
4.052719920653064
4.7912565804531795
3.701915007248036
3.738841840238039
4.083492281478085
4.120419114468088
4.157345947458091
4.2065817247780855
4.151191475293081
4.1942727804480935
4.157345947458091
4.163500419623101
4.1942727804480935
4.1758093639530935
4.348134584573115
4.354289056738125
4.065028864983084
4.009638615498079
4.243508557768089
4.1942727804480935
4.095801225808079
4.058874392818074
4.151191475293081
4.089646753643067
4.0711833371480655
4.200427252613103
4.077337809313075
4.698939497978172
5.412858269118276
3.9788662546730578
4.218890669108104
4.120419114468088
3.843467867043037
2.4587116299178424
3.548053203123014
4.0465654484880815
4.077337809313075
4.108110170138069
4.101955697973087
4.114264642303079
4.0711833371480655
4.1758093639530935
4.2681264464281
4.108110170138069
4.0711833371480655
4.114264642303079
3.9727117825080467
3.9788662546730578
4.095801225808079
4.009638615498079
4.034256504158063
4.077337809313075
4.0711833371480655
4.034256504158063
4.003484143333068
4.040410976323072
4.108110170138069
4.040410976323072
4.114264642303079
4.083492281478085
4.040410976323072
4.095801225808079
4.077337809313075
4.089646753643067
4.095801225808079
4.0711833371480655
3.9973296711680604
4.0711833371480655
4.077337809313075
3.8680857557030492
3.7142239515780275
3.9296304773530633
3.9911751990030497
3.9296304773530633
3.9665573103430645
4.0465654484880815
4.058874392818074
3.9788662546730578
4.114264642303079
4.083492281478085
4.114264642303079
4.0465654484880815
4.089646753643067
4.255817502098108
4.120419114468088
4.0711833371480655
4.145037003128072
4.114264642303079
4.077337809313075
4.169654891788083
4.12657358663307
4.212736196943095
4.231199613438097
4.12657358663307
4.3173622237481215
4.280435390758093
4.1942727804480935
4.157345947458091
4.151191475293081
4.083492281478085
4.1327280587980795
4.089646753643067
4.040410976323072
3.9850207268380675
3.9604028381780574
4.058874392818074
4.0465654484880815
4.052719920653064
4.114264642303079
4.169654891788083
4.354289056738125
4.428142722718132
4.108110170138069
4.1327280587980795
4.200427252613103
4.157345947458091
4.188118308283084
4.255817502098108
4.169654891788083
4.231199613438097
4.225045141273086
4.1942727804480935
4.1942727804480935
4.27428091859311
3.9911751990030497
3.855776811373057
4.095801225808079
4.0711833371480655
4.163500419623101
4.1327280587980795
4.108110170138069
4.181963836118102
4.145037003128072
4.077337809313075
4.077337809313075
4.1327280587980795
4.157345947458091
4.261971974263091
4.822028941278172
4.3727524732331275
4.095801225808079
4.083492281478085
4.157345947458091
4.040410976323072
4.089646753643067
4.1327280587980795
4.095801225808079
4.095801225808079
4.12657358663307
4.655858192823159
5.7328908216983105
3.9973296711680604
3.609597924773
4.009638615498079
4.058874392818074
4.0711833371480655
4.077337809313075
4.003484143333068
2.575646601052861
3.141858040232953
3.9850207268380675
4.028102031993082
4.077337809313075
4.095801225808079
4.114264642303079
4.065028864983084
3.9850207268380675
4.114264642303079
4.1327280587980795
4.157345947458091
4.151191475293081
4.145037003128072
4.163500419623101
4.138882530963089
4.114264642303079
4.163500419623101
4.138882530963089
4.077337809313075
4.12657358663307
4.151191475293081
4.058874392818074
4.0711833371480655
4.138882530963089
4.200427252613103
4.169654891788083
4.151191475293081
4.157345947458091
4.12657358663307
4.169654891788083
4.157345947458091
4.095801225808079
4.157345947458091
4.225045141273086
4.225045141273086
4.212736196943095
4.1758093639530935
4.089646753643067
4.181963836118102
4.101955697973087
4.095801225808079
4.163500419623101
4.169654891788083
4.200427252613103
4.169654891788083
4.1942727804480935
5.265150937158236
4.840492357773174
4.495841916533129
4.028102031993082
4.108110170138069
4.151191475293081
4.138882530963089
3.886549172198051
2.5141018794028467
3.4618905928129893
4.034256504158063
4.114264642303079
4.1327280587980795
4.083492281478085
4.120419114468088
4.280435390758093
4.163500419623101
4.095801225808079
4.1758093639530935
4.138882530963089
4.058874392818074
4.120419114468088
4.021947559828071
4.668167137153151
3.788077617558033
3.7757686732280415
4.0711833371480655
4.052719920653064
4.108110170138069
4.563541110348153
4.329671168078114
4.212736196943095
4.083492281478085
4.108110170138069
4.1942727804480935
4.114264642303079
4.114264642303079
4.145037003128072
4.181963836118102
4.169654891788083
4.12657358663307
4.163500419623101
4.12657358663307
3.7265328959080186
3.9542483660130467
4.095801225808079
4.095801225808079
4.120419114468088
4.108110170138069
4.0465654484880815
4.058874392818074
4.052719920653064
3.9727117825080467
3.9973296711680604
4.0465654484880815
4.114264642303079
4.329671168078114
4.575850054678144
4.157345947458091
4.108110170138069
4.095801225808079
4.163500419623101
4.157345947458091
4.095801225808079
4.2681264464281
4.108110170138069
4.52661427735815
5.178988326848239
4.883573662928187
4.305053279418103
2.9510694031179288
2.1817603824928202
3.781923145393024
4.003484143333068
4.021947559828071
3.9234760051880535
3.9357849495180455
4.028102031993082
3.9419394216830552
3.8927036443630603
3.9173215330230438
3.948093893848065
3.9604028381780574
4.009638615498079
3.9911751990030497
3.9542483660130467
4.1327280587980795
4.003484143333068
4.058874392818074
4.1327280587980795
4.12657358663307
4.095801225808079
4.114264642303079
4.095801225808079
4.083492281478085
4.058874392818074
4.1327280587980795
4.108110170138069
4.0465654484880815
3.9419394216830552
3.905012588693053
4.009638615498079
4.095801225808079
4.052719920653064
3.9911751990030497
4.052719920653064
4.052719920653064
4.052719920653064
4.003484143333068
4.003484143333068
4.009638615498079
4.120419114468088
4.058874392818074
3.9911751990030497
3.9665573103430645
3.9419394216830552
3.9234760051880535
3.9357849495180455
3.886549172198051
3.9296304773530633
3.9173215330230438
3.9173215330230438
3.8988581165280416
3.9419394216830552
3.9850207268380675
4.360443528903107
4.145037003128072
4.003484143333068
4.040410976323072
4.101955697973087
4.188118308283084
4.200427252613103
4.120419114468088
4.2065817247780855
4.120419114468088
4.181963836118102
4.231199613438097
4.2065817247780855
4.077337809313075
3.572671091782997
3.9542483660130467
4.27428091859311
4.225045141273086
4.231199613438097
4.27428091859311
4.292744335088111
4.249663029933098
4.27428091859311
4.218890669108104
4.305053279418103
4.243508557768089
4.237354085603107
4.483532972203136
4.68047608148317
4.323516695913104
4.292744335088111
4.237354085603107
4.27428091859311
4.243508557768089
4.145037003128072
4.200427252613103
4.200427252613103
4.2065817247780855
4.261971974263091
4.231199613438097
4.108110170138069
3.9850207268380675
3.7757686732280415
4.120419114468088
4.151191475293081
4.101955697973087
4.040410976323072
4.065028864983084
3.948093893848065
4.0465654484880815
4.058874392818074
3.9604028381780574
3.9665573103430645
3.948093893848065
3.9173215330230438
4.151191475293081
3.8803947000330408
3.886549172198051
3.7942320897230433
3.837313394878028
3.886549172198051
3.843467867043037
3.8680857557030492
4.508150860863147
5.585183489738299
3.843467867043037
3.843467867043037
3.874240227868059
3.9111670608580615
3.652679229928013
3.3695735103379807
2.138679077337807
3.363419038172971
3.788077617558033
3.8065410340530352
3.781923145393024
3.8065410340530352
3.831158922713046
3.7080694794130173
3.874240227868059
3.8927036443630603
3.8496223392080475
3.9973296711680604
3.9604028381780574
3.874240227868059
3.8988581165280416
3.9111670608580615
3.855776811373057
3.8988581165280416
3.9173215330230438
3.9419394216830552
3.9234760051880535
3.9727117825080467
4.040410976323072
4.009638615498079
3.9357849495180455
4.052719920653064
3.9788662546730578
3.9542483660130467
4.003484143333068
3.9727117825080467
3.9727117825080467
4.028102031993082
3.9665573103430645
3.948093893848065
3.9234760051880535
3.9419394216830552
3.9604028381780574
3.9357849495180455
3.9911751990030497
3.8803947000330408
3.9173215330230438
4.003484143333068
3.9604028381780574
4.003484143333068
3.9911751990030497
4.040410976323072
4.003484143333068
4.052719920653064
3.948093893848065
4.015793087663061
4.065028864983084
4.003484143333068
4.0465654484880815
3.9911751990030497
3.8927036443630603
4.028102031993082
4.145037003128072
4.120419114468088
3.9419394216830552
4.058874392818074
3.9850207268380675
4.003484143333068
4.083492281478085
3.9419394216830552
4.0465654484880815
4.089646753643067
4.052719920653064
4.015793087663061
4.089646753643067
4.12657358663307
4.095801225808079
4.009638615498079
4.169654891788083
4.0711833371480655
4.058874392818074
4.083492281478085
4.138882530963089
4.1327280587980795
4.028102031993082
4.077337809313075
4.157345947458091
4.1942727804480935
4.108110170138069
4.114264642303079
4.034256504158063
4.065028864983084
4.157345947458091
4.003484143333068
4.015793087663061
4.0465654484880815
4.095801225808079
4.108110170138069
4.009638615498079
4.1327280587980795
4.0711833371480655
4.015793087663061
4.089646753643067
4.052719920653064
4.089646753643067
4.108110170138069
4.1327280587980795
4.169654891788083
4.083492281478085
4.108110170138069
4.114264642303079
4.188118308283084
4.145037003128072
4.157345947458091
4.065028864983084
4.089646753643067
4.058874392818074
4.120419114468088
4.188118308283084
4.169654891788083
4.575850054678144
5.443630629943269
4.52661427735815
3.9665573103430645
4.083492281478085
4.2065817247780855
4.2865898629231
4.305053279418103
4.329671168078114
4.2065817247780855
4.077337809313075
2.6064189618778553
3.3511100938429803
3.9357849495180455
4.218890669108104
4.145037003128072
4.0711833371480655
4.188118308283084
4.243508557768089
4.237354085603107
4.225045141273086
4.68047608148317
4.520459805193139
4.2681264464281
4.231199613438097
4.243508557768089
4.2681264464281
4.151191475293081
4.1758093639530935
4.200427252613103
4.237354085603107
4.188118308283084
4.188118308283084
4.157345947458091
4.157345947458091
3.6896060629180156
3.9911751990030497
4.169654891788083
4.108110170138069
4.169654891788083
4.151191475293081
4.120419114468088
4.1758093639530935
4.108110170138069
4.1942727804480935
4.200427252613103
4.188118308283084
4.218890669108104
4.095801225808079
3.9419394216830552
4.188118308283084
4.237354085603107
4.27428091859311
4.2681264464281
4.280435390758093
4.231199613438097
4.1942727804480935
4.218890669108104
4.1758093639530935
4.1758093639530935
4.157345947458091
4.1758093639530935
4.237354085603107
4.077337809313075
4.114264642303079
4.157345947458091
4.114264642303079
4.298898807253093
4.151191475293081
4.095801225808079
4.200427252613103
4.188118308283084
4.157345947458091
4.188118308283084
4.2681264464281
4.27428091859311
4.440451667048122
4.2065817247780855
4.225045141273086
4.120419114468088
4.218890669108104
4.163500419623101
4.083492281478085
4.120419114468088
4.1758093639530935
4.157345947458091
4.114264642303079
4.188118308283084
4.114264642303079
4.108110170138069
4.157345947458091
4.138882530963089
4.089646753643067
4.12657358663307
4.151191475293081
4.145037003128072
4.089646753643067
4.1942727804480935
4.089646753643067
4.151191475293081
4.108110170138069
4.12657358663307
4.151191475293081
4.040410976323072
3.8496223392080475
4.1327280587980795
4.138882530963089
4.120419114468088
4.1327280587980795
4.169654891788083
4.188118308283084
4.12657358663307
4.015793087663061
4.083492281478085
4.0711833371480655
4.0465654484880815
4.108110170138069
4.212736196943095
4.095801225808079
4.151191475293081
4.021947559828071
4.1327280587980795
4.785102108288171
5.9421428753083365
4.077337809313075
4.181963836118102
4.237354085603107
4.261971974263091
3.3449556216779697
2.6618092113628857
3.9727117825080467
4.329671168078114
4.231199613438097
4.212736196943095
4.157345947458091
4.1942727804480935
4.2065817247780855
4.1327280587980795
4.12657358663307
4.181963836118102
4.169654891788083
4.138882530963089
4.138882530963089
4.169654891788083
4.225045141273086
3.9173215330230438
4.052719920653064
4.101955697973087
3.9850207268380675
4.052719920653064
4.065028864983084
4.089646753643067
4.052719920653064
4.028102031993082
4.089646753643067
4.0711833371480655
4.028102031993082
4.0465654484880815
4.323516695913104
4.446606139213133
4.101955697973087
4.058874392818074
4.077337809313075
4.0465654484880815
4.108110170138069
4.12657358663307
4.058874392818074
4.034256504158063
4.181963836118102
4.101955697973087
4.108110170138069
4.1758093639530935
3.75115078456803
3.695760535083026
4.101955697973087
4.157345947458091
4.065028864983084
4.0711833371480655
4.114264642303079
4.1327280587980795
4.151191475293081
4.114264642303079
4.12657358663307
4.169654891788083
3.9788662546730578
4.095801225808079
4.200427252613103
4.169654891788083
3.9419394216830552
4.021947559828071
4.101955697973087
4.083492281478085
4.095801225808079
4.101955697973087
4.138882530963089
4.12657358663307
4.077337809313075
4.095801225808079
4.101955697973087
4.157345947458091
4.360443528903107
4.1942727804480935
4.188118308283084
4.212736196943095
4.2065817247780855
4.1327280587980795
4.1758093639530935
4.188118308283084
4.243508557768089
4.169654891788083
4.120419114468088
4.212736196943095
4.157345947458091
4.341980112408105
4.341980112408105
4.1758093639530935
4.249663029933098
4.218890669108104
4.181963836118102
4.237354085603107
4.188118308283084
4.181963836118102
4.255817502098108
4.188118308283084
4.200427252613103
4.145037003128072
4.108110170138069
3.905012588693053
3.905012588693053
4.095801225808079
4.12657358663307
4.101955697973087
4.089646753643067
4.083492281478085
4.169654891788083
4.1327280587980795
4.040410976323072
4.1327280587980795
4.108110170138069
4.114264642303079
4.231199613438097
4.114264642303079
4.034256504158063
4.163500419623101
4.735866330968175
5.554411128913278
2.501792935072855
3.652679229928013
4.101955697973087
4.138882530963089
4.095801225808079
4.114264642303079
4.151191475293081
4.095801225808079
3.9542483660130467
3.8619312835380395
4.101955697973087
4.114264642303079
3.9665573103430645
4.0465654484880815
4.114264642303079
4.095801225808079
4.065028864983084
4.095801225808079
4.040410976323072
4.077337809313075
4.108110170138069
4.095801225808079
4.145037003128072
4.280435390758093
4.169654891788083
4.120419114468088
4.1327280587980795
4.1758093639530935
4.169654891788083
4.138882530963089
4.157345947458091
4.163500419623101
4.052719920653064
4.157345947458091
4.1327280587980795
4.108110170138069
4.101955697973087
4.0711833371480655
4.169654891788083
4.1327280587980795
4.101955697973087
4.138882530963089
4.108110170138069
4.0711833371480655
4.151191475293081
4.1327280587980795
4.1327280587980795
4.120419114468088
4.12657358663307
4.108110170138069
4.040410976323072
4.009638615498079
4.034256504158063
4.052719920653064
3.9788662546730578
3.9850207268380675
4.009638615498079
4.058874392818074
4.034256504158063
4.015793087663061
4.021947559828071
3.9911751990030497
4.188118308283084
4.243508557768089
4.181963836118102
4.12657358663307
4.089646753643067
4.12657358663307
4.120419114468088
4.157345947458091
5.345159075303252
5.345159075303252
4.034256504158063
4.181963836118102
4.255817502098108
4.1327280587980795
4.145037003128072
4.101955697973087
2.587955545382853
3.154166984562945
3.9542483660130467
4.095801225808079
4.1327280587980795
4.0465654484880815
4.0711833371480655
4.0711833371480655
4.12657358663307
4.065028864983084
4.101955697973087
4.0711833371480655
4.120419114468088
3.905012588693053
4.009638615498079
4.138882530963089
4.077337809313075
4.040410976323072
4.052719920653064
4.083492281478085
4.040410976323072
4.021947559828071
4.015793087663061
3.9173215330230438
4.0465654484880815
4.114264642303079
4.200427252613103
4.212736196943095
4.028102031993082
3.9357849495180455
4.058874392818074
4.1758093639530935
3.9911751990030497
4.065028864983084
4.065028864983084
4.0465654484880815
4.083492281478085
4.065028864983084
4.058874392818074
4.095801225808079
4.052719920653064
4.040410976323072
4.5327687495231315
5.246687520663237
4.557386638183142
4.114264642303079
3.9296304773530633
2.526410823732866
3.0987767350779407
3.9727117825080467
4.034256504158063
4.052719920653064
3.9850207268380675
3.9665573103430645
3.843467867043037
3.8680857557030492
4.015793087663061
3.9850207268380675
3.948093893848065
4.065028864983084
4.015793087663061
3.9850207268380675
4.040410976323072
3.9727117825080467
4.028102031993082
3.9850207268380675
4.015793087663061
4.058874392818074
4.009638615498079
3.9911751990030497
3.9173215330230438
3.9665573103430645
4.052719920653064
4.0465654484880815
3.9850207268380675
3.9788662546730578
4.028102031993082
4.028102031993082
4.0711833371480655
3.9911751990030497
4.028102031993082
4.255817502098108
4.477378500038126
4.108110170138069
4.1327280587980795
4.101955697973087
4.138882530963089
4.058874392818074
4.114264642303079
4.089646753643067
4.052719920653064
4.009638615498079
4.065028864983084
4.095801225808079
4.114264642303079
3.886549172198051
3.825004450548036
4.065028864983084
4.083492281478085
4.021947559828071
4.0711833371480655
4.065028864983084
4.015793087663061
4.065028864983084
4.077337809313075
4.015793087663061
4.12657358663307
4.065028864983084
4.034256504158063
4.366598001068117
4.145037003128072
4.0711833371480655
4.058874392818074
4.040410976323072
4.089646753643067
4.028102031993082
4.058874392818074
4.951272856743211
3.6034434526080172
3.701915007248036
4.058874392818074
4.077337809313075
4.052719920653064
3.591134508277999
3.9604028381780574
4.058874392818074
4.009638615498079
4.028102031993082
4.034256504158063
4.034256504158063
4.009638615498079
3.9850207268380675
4.028102031993082
4.021947559828071
3.948093893848065
3.9973296711680604
4.138882530963089
4.157345947458091
4.052719920653064
4.058874392818074
4.052719920653064
4.0711833371480655
4.034256504158063
4.040410976323072
3.9665573103430645
3.9973296711680604
4.052719920653064
4.015793087663061
3.9973296711680604
4.058874392818074
4.095801225808079
4.052719920653064
3.9911751990030497
3.9788662546730578
4.009638615498079
4.0465654484880815
4.003484143333068
4.015793087663061
4.028102031993082
3.9911751990030497
4.040410976323072
4.052719920653064
3.9604028381780574
4.101955697973087
5.080516772208221
5.486711935098282
4.538923221688139
4.218890669108104
4.101955697973087
4.145037003128072
4.151191475293081
4.145037003128072
3.049540957757918
2.8525978484779113
4.003484143333068
4.009638615498079
3.9911751990030497
3.9234760051880535
3.572671091782997
3.8927036443630603
4.0711833371480655
4.058874392818074
3.9604028381780574
4.021947559828071
4.009638615498079
3.9973296711680604
4.101955697973087
4.095801225808079
4.083492281478085
4.083492281478085
4.12657358663307
4.120419114468088
4.145037003128072
4.089646753643067
4.101955697973087
4.089646753643067
4.009638615498079
4.101955697973087
4.034256504158063
4.108110170138069
4.009638615498079
4.077337809313075
4.0465654484880815
3.9911751990030497
4.089646753643067
4.028102031993082
3.9419394216830552
4.089646753643067
4.114264642303079
4.083492281478085
4.0465654484880815
4.101955697973087
4.021947559828071
4.028102031993082
4.145037003128072
4.077337809313075
4.058874392818074
4.0711833371480655
4.145037003128072
4.034256504158063
4.034256504158063
4.052719920653064
4.015793087663061
4.114264642303079
4.12657358663307
4.0711833371480655
4.052719920653064
4.028102031993082
4.0711833371480655
4.034256504158063
3.9850207268380675
4.034256504158063
4.1327280587980795
4.1758093639530935
4.052719920653064
4.089646753643067
4.0465654484880815
4.089646753643067
4.095801225808079
4.138882530963089
4.0465654484880815
4.0465654484880815
4.138882530963089
4.040410976323072
4.077337809313075
4.089646753643067
4.434297194883113
4.495841916533129
4.12657358663307
4.12657358663307
4.052719920653064
4.052719920653064
4.1327280587980795
4.077337809313075
4.028102031993082
4.021947559828071
3.9911751990030497
3.9604028381780574
3.9973296711680604
3.9788662546730578
3.6834515907530063
3.6896060629180156
3.8927036443630603
3.9911751990030497
3.9911751990030497
3.9419394216830552
4.015793087663061
3.9604028381780574
3.9727117825080467
4.058874392818074
4.108110170138069
4.151191475293081
4.089646753643067
4.145037003128072
4.181963836118102
4.065028864983084
4.095801225808079
4.108110170138069
4.163500419623101
4.0711833371480655
4.021947559828071
4.040410976323072
4.083492281478085
4.077337809313075
4.0465654484880815
4.009638615498079
4.588158999008135
5.683655044378289
3.9419394216830552
3.7265328959080186
2.4525571577528327
3.6896060629180156
4.077337809313075
4.138882530963089
4.101955697973087
4.1327280587980795
4.12657358663307
4.089646753643067
4.249663029933098
4.2065817247780855
4.120419114468088
4.188118308283084
4.0711833371480655
4.114264642303079
4.052719920653064
4.877419190763177
5.523638768088285
4.12657358663307
3.9788662546730578
4.040410976323072
4.040410976323072
4.040410976323072
4.052719920653064
2.8895246814679143
2.96953281961293
4.058874392818074
4.138882530963089
4.12657358663307
4.157345947458091
4.0711833371480655
4.1942727804480935
4.255817502098108
4.163500419623101
4.181963836118102
4.1758093639530935
4.101955697973087
4.181963836118102
4.1327280587980795
4.101955697973087
4.077337809313075
4.028102031993082
4.052719920653064
4.015793087663061
3.9665573103430645
3.9850207268380675
4.009638615498079
3.9665573103430645
4.021947559828071
4.015793087663061
3.9788662546730578
3.9604028381780574
4.021947559828071
4.157345947458091
4.212736196943095
4.81587446911319
3.7757686732280415
3.7942320897230433
4.003484143333068
4.120419114468088
4.0711833371480655
3.9911751990030497
4.052719920653064
4.1758093639530935
4.1327280587980795
4.163500419623101
4.151191475293081
4.083492281478085
4.083492281478085
4.157345947458091
4.188118308283084
4.249663029933098
4.255817502098108
4.200427252613103
4.2065817247780855
4.225045141273086
4.237354085603107
4.181963836118102
4.163500419623101
4.077337809313075
4.237354085603107
4.501996388698137
4.27428091859311
4.200427252613103
4.188118308283084
4.231199613438097
4.280435390758093
4.237354085603107
4.181963836118102
4.341980112408105
4.360443528903107
4.2865898629231
4.261971974263091
4.323516695913104
4.255817502098108
3.75115078456803
4.1327280587980795
4.2681264464281
4.37890694539811
4.434297194883113
4.3727524732331275
4.446606139213133
4.538923221688139
4.421988250553122
4.440451667048122
4.440451667048122
4.514305333028129
4.465069555708134
4.686630553648152
4.649703720658149
4.563541110348153
4.471224027873144
4.5327687495231315
4.508150860863147
4.360443528903107
4.452760611378115
4.465069555708134
4.421988250553122
4.391215889728128
4.871264718598195
5.646728211388286
4.803565524783171
4.711248442308165
4.606622415503137
4.397370361893111
4.12657358663307
2.5941100175478624
3.4618905928129893
4.101955697973087
4.114264642303079
4.095801225808079
4.083492281478085
4.040410976323072
4.052719920653064
3.9850207268380675
3.9357849495180455
3.5234353144630024
3.75115078456803
3.8680857557030492
3.874240227868059
3.9357849495180455
3.8619312835380395
3.905012588693053
4.065028864983084
4.12657358663307
4.157345947458091
4.2065817247780855
4.243508557768089
4.391215889728128
4.637394776328158
4.489687444368147
4.606622415503137
4.735866330968175
4.8528013021031935
5.012817578393197
5.025126522723218
5.148215966023217
5.308232242313249
5.19129727117823
5.3390046031382425
5.363622491798253
5.31438671447826
5.419012741283257
5.566720073243298
5.4005493247882566
5.449785102108279
5.0312809948882
4.723557386638154
4.551232166018132
4.354289056738125
4.489687444368147
4.2865898629231
4.212736196943095
4.255817502098108
4.1758093639530935
4.138882530963089
4.225045141273086
4.225045141273086
4.114264642303079
4.231199613438097
4.2865898629231
4.3112077515831135
4.218890669108104
4.292744335088111
4.483532972203136
4.348134584573115
4.514305333028129
4.698939497978172
4.668167137153151
4.963581801073202
5.228224104168233
5.997533124793343
5.720581877368319
5.8805981536583225
5.948297347473347
6.040614429948354
5.960606291803339
5.751354238193313
5.831362376338328
6.329874621703424
7.160728363978547
7.560769054703599
6.532972203148468
5.948297347473347
6.071386790773348
7.000712087688543
7.314590168103568
6.305256733043441
5.628264794893284
5.369776963963263
5.117443605198224
4.982045217568204
5.086671244373231
5.080516772208221
5.012817578393197
5.154370438188227
5.19129727117823
5.142061493858235
5.572874545408279
5.572874545408279
5.246687520663237
5.105134660868233
5.154370438188227
5.277459881488257
5.289768825818246
5.388240380458265
5.517484295923275
5.6590371557183055
5.948297347473347
6.028305485618365
5.499020879428274
5.585183489738299
5.455939574273261
6.071386790773348
7.296126751608567
6.840695811398511
7.025329976348528
7.136110475318563
7.142264947483545
7.443834083568606
7.806947941303655
8.699346405228765
10.416444139264014
7.979273161923678
7.659240609343616
9.887159533073952
10.927265328959074
11.43808651865416
11.53040360112917
11.591948322779185
10.964192161949104
10.564151471224026
9.917931893898945
9.327102566058871
8.67472851656878
7.942346328933675
7.33920805676358
7.185346252638558
7.4930698608886015
7.345362528928589
7.160728363978547
6.871468172223505
6.877622644388515
7.123801530988544
7.462297500063607
7.665395081508625
8.12698049388369
8.79166348770377
9.01937895780883
9.136313928943846
9.17939523409883
9.46250095368889
10.441062027924023
10.994964522774097
10.859566135144078
11.124208438239108
11.124208438239108
10.85341166297907
10.36105388977901
10.988810050609088
11.345769436179154
10.964192161949104
10.945728745454076
9.080923679458813
8.342387019658727
8.26853335367872
8.570102489763753
9.062460262963812
9.536354619668895
9.905622949568954
10.10872053101397
10.38567177843902
10.878029551639079
11.247297881539136
11.216525520714116
11.136517382569128
11.721192238244193
14.84150962589964
16.090867475394816
16.16472114137482
16.95249357849493
17.771038376440064
18.441875842425162
18.571119757890163
18.429566898095132
18.448030314590135
18.54650186923016
17.974135957885082
17.118664326949972
16.59553419292489
15.09384298466468
13.198265557844394
11.721192238244193
10.557996999059045
10.521070166069041
10.61954172070903
10.010248976373951
9.542509091833878
9.56712698049389
9.222476539253844
9.622517229978895
10.662623025864043
11.007273467104094
11.204216576384123
11.57963937844919
11.567330434119171
11.345769436179154
10.89033849596907
9.622517229978895
9.357874926883863
9.887159533073952
6.034459957783346
4.5943134711731455
4.157345947458091
3.8619312835380395
3.75115078456803
3.3695735103379807
1.6647847206327224
1.6524757763027313
4.809719996948181
3.141858040232953
-1.3509066402176972
-1.0431830319676536
0.2800284835075273
1.11088222578265
1.9232725515627715
2.323313242287821
2.8464433763129016
3.363419038172971
3.8803947000330408
3.8619312835380395
3.874240227868059
3.8619312835380395
3.8619312835380395
3.9604028381780574
4.237354085603107
4.292744335088111
4.323516695913104
4.551232166018132
4.7297118588031655
4.81587446911319
4.778947636123188
4.692785025813162
5.271305409323245
6.496045370158464
4.7297118588031655
4.7912565804531795
4.67432160931816
3.9727117825080467
2.8402889041478923
4.803565524783171
5.449785102108279
5.148215966023217
5.098980188703223
4.9881996897332135
4.723557386638154
4.662012664988168
4.569695582513134
4.477378500038126
4.3727524732331275
4.329671168078114
4.298898807253093
4.237354085603107
4.151191475293081
4.298898807253093
4.3173622237481215
4.415833778388112
4.91434602375318
5.05589888354821
4.7297118588031655
4.68047608148317
4.748175275298167
4.858955774268176
4.809719996948181
4.858955774268176
4.766638691793168
4.871264718598195
4.822028941278172
4.778947636123188
4.748175275298167
4.563541110348153
4.538923221688139
4.52661427735815
4.5943134711731455
4.557386638183142
4.508150860863147
4.40352483405812
4.434297194883113
4.335825640243124
4.335825640243124
4.280435390758093
4.225045141273086
4.415833778388112
4.563541110348153
4.698939497978172
4.754329747463175
5.05589888354821
5.246687520663237
5.277459881488257
5.33285013097326
5.382085908293255
5.31438671447826
5.271305409323245
5.185142799013221
5.025126522723218
5.0743623000432105
5.037435467053208
5.178988326848239
5.326695658808251
5.234378576333243
5.363622491798253
5.363622491798253
5.369776963963263
5.535947712418277
5.585183489738299
5.529793240253267
5.369776963963263
5.363622491798253
5.425167213448267
5.480557462933272
5.320541186643241
5.086671244373231
5.012817578393197
5.148215966023217
5.258996464993254
5.258996464993254
5.363622491798253
5.554411128913278
5.425167213448267
5.419012741283257
5.628264794893284
5.6713461000482965
5.6713461000482965
5.634419267058294
5.579029017573289
5.455939574273261
5.228224104168233
5.160524910353237
5.105134660868233
4.93896391241319
4.618931359833156
4.501996388698137
4.5943134711731455
4.649703720658149
4.471224027873144
4.557386638183142
4.5943134711731455
4.67432160931816
4.772793163958178
4.982045217568204
5.283614353653239
5.437476157778259
5.455939574273261
5.351313547468262
5.345159075303252
5.326695658808251
5.2405330484982535
5.2405330484982535
5.185142799013221
4.994354161898196
4.963581801073202
5.0743623000432105
5.258996464993254
5.535947712418277
5.905216042318334
6.840695811398511
7.936191856768665
6.908395005213508
5.554411128913278
4.588158999008135
3.418809287657976
2.4894839907428636
2.255614048472826
2.261768520637808
0.4154268711375475
1.5663131659927332
2.858752320642893
3.468045064977998
3.609597924773
3.8803947000330408
4.120419114468088
4.37890694539811
4.575850054678144
4.569695582513134
4.458915083543125
4.298898807253093
3.831158922713046
3.006459652602933
2.8464433763129016
2.815671015487909
2.6925815721878803
3.1295490959029335
3.5234353144630024
3.8188499783830263
4.3112077515831135
4.483532972203136
4.225045141273086
3.720378423743037
2.778744182497905
-18.39264006510516
-33.397243203377336
-3.8434678670430653
1.437069250527695
1.9848172732127856
2.304849825792821
2.895679153632896
3.3695735103379807
3.8927036443630603
3.5849800361130173
2.624882378372884
1.5663131659927332
1.0554919762976458
1.000101726812641
0.5446707866025856
0.14463009587750708
-1.3385976958876775
-4.508150860863147
-10.342590473284009
-19.42043691666032
-25.81493349609623
-24.344014648661013
-13.204420030009405
-3.75730525673304
0.04615854123751762
1.8801912464077586
2.9264515144579173
3.1726304010579467
2.821825487652891
1.6278578876427194
1.5601586938277234
2.009435161872797
1.849418885582765
1.6709391927977324
1.2955163907326928
1.289361918567683
1.289361918567683
1.6709391927977324
2.3540856031128428
2.975687291777912
3.332646677347978
3.763459728898022
4.6435492484931675
5.665191627883287
5.948297347473347
6.459118537168461
7.049947865008538
8.219297576358697
10.207192085653988
12.441265481549307
14.127590854759537
15.10615192899467
15.530810508379732
15.900078838279791
15.961623559929802
15.444647898069737
14.330688436204554
12.970550087739369
12.133541873299263
11.591948322779185
11.444240990819171
11.493476768139166
10.921110856794092
10.324127056789006
10.065639225858957
9.905622949568954
9.720988784618912
9.874850588743932
9.954858726888949
10.010248976373951
10.441062027924023
10.594923832049048
11.19190763205413
11.665801988759187
12.090460568144252
12.668980951654337
13.210574502174415
13.77678594135448
14.084509549604526
13.739859108364477
13.210574502174415
12.33663945474428
11.339614964014144
10.176419724828968
8.8101269041988
7.622313776353613
6.637598229953468
5.714427405203311
5.929833930978346
6.859159227893513
4.2865898629231
3.578825563948007
1.6463213041377216
0.8647033391826209
1.8001831082627426
1.4309147783627132
0.6185244525825918
0.31695531649755804
0.5631342030975872
1.0370285598026439
1.7817196917677414
2.2063782711528033
2.2679229928028177
2.2063782711528033
2.329467714452832
2.674118155692878
3.1357035680679433
3.412654815492993
3.578825563948007
3.720378423743037
3.9911751990030497
4.6435492484931675
5.178988326848239
5.351313547468262
5.628264794893284
5.757508710358322
5.634419267058294
5.289768825818246
4.828183413443182
4.323516695913104
3.732687368073029
3.3388011495129604
2.994150708272913
2.883370209302905
3.271101955697964
1.7201749701177547
0.9631748938226381
0.4892805371175811
0.10770326288750408
-0.13232115154751534
-0.11385773505251384
-0.889321227842632
-1.25243508557768
0.5200528979425745
1.2832074464026733
1.689402609292734
2.0463619948628
2.2925408814628288
2.7418173495078744
3.738841840238039
3.4434271763179867
3.572671091782997
3.3880369268329824
2.9202970422929075
2.335622186617841
1.7694107474377496
1.3078253350626845
0.7846952010376053
0.09539431855751236
-0.17540245670252808
-0.396963454642546
-0.5262073701075842
-1.1293456422776516
-1.7694107474377496
-1.510922916507701
-1.677093664962742
-2.0586709391927913
-2.347931130947833
-2.520256351567857
-2.403321380432838
-2.2186872154828228
-1.6586302484677409
-0.9139391165026156
0.37850003814754446
1.2339716690826785
2.120215660842805
2.8649067928079033
3.4434271763179867
3.9357849495180455
4.108110170138069
3.9727117825080467
3.9173215330230438
3.855776811373057
3.837313394878028
3.9727117825080467
4.028102031993082
4.1758093639530935
4.385061417563119
4.520459805193139
4.698939497978172
5.412858269118276
4.822028941278172
4.501996388698137
4.335825640243124
4.348134584573115
4.3112077515831135
4.188118308283084
4.237354085603107
4.335825640243124
4.2065817247780855
4.3173622237481215
4.37890694539811
4.508150860863147
4.465069555708134
4.114264642303079
4.735866330968175
5.135907021693225
5.258996464993254
5.388240380458265
5.554411128913278
5.628264794893284
5.591337961903281
5.6036469062333
5.517484295923275
5.406703796953265
5.357468019633243
5.33285013097326
5.160524910353237
4.902037079423188
4.945118384578201
5.7451997660283025
7.019175504183546
4.982045217568204
5.000508634063205
5.006663106228215
5.006663106228215
5.037435467053208
4.3727524732331275
3.412654815492993
4.797411052618189
5.178988326848239
5.874443681493341
5.73904529386332
5.566720073243298
5.628264794893284
5.6590371557183055
5.542102184583286
5.622110322728302
5.628264794893284
5.6590371557183055
5.609801378398282
5.609801378398282
5.683655044378289
5.6898095165432965
5.511329823758264
4.754329747463175
4.803565524783171
4.705093970143154
4.428142722718132
4.151191475293081
4.015793087663061
3.9665573103430645
3.9111670608580615
3.8988581165280416
3.9296304773530633
4.083492281478085
4.249663029933098
4.366598001068117
4.834337885608192
5.351313547468262
5.308232242313249
5.474402990768261
5.455939574273261
5.486711935098282
5.640573739223304
5.757508710358322
5.911370514483344
6.034459957783346
6.108313623763351
6.052923374278346
6.059077846443356
6.083695735103367
5.991378652628332
6.077541262938357
6.120622568093371
6.120622568093371
6.169858345413365
6.040614429948354
6.040614429948354
5.991378652628332
5.7944355433483254
5.646728211388286
5.554411128913278
5.443630629943269
5.425167213448267
5.505175351593283
5.277459881488257
5.462094046438272
5.566720073243298
5.597492434068291
5.548256656748296
5.419012741283257
5.19129727117823
5.018972050558207
4.895882607258178
4.846646829938186
4.840492357773174
4.877419190763177
5.018972050558207
5.357468019633243
6.083695735103367
5.554411128913278
5.468248518603279
5.486711935098282
5.394394852623274
5.443630629943269
5.388240380458265
5.369776963963263
5.388240380458265
5.31438671447826
5.246687520663237
5.160524910353237
5.080516772208221
4.6435492484931675
4.237354085603107
4.797411052618189
4.822028941278172
4.686630553648152
4.631240304163148
4.52661427735815
4.557386638183142
4.575850054678144
4.54507769385315
4.489687444368147
4.575850054678144
4.569695582513134
4.631240304163148
4.797411052618189
4.662012664988168
4.5820045268431535
4.471224027873144
4.471224027873144
4.428142722718132
4.40352483405812
4.397370361893111
4.446606139213133
4.551232166018132
4.67432160931816
4.6435492484931675
4.514305333028129
4.391215889728128
4.145037003128072
4.766638691793168
6.163703873248383
3.948093893848065
2.3540856031128428
3.357264566007961
4.089646753643067
4.101955697973087
4.0711833371480655
4.0465654484880815
4.009638615498079
3.905012588693053
3.7696142010630322
3.781923145393024
3.825004450548036
3.7757686732280415
3.855776811373057
3.9111670608580615
3.9542483660130467
3.9665573103430645
4.231199613438097
4.366598001068117
4.366598001068117
4.495841916533129
4.52661427735815
4.501996388698137
4.434297194883113
4.631240304163148
4.489687444368147
4.446606139213133
4.348134584573115
4.3173622237481215
4.3173622237481215
4.2681264464281
4.255817502098108
4.188118308283084
4.089646753643067
4.065028864983084
4.108110170138069
4.114264642303079
4.058874392818074
4.495841916533129
4.391215889728128
4.108110170138069
4.040410976323072
4.065028864983084
4.1327280587980795
4.163500419623101
4.151191475293081
4.151191475293081
4.163500419623101
4.151191475293081
3.9911751990030497
3.8988581165280416
3.874240227868059
3.2280206505429514
3.437272704152977
3.7142239515780275
3.6465247577630033
3.572671091782997
3.48035400930799
3.4557361206479786
3.511126370132983
3.4988174258029914
3.381882454667973
3.511126370132983
3.572671091782997
3.591134508277999
3.8126955062180454
3.825004450548036
3.8988581165280416
4.089646753643067
4.181963836118102
4.3112077515831135
4.508150860863147
4.477378500038126
4.588158999008135
4.563541110348153
4.54507769385315
4.575850054678144
4.477378500038126
4.471224027873144
4.477378500038126
4.181963836118102
4.12657358663307
4.145037003128072
4.089646753643067
4.058874392818074
4.255817502098108
4.305053279418103
4.3173622237481215
4.212736196943095
4.218890669108104
4.323516695913104
4.2681264464281
4.200427252613103
4.520459805193139
4.421988250553122
4.280435390758093
4.329671168078114
4.323516695913104
4.428142722718132
4.489687444368147
4.551232166018132
4.5820045268431535
4.895882607258178
5.84982579283333
4.945118384578201
4.5943134711731455
4.618931359833156
4.40352483405812
4.5327687495231315
4.908191551588198
4.3112077515831135
3.406500343327984
4.895882607258178
5.05589888354821
4.975890745403193
4.846646829938186
4.67432160931816
4.606622415503137
4.6435492484931675
4.329671168078114
4.93896391241319
6.102159151598369
4.108110170138069
4.077337809313075
4.231199613438097
4.138882530963089
2.4587116299178424
2.760280766002876
3.9727117825080467
4.329671168078114
4.391215889728128
4.360443528903107
4.3173622237481215
4.27428091859311
4.772793163958178
4.778947636123188
4.391215889728128
4.471224027873144
4.686630553648152
4.760484219628157
4.822028941278172
4.846646829938186
4.994354161898196
4.9266549680832
4.81587446911319
4.902037079423188
4.7297118588031655
4.6004679433381535
3.9911751990030497
3.9542483660130467
4.1758093639530935
4.108110170138069
3.9788662546730578
3.9173215330230438
3.843467867043037
3.738841840238039
3.788077617558033
3.75115078456803
3.541898730958004
3.609597924773
3.6034434526080172
3.658833702093023
3.763459728898022
3.658833702093023
3.763459728898022
3.886549172198051
3.831158922713046
3.886549172198051
3.8803947000330408
3.788077617558033
3.8065410340530352
3.8188499783830263
3.831158922713046
3.9111670608580615
3.75730525673304
3.9911751990030497
4.138882530963089
3.9419394216830552
3.8803947000330408
3.800386561888025
3.800386561888025
3.695760535083026
3.640370285598021
3.6465247577630033
3.75115078456803
3.75115078456803
3.75730525673304
3.831158922713046
3.9542483660130467
3.825004450548036
3.9357849495180455
4.181963836118102
4.2681264464281
4.2865898629231
4.255817502098108
4.157345947458091
3.9727117825080467
3.9357849495180455
3.8988581165280416
3.7942320897230433
3.7265328959080186
3.5972889804430093
3.6649881742580046
3.572671091782997
3.418809287657976
3.3388011495129604
3.283410900027955
3.215711706212959
3.264947483532954
3.184939345387937
3.166475928892937
3.1480125123979352
3.0680043742529195
2.994150708272913
2.975687291777912
2.895679153632896
2.907988097962916
2.8095165433228986
2.680272627857888
2.797207598992907
2.8649067928079033
2.8402889041478923
2.871061264972913
2.9510694031179288
3.074158846417929
3.1233946237379517
3.055695429922928
3.0987767350779407
3.184939345387937
3.074158846417929
2.747971821672884
2.3417766587828237
2.495638462907845
2.409475852597848
2.2433051041428067
2.194069326822812
2.077134355687793
2.1694514381628007
2.304849825792821
2.483329518577854
2.631036850537866
2.797207598992907
3.6219068691030203
4.3727524732331275
1.6586302484677409
3.117240151572942
3.5665166196180156
3.720378423743037
3.8496223392080475
3.9850207268380675
3.9665573103430645
3.9542483660130467
3.8680857557030492
3.8803947000330408
3.8188499783830263
3.652679229928013
3.5172808422979926
3.4557361206479786
3.363419038172971
3.363419038172971
3.3388011495129604
3.4618905928129893
3.4618905928129893
3.3203377330179586
3.2095572340479492
3.2034027618829395
3.1357035680679433
3.2095572340479492
3.197248289717957
3.406500343327984
3.449581648482997
3.7265328959080186
3.7265328959080186
3.6896060629180156
3.874240227868059
4.052719920653064
4.169654891788083
4.3727524732331275
4.434297194883113
4.446606139213133
4.458915083543125
4.495841916533129
4.452760611378115
4.538923221688139
4.871264718598195
4.846646829938186
4.563541110348153
4.508150860863147
4.3112077515831135
4.1942727804480935
4.114264642303079
4.1758093639530935
4.0711833371480655
4.034256504158063
3.9850207268380675
4.034256504158063
4.1758093639530935
4.2065817247780855
4.397370361893111
4.8528013021031935
4.895882607258178
4.6004679433381535
4.637394776328158
4.785102108288171
4.883573662928187
4.945118384578201
5.135907021693225
5.19129727117823
5.172833854683229
5.295923297983257
5.308232242313249
5.185142799013221
5.062053355713221
4.514305333028129
4.612776887668146
4.785102108288171
4.809719996948181
4.809719996948181
4.778947636123188
4.68047608148317
4.705093970143154
4.625085831998166
4.5943134711731455
4.612776887668146
4.588158999008135
4.655858192823159
4.723557386638154
4.711248442308165
4.705093970143154
4.705093970143154
4.68047608148317
4.772793163958178
5.172833854683229
4.686630553648152
4.631240304163148
4.538923221688139
4.415833778388112
4.366598001068117
4.292744335088111
4.225045141273086
4.163500419623101
4.341980112408105
4.188118308283084
4.163500419623101
4.12657358663307
4.237354085603107
4.249663029933098
4.335825640243124
4.335825640243124
4.40967930622313
4.538923221688139
4.557386638183142
4.6435492484931675
4.723557386638154
4.588158999008135
4.5327687495231315
4.434297194883113
4.2681264464281
4.2065817247780855
4.261971974263091
4.2681264464281
4.40967930622313
4.415833778388112
4.385061417563119
4.975890745403193
6.120622568093371
4.200427252613103
4.181963836118102
3.732687368073029
2.089443300017785
3.2464840670379527
3.7696142010630322
3.8065410340530352
3.843467867043037
3.9234760051880535
3.8927036443630603
3.905012588693053
3.948093893848065
3.8803947000330408
3.9788662546730578
4.095801225808079
4.083492281478085
3.763459728898022
3.874240227868059
3.843467867043037
3.5972889804430093
3.591134508277999
3.5172808422979926
3.4926629536379816
3.591134508277999
3.701915007248036
3.825004450548036
3.8065410340530352
3.7449963124030208
3.9604028381780574
4.058874392818074
3.9111670608580615
3.905012588693053
3.9419394216830552
3.8496223392080475
4.034256504158063
4.003484143333068
4.058874392818074
4.188118308283084
4.2865898629231
4.3112077515831135
4.145037003128072
3.9357849495180455
3.9357849495180455
3.7757686732280415
3.695760535083026
3.948093893848065
4.0711833371480655
4.114264642303079
4.2681264464281
4.834337885608192
6.649907174283487
5.4005493247882566
5.529793240253267
5.597492434068291
5.874443681493341
5.960606291803339
6.403728287683458
6.132931512423362
4.772793163958178
6.41603723201345
6.772996617583489
6.779151089748497
6.785305561913507
6.717606368098483
6.576053508303481
6.471427481498454
6.132931512423362
5.7944355433483254
5.419012741283257
5.006663106228215
4.723557386638154
4.421988250553122
4.212736196943095
4.058874392818074
3.5972889804430093
3.424963759822985
3.1726304010579467
2.871061264972913
2.612573434042864
2.526410823732866
2.501792935072855
2.538719768062857
2.563337656722869
2.6987360443528896
2.711044988682881
2.612573434042864
2.68642710002287
2.7171994608478913
2.674118155692878
2.587955545382853
2.544874240227868
2.538719768062857
2.5325652958978484
2.434093741257831
2.187914854657802
2.1079067165127863
2.1325246051727973
2.077134355687793
2.624882378372884
2.335622186617841
2.1325246051727973
2.04020752269779
1.9971262175427773
2.083288827852803
2.089443300017785
2.2063782711528033
2.3540856031128428
2.372549019607845
2.538719768062857
2.723353933012873
2.901833625797906
3.0249230690979347
2.6433457948678853
3.363419038172971
3.886549172198051
3.763459728898022
3.874240227868059
4.021947559828071
4.003484143333068
3.9419394216830552
4.397370361893111
5.351313547468262
4.52661427735815
4.151191475293081
4.218890669108104
4.446606139213133
4.563541110348153
4.538923221688139
3.0864677907479487
3.825004450548036
4.883573662928187
5.037435467053208
5.0743623000432105
5.148215966023217
5.19129727117823
5.166679382518219
5.098980188703223
4.982045217568204
4.889728135093197
4.754329747463175
4.606622415503137
4.563541110348153
4.557386638183142
4.612776887668146
4.508150860863147
4.428142722718132
4.489687444368147
4.471224027873144
4.452760611378115
4.3727524732331275
4.3112077515831135
4.188118308283084
4.2865898629231
4.151191475293081
4.065028864983084
4.212736196943095
4.261971974263091
4.354289056738125
4.477378500038126
4.477378500038126
4.3112077515831135
4.354289056738125
4.292744335088111
4.280435390758093
4.218890669108104
4.120419114468088
4.249663029933098
4.569695582513134
4.0711833371480655
4.052719920653064
4.009638615498079
3.8803947000330408
3.720378423743037
3.5172808422979926
3.400345871162973
3.406500343327984
3.394191398997992
3.363419038172971
3.2957198443579747
3.258793011367972
3.2095572340479492
3.332646677347978
3.0310775412629165
3.006459652602933
3.0680043742529195
3.184939345387937
3.117240151572942
3.3511100938429803
3.363419038172971
3.357264566007961
3.394191398997992
3.400345871162973
3.3388011495129604
3.264947483532954
2.624882378372884
2.723353933012873
3.2280206505429514
3.308028788687967
3.3695735103379807
3.357264566007961
3.4618905928129893
3.529589786627985
3.5542076752879965
3.504971897968001
3.511126370132983
3.6034434526080172
3.541898730958004
3.5542076752879965
3.7080694794130173
3.511126370132983
3.418809287657976
3.4434271763179867
3.4988174258029914
3.541898730958004
3.695760535083026
3.61575239693801
3.788077617558033
3.800386561888025
3.843467867043037
3.855776811373057
3.874240227868059
4.065028864983084
4.034256504158063
3.948093893848065
4.101955697973087
4.114264642303079
4.040410976323072
4.0711833371480655
4.052719920653064
4.0711833371480655
4.212736196943095
4.089646753643067
4.163500419623101
4.2865898629231
4.163500419623101
4.052719920653064
3.9296304773530633
3.874240227868059
3.732687368073029
3.677297118588024
3.720378423743037
3.609597924773
4.298898807253093
5.714427405203311
3.7142239515780275
2.883370209302905
2.04020752269779
3.3388011495129604
3.5172808422979926
3.437272704152977
3.4741995371429804
3.5172808422979926
3.4741995371429804
3.61575239693801
3.720378423743037
3.8188499783830263
3.8680857557030492
4.003484143333068
4.0711833371480655
4.151191475293081
4.237354085603107
4.249663029933098
4.145037003128072
4.889728135093197
4.489687444368147
4.2065817247780855
4.212736196943095
4.145037003128072
4.089646753643067
4.1327280587980795
4.114264642303079
4.1327280587980795
4.200427252613103
4.212736196943095
4.1758093639530935
4.12657358663307
3.9727117825080467
3.591134508277999
3.8803947000330408
3.9234760051880535
3.8680857557030492
3.948093893848065
4.021947559828071
3.8803947000330408
3.9296304773530633
4.083492281478085
4.323516695913104
4.360443528903107
4.292744335088111
4.151191475293081
4.034256504158063
3.75730525673304
4.028102031993082
3.9788662546730578
4.0465654484880815
4.009638615498079
4.058874392818074
4.12657358663307
4.120419114468088
4.212736196943095
4.3173622237481215
4.1942727804480935
4.2065817247780855
4.298898807253093
4.354289056738125
4.243508557768089
4.243508557768089
4.2865898629231
4.397370361893111
4.1758093639530935
4.218890669108104
4.181963836118102
4.145037003128072
4.052719920653064
3.9850207268380675
4.028102031993082
4.095801225808079
4.095801225808079
4.354289056738125
4.138882530963089
4.089646753643067
4.120419114468088
4.1327280587980795
4.021947559828071
4.0465654484880815
4.028102031993082
4.0465654484880815
4.108110170138069
4.157345947458091
4.225045141273086
4.255817502098108
4.157345947458091
4.2065817247780855
4.538923221688139
4.477378500038126
4.458915083543125
4.440451667048122
4.465069555708134
4.415833778388112
4.471224027873144
4.329671168078114
4.341980112408105
4.2681264464281
4.341980112408105
4.40967930622313
4.37890694539811
4.292744335088111
4.397370361893111
4.188118308283084
4.489687444368147
4.1758093639530935
4.1758093639530935
4.083492281478085
3.9850207268380675
4.040410976323072
4.009638615498079
3.9542483660130467
3.948093893848065
3.905012588693053
3.855776811373057
3.9419394216830552
4.095801225808079
4.305053279418103
6.249866483558383
4.692785025813162
4.157345947458091
3.437272704152977
3.9727117825080467
4.1758093639530935
4.255817502098108
3.8803947000330408
2.483329518577854
4.083492281478085
4.569695582513134
4.3727524732331275
4.3727524732331275
4.3727524732331275
4.348134584573115
4.298898807253093
4.421988250553122
4.421988250553122
4.508150860863147
4.563541110348153
4.575850054678144
4.631240304163148
4.717402914473172
4.723557386638154
4.5820045268431535
4.606622415503137
4.477378500038126
4.354289056738125
4.237354085603107
4.1758093639530935
4.1758093639530935
4.255817502098108
4.188118308283084
4.1758093639530935
4.231199613438097
4.255817502098108
4.237354085603107
4.151191475293081
4.065028864983084
4.108110170138069
4.225045141273086
4.305053279418103
4.2681264464281
4.292744335088111
4.3173622237481215
4.298898807253093
4.335825640243124
4.434297194883113
4.440451667048122
4.465069555708134
4.520459805193139
4.766638691793168
4.67432160931816
4.5820045268431535
4.68047608148317
4.772793163958178
4.840492357773174
4.828183413443182
4.723557386638154
4.655858192823159
4.452760611378115
4.261971974263091
4.138882530963089
3.9357849495180455
3.7757686732280415
3.843467867043037
3.948093893848065
3.8803947000330408
3.9727117825080467
4.034256504158063
4.0465654484880815
3.9911751990030497
4.034256504158063
4.065028864983084
4.028102031993082
4.034256504158063
4.151191475293081
4.188118308283084
4.434297194883113
4.218890669108104
4.366598001068117
4.440451667048122
4.477378500038126
4.446606139213133
4.446606139213133
4.489687444368147
4.428142722718132
4.348134584573115
4.280435390758093
4.120419114468088
3.9234760051880535
3.8680857557030492
4.009638615498079
4.034256504158063
4.12657358663307
4.292744335088111
4.335825640243124
4.471224027873144
4.717402914473172
4.889728135093197
4.93896391241319
5.012817578393197
4.963581801073202
4.908191551588198
4.822028941278172
4.748175275298167
4.514305333028129
4.3727524732331275
4.3727524732331275
4.305053279418103
4.249663029933098
4.12657358663307
4.065028864983084
3.9604028381780574
3.9357849495180455
3.948093893848065
3.9604028381780574
3.9788662546730578
3.9296304773530633
4.0711833371480655
4.200427252613103
4.12657358663307
4.163500419623101
4.902037079423188
6.145240456753354
2.612573434042864
2.815671015487909
3.9357849495180455
3.8927036443630603
3.9234760051880535
3.9419394216830552
4.040410976323072
4.052719920653064
4.1942727804480935
4.157345947458091
4.145037003128072
4.114264642303079
4.040410976323072
4.0465654484880815
4.114264642303079
4.040410976323072
4.065028864983084
4.0465654484880815
4.0465654484880815
3.9973296711680604
4.009638615498079
3.9111670608580615
3.9234760051880535
3.8496223392080475
3.886549172198051
4.003484143333068
3.9911751990030497
4.015793087663061
4.077337809313075
4.12657358663307
4.212736196943095
4.2865898629231
4.181963836118102
4.452760611378115
4.508150860863147
4.6435492484931675
4.563541110348153
4.7420208031331565
4.945118384578201
5.092825716538213
5.062053355713221
5.068207827878203
5.086671244373231
5.105134660868233
5.123598077363234
5.080516772208221
4.9881996897332135
4.908191551588198
4.803565524783171
4.902037079423188
4.91434602375318
4.785102108288171
4.7912565804531795
4.908191551588198
4.895882607258178
4.8651102464331855
4.908191551588198
4.957427328908192
4.889728135093197
4.797411052618189
4.748175275298167
4.606622415503137
4.538923221688139
4.452760611378115
4.200427252613103
4.1758093639530935
4.1758093639530935
4.1327280587980795
4.095801225808079
4.145037003128072
3.9973296711680604
4.095801225808079
4.015793087663061
3.8927036443630603
3.732687368073029
3.634215813433012
3.578825563948007
3.4926629536379816
3.4618905928129893
3.289565372192965
3.363419038172971
3.3695735103379807
3.3511100938429803
3.4311182319879947
3.5665166196180156
3.609597924773
3.652679229928013
3.7080694794130173
3.8126955062180454
3.701915007248036
3.8065410340530352
3.695760535083026
3.61575239693801
3.781923145393024
3.8680857557030492
3.825004450548036
3.9296304773530633
4.077337809313075
4.028102031993082
3.9542483660130467
4.009638615498079
3.9542483660130467
3.9419394216830552
3.948093893848065
4.003484143333068
4.040410976323072
4.077337809313075
4.108110170138069
4.095801225808079
4.065028864983084
4.040410976323072
4.065028864983084
4.003484143333068
4.058874392818074
4.114264642303079
4.015793087663061
4.0465654484880815
4.631240304163148
3.8065410340530352
3.825004450548036
4.637394776328158
5.511329823758264
4.698939497978172
4.391215889728128
4.329671168078114
3.3511100938429803
2.883370209302905
4.1758093639530935
4.428142722718132
4.471224027873144
4.575850054678144
4.637394776328158
4.54507769385315
4.538923221688139
4.458915083543125
4.520459805193139
4.520459805193139
4.631240304163148
4.705093970143154
4.6435492484931675
4.760484219628157
4.81587446911319
4.563541110348153
4.649703720658149
4.618931359833156
4.618931359833156
4.508150860863147
4.2681264464281
4.021947559828071
3.843467867043037
3.8126955062180454
3.7265328959080186
3.695760535083026
3.7142239515780275
3.6649881742580046
3.7142239515780275
3.75730525673304
3.7942320897230433
3.75115078456803
3.7142239515780275
3.701915007248036
3.843467867043037
3.9296304773530633
4.200427252613103
4.305053279418103
4.3173622237481215
4.40352483405812
4.391215889728128
4.385061417563119
4.446606139213133
4.440451667048122
4.366598001068117
4.40967930622313
4.735866330968175
4.67432160931816
4.323516695913104
4.27428091859311
4.163500419623101
4.181963836118102
4.138882530963089
4.1327280587980795
4.040410976323072
4.12657358663307
4.003484143333068
3.9357849495180455
3.8680857557030492
3.6465247577630033
3.2957198443579747
5.431321685613277
4.3112077515831135
4.003484143333068
4.028102031993082
4.12657358663307
4.114264642303079
4.0465654484880815
3.7757686732280415
2.212532743317813
3.308028788687967
3.788077617558033
3.781923145393024
3.7757686732280415
3.591134508277999
3.6834515907530063
3.75730525673304
3.8188499783830263
3.874240227868059
3.874240227868059
3.9665573103430645
4.034256504158063
4.052719920653064
4.083492281478085
4.114264642303079
