-0.18771140103251985
-0.17540245670252808
-0.18155692886753785
-0.17540245670252808
-0.17540245670252808
-0.18771140103251985
-0.18155692886753785
-0.18771140103251985
-0.18155692886753785
-0.1692479845375183
-0.15078456804251686
-0.1015487907225221
-0.07693090206251085
-0.04615854123751762
-0.04000406907250786
-0.033849596907498114
-0.04000406907250786
-0.06462195773251911
-0.06462195773251911
-0.07693090206251085
-0.07693090206251085
-0.09539431855751236
-0.11385773505251384
-0.1384756237125251
-0.15078456804251686
-0.18155692886753785
-0.2000203453625393
-0.2061748175275213
-0.2000203453625393
-0.2000203453625393
-0.21232928969253104
-0.21232928969253104
-0.21232928969253104
-0.2184837618575408
-0.21232928969253104
-0.1938658731975296
-0.2000203453625393
-0.18771140103251985
-0.18155692886753785
-0.18771140103251985
-0.1938658731975296
-0.2000203453625393
-0.18771140103251985
-0.2061748175275213
-0.2061748175275213
-0.21232928969253104
-0.2184837618575408
-0.2246382340225228
-0.21232928969253104
-0.2000203453625393
-0.2000203453625393
-0.2061748175275213
-0.23079270618753256
-0.24925612268253405
-0.26156506701252585
-0.2369471783525424
-0.2184837618575408
-0.2061748175275213
-0.18771140103251985
-0.16309351237253633
-0.14463009587750708
-0.12001220721752358
-0.11385773505251384
-0.09539431855751236
-0.08923984639250257
-0.09539431855751236
-0.08308537422752059
-0.08308537422752059
-0.08308537422752059
-0.08923984639250257
-0.08308537422752059
-0.07693090206251085
-0.08308537422752059
-0.08923984639250257
-0.08923984639250257
-0.08923984639250257
-0.08923984639250257
-0.04000406907250786
-0.04000406907250786
-0.02769512474251612
-0.02769512474251612
-0.033849596907498114
-0.033849596907498114
-0.04615854123751762
-0.06462195773251911
-0.0707764298975011
-0.06462195773251911
-0.0707764298975011
-0.06462195773251911
-0.05846748556750937
-0.05846748556750937
-0.04615854123751762
-0.02154065257750637
-0.02769512474251612
-0.04000406907250786
-0.05846748556750937
-0.0707764298975011
-0.07693090206251085
-0.08923984639250257
-0.08308537422752059
-0.09539431855751236
-0.10770326288750408
-0.11385773505251384
-0.13232115154751534
-0.14463009587750708
-0.14463009587750708
-0.15078456804251686
-0.15693904020752658
-0.15693904020752658
-0.16309351237253633
-0.15693904020752658
-0.15693904020752658
-0.14463009587750708
-0.15078456804251686
-0.16309351237253633
-0.15693904020752658
-0.16309351237253633
-0.1692479845375183
-0.18155692886753785
-0.1938658731975296
-0.2061748175275213
-0.2184837618575408
-0.23079270618753256
-0.21232928969253104
-0.18155692886753785
-0.1938658731975296
-0.2061748175275213
-0.2061748175275213
-0.2061748175275213
-0.1938658731975296
-0.14463009587750708
-0.1384756237125251
-0.1384756237125251
-0.10770326288750408
-0.1015487907225221
-0.09539431855751236
-0.08923984639250257
-0.1015487907225221
-0.11385773505251384
-0.11385773505251384
-0.09539431855751236
-0.07693090206251085
-0.09539431855751236
-0.1261666793825056
-0.12001220721752358
-0.09539431855751236
-0.05846748556750937
-0.1015487907225221
-0.16309351237253633
-0.18771140103251985
-0.1938658731975296
-0.21232928969253104
-0.24925612268253405
-0.26771953917753555
-0.2554105948475438
-0.26156506701252585
-0.29233742783754685
-0.3292642608275498
-0.390808982477564
-0.433890287632549
-0.45850817629256013
-0.47697159278756174
-0.4831260649525715
-0.5077439536125827
-0.5015894814475731
-0.5077439536125827
-0.5138984257775646
-0.5323618422725662
-0.5323618422725662
-0.5323618422725662
-0.538516314437576
-0.5508252587675677
-0.538516314437576
-0.5200528979425745
-0.5262073701075842
-0.538516314437576
-0.5323618422725662
-0.5138984257775646
-0.5015894814475731
-0.47697159278756174
-0.433890287632549
-0.40927239897256545
-0.37850003814754446
-0.32310978866254003
-0.2738740113425453
-0.26156506701252585
-0.33541873299255964
-0.45850817629256013
-0.6062155082525723
-0.6862236463975879
-0.6862236463975879
-0.6739147020675963
-0.6369878690775933
-0.6000610360875902
-0.5569797309325777
-0.5200528979425745
-0.4892805371175811
-0.4708171206225797
-0.45850817629256013
-0.45850817629256013
-0.44619923196256844
-0.44619923196256844
-0.433890287632549
-0.42158134330255725
-0.4154268711375475
-0.40927239897256545
-0.40927239897256545
-0.396963454642546
-0.3846545103125543
-0.37850003814754446
-0.37850003814754446
-0.37850003814754446
-0.37850003814754446
-0.3846545103125543
-0.3846545103125543
-0.3846545103125543
-0.37850003814754446
-0.37850003814754446
-0.390808982477564
-0.40927239897256545
-0.40927239897256545
-0.42158134330255725
-0.433890287632549
-0.4400447597975588
-0.4708171206225797
-0.4831260649525715
-0.5077439536125827
-0.49543500928256323
-0.4892805371175811
-0.49543500928256323
-0.4892805371175811
-0.4892805371175811
-0.4892805371175811
-0.4708171206225797
-0.46466264845757
-0.44619923196256844
-0.427735815467567
-0.390808982477564
-0.3415732051575415
-0.30464637216753854
-0.26156506701252585
-0.2184837618575408
-0.18771140103251985
-0.17540245670252808
-0.1384756237125251
-0.1015487907225221
-0.04615854123751762
-0.003077236082504875
0.12001220721752358
0.28618295567253704
0.5200528979425745
0.538516314437576
0.6123699804175823
0.9816383103176396
1.0924188092876486
1.11088222578265
1.1478090587726528
1.1355001144426613
1.104727753617668
1.0862643371226666
1.0493375041326358
1.0185651433076426
0.9877927824826491
0.9570204216576284
0.9200935886676254
0.901630172172624
0.8708578113476306
0.8523943948526291
0.8216220340276081
0.8093130896976164
0.7846952010376053
0.7662317845426038
0.7416138958825924
0.7293049515526008
0.7169960072226089
0.6985325907276074
0.6800691742326057
0.6677602299025862
0.6492968134075847
0.6369878690775933
0.6246789247476012
0.6062155082525723
0.6000610360875902
0.5815976195925888
0.5631342030975872
0.5508252587675677
0.5631342030975872
0.5508252587675677
0.5446707866025856
0.5200528979425745
0.5015894814475731
0.47697159278756174
0.4708171206225797
0.46466264845757
0.4523537041275505
0.4523537041275505
0.44619923196256844
0.427735815467567
0.42158134330255725
0.4154268711375475
0.396963454642546
0.3846545103125543
0.37850003814754446
0.3723455659825625
0.36619109381755277
0.34772767732255133
0.33541873299255964
0.33541873299255964
0.32310978866254003
0.3108008443325483
0.30464637216753854
0.2984919000025288
0.29233742783754685
0.2800284835075273
0.2738740113425453
0.26771953917753555
0.2554105948475438
0.2431016505175243
0.2369471783525424
0.2369471783525424
0.2246382340225228
0.2184837618575408
0.2061748175275213
0.2061748175275213
0.2000203453625393
0.1938658731975296
0.17540245670252808
0.17540245670252808
0.16309351237253633
0.16309351237253633
0.15693904020752658
0.15078456804251686
0.1384756237125251
0.1384756237125251
0.12001220721752358
0.12001220721752358
0.11385773505251384
0.10770326288750408
0.12001220721752358
0.10770326288750408
0.07693090206251085
0.07693090206251085
0.07693090206251085
0.06462195773251911
0.0707764298975011
0.06462195773251911
0.05231301340249961
0.04615854123751762
0.04615854123751762
0.04615854123751762
0.04000406907250786
0.02769512474251612
0.02769512474251612
0.02769512474251612
0.009231708247514623
0.009231708247514623
0.009231708247514623
0.009231708247514623
-0.003077236082504875
-0.009231708247514623
-0.009231708247514623
-0.01538618041249662
-0.02154065257750637
-0.02154065257750637
-0.02769512474251612
-0.033849596907498114
-0.033849596907498114
-0.033849596907498114
-0.04000406907250786
-0.05231301340249961
-0.04615854123751762
-0.05231301340249961
-0.04615854123751762
-0.04000406907250786
-0.04615854123751762
-0.04000406907250786
-0.04000406907250786
-0.04615854123751762
-0.05231301340249961
-0.04615854123751762
-0.05846748556750937
-0.05846748556750937
-0.06462195773251911
-0.07693090206251085
-0.08923984639250257
-0.09539431855751236
-0.09539431855751236
-0.09539431855751236
-0.1015487907225221
-0.10770326288750408
-0.10770326288750408
-0.12001220721752358
-0.12001220721752358
-0.13232115154751534
-0.3292642608275498
-0.7970041453676248
-1.1170366979476598
-1.2708985020726815
-1.3509066402176972
-1.4124513618677115
-1.4555326670226965
-1.473996083517698
-1.4863050278477177
-1.510922916507701
-1.510922916507701
-1.4863050278477177
-1.4616871391877062
-1.4186058340326935
-1.3509066402176972
-1.289361918567683
-1.2462806134126705
-1.2339716690826785
-1.25243508557768
-1.3078253350626845
-1.4247603061977032
-1.5170773886727107
-1.5355408051677124
-1.504768444342719
-1.467841611352716
-1.4309147783627132
-1.3878334732077002
-1.3509066402176972
-1.3201342793926762
-1.2770529742376913
-1.25243508557768
-1.2401261412476885
-1.2339716690826785
-1.215508252587677
-1.215508252587677
-1.2031993082576575
-1.184735891762656
-1.1724269474326645
-1.1539635309376628
-1.1478090587726528
-1.1355001144426613
-1.1231911701126696
-1.11088222578265
-1.0985732814526583
-1.0924188092876486
-1.0862643371226666
-1.073955392792647
-1.0616464484626553
-1.0493375041326358
-1.0431830319676536
-1.0308740876376343
-1.0124106711426328
-1.0062561989776508
-1.000101726812641
-0.9877927824826491
-0.9877927824826491
-0.9816383103176396
-0.9754838381526297
-0.9631748938226381
-0.9508659494926462
-0.9447114773276367
-0.9262480608326351
-0.9200935886676254
-0.9077846443376336
-0.8831667556776225
-0.8831667556776225
-0.8708578113476306
-0.8585488670176111
-0.8400854505226096
-0.8400854505226096
-0.8339309783576276
-0.8216220340276081
-0.8093130896976164
-0.7970041453676248
-0.7785407288726233
-0.7662317845426038
-0.7723862567076134
-0.7539228402126119
-0.7354594237176102
-0.7354594237176102
-0.7231504793875909
-0.7169960072226089
-0.7169960072226089
-0.7108415350575992
-0.7108415350575992
-0.6985325907276074
-0.6923781185625978
-0.6800691742326057
-0.6800691742326057
-0.6739147020675963
-0.6800691742326057
-0.6800691742326057
-0.6800691742326057
-0.6862236463975879
-0.6862236463975879
-0.6862236463975879
-0.6862236463975879
-0.6862236463975879
-0.6862236463975879
-0.6862236463975879
-0.6985325907276074
-0.6985325907276074
-0.7046870628925892
-0.6985325907276074
-0.6800691742326057
-0.6308333969125834
-0.538516314437576
-0.2431016505175243
0.24925612268253405
0.6739147020675963
0.9200935886676254
0.9324025329976448
0.9139391165026156
0.895475700007614
0.8770122835126126
0.8523943948526291
0.8400854505226096
0.8154675618626261
0.7970041453676248
0.7785407288726233
0.7723862567076134
0.7477683680476023
0.7354594237176102
0.7169960072226089
0.6985325907276074
0.6800691742326057
0.6677602299025862
0.6492968134075847
0.6308333969125834
0.6308333969125834
0.6123699804175823
0.6000610360875902
0.5877520917575707
0.5815976195925888
0.5631342030975872
0.538516314437576
0.5323618422725662
0.5138984257775646
0.5077439536125827
0.5138984257775646
0.5015894814475731
0.47697159278756174
0.46466264845757
0.4523537041275505
0.44619923196256844
0.433890287632549
0.4154268711375475
0.40311792680755576
0.390808982477564
0.390808982477564
0.37850003814754446
0.36619109381755277
0.35388214948756086
0.34772767732255133
0.33541873299255964
0.32310978866254003
0.3108008443325483
0.30464637216753854
0.29233742783754685
0.29233742783754685
0.2800284835075273
0.26771953917753555
0.26156506701252585
0.2554105948475438
0.2431016505175243
0.2431016505175243
0.2369471783525424
0.2246382340225228
0.2184837618575408
0.2061748175275213
0.2000203453625393
0.1938658731975296
0.18155692886753785
0.17540245670252808
0.17540245670252808
0.16309351237253633
0.15078456804251686
0.14463009587750708
0.12001220721752358
0.1015487907225221
0.08923984639250257
0.06462195773251911
0.003077236082504875
-0.15078456804251686
-0.3723455659825625
-0.575443147427579
-0.7416138958825924
-0.9262480608326351
-1.0431830319676536
-1.0924188092876486
-1.1231911701126696
-1.1231911701126696
-1.1231911701126696
-1.1231911701126696
-1.1293456422776516
-1.141654586607671
-1.141654586607671
-1.141654586607671
-1.1539635309376628
-1.1478090587726528
-1.1601180031026725
-1.1662724752676545
-1.184735891762656
-1.178581419597674
-1.178581419597674
-1.1724269474326645
-1.1724269474326645
-1.1539635309376628
-1.141654586607671
-1.1231911701126696
-1.11088222578265
-1.0985732814526583
-1.073955392792647
-1.0431830319676536
-1.0124106711426328
-0.9816383103176396
-0.9385570051626267
-0.9262480608326351
-0.9077846443376336
-0.901630172172624
-0.889321227842632
-0.8585488670176111
-0.8647033391826209
-0.8647033391826209
-0.8523943948526291
-0.8462399226876194
-0.8277765061926179
-0.8093130896976164
-0.8031586175326066
-0.7908496732026148
-0.7723862567076134
-0.7231504793875909
-0.6985325907276074
-0.6923781185625978
-0.7231504793875909
-0.7354594237176102
-0.7354594237176102
-0.7169960072226089
-0.6923781185625978
-0.6862236463975879
-0.6616057577376044
-0.6616057577376044
-0.6677602299025862
-0.6800691742326057
-0.6800691742326057
-0.6923781185625978
-0.6800691742326057
-0.6554512855725947
-0.6185244525825918
-0.5692886752625692
-0.5262073701075842
-0.46466264845757
-0.390808982477564
-0.37850003814754446
-0.4523537041275505
-0.5939065639225805
-0.7477683680476023
-0.8154675618626261
-0.7846952010376053
-0.7539228402126119
-0.7293049515526008
-0.6800691742326057
-0.6308333969125834
-0.6062155082525723
-0.6000610360875902
-0.5939065639225805
-0.5877520917575707
-0.5692886752625692
-0.5692886752625692
-0.5508252587675677
-0.538516314437576
-0.538516314437576
-0.5323618422725662
-0.5077439536125827
-0.49543500928256323
-0.47697159278756174
-0.4708171206225797
-0.4708171206225797
-0.47697159278756174
-0.4708171206225797
-0.45850817629256013
-0.45850817629256013
-0.4400447597975588
-0.433890287632549
-0.427735815467567
-0.427735815467567
-0.4400447597975588
-0.4523537041275505
-0.45850817629256013
-0.4523537041275505
-0.4400447597975588
-0.433890287632549
-0.427735815467567
-0.42158134330255725
-0.427735815467567
-0.42158134330255725
-0.42158134330255725
-0.42158134330255725
-0.42158134330255725
-0.40927239897256545
-0.396963454642546
-0.396963454642546
-0.3723455659825625
-0.3415732051575415
-0.3292642608275498
-0.33541873299255964
-0.3415732051575415
-0.34772767732255133
-0.33541873299255964
-0.2984919000025288
-0.2738740113425453
-0.2369471783525424
-0.2246382340225228
-0.1938658731975296
-0.2061748175275213
-0.2000203453625393
-0.21232928969253104
-0.26156506701252585
-0.28618295567253704
-0.28618295567253704
-0.3108008443325483
-0.26771953917753555
-0.2431016505175243
-0.2738740113425453
-0.26771953917753555
-0.28618295567253704
-0.30464637216753854
-0.31695531649755804
-0.32310978866254003
-0.33541873299255964
-0.360036621652543
-0.37850003814754446
-0.3846545103125543
-0.390808982477564
-0.396963454642546
-0.4154268711375475
-0.40311792680755576
-0.4400447597975588
-0.4831260649525715
-0.49543500928256323
-0.5138984257775646
-0.5446707866025856
-0.5692886752625692
-0.6000610360875902
-0.6308333969125834
-0.6431423412426027
-0.6554512855725947
-0.6554512855725947
-0.6616057577376044
-0.6616057577376044
-0.6492968134075847
-0.6431423412426027
-0.6492968134075847
-0.6431423412426027
-0.6492968134075847
-0.6431423412426027
-0.6246789247476012
-0.6123699804175823
-0.5877520917575707
-0.5692886752625692
-0.5815976195925888
-0.5939065639225805
-0.6062155082525723
-0.6000610360875902
-0.6000610360875902
-0.5815976195925888
-0.575443147427579
-0.575443147427579
-0.5631342030975872
-0.5692886752625692
-0.575443147427579
-0.5877520917575707
-0.5939065639225805
-0.5939065639225805
-0.575443147427579
-0.5692886752625692
-0.5508252587675677
-0.5446707866025856
-0.5200528979425745
-0.5200528979425745
-0.5015894814475731
-0.5138984257775646
-0.5200528979425745
-0.5200528979425745
-0.5446707866025856
-0.5446707866025856
-0.5569797309325777
-0.5569797309325777
-0.5569797309325777
-0.5569797309325777
-0.575443147427579
-0.5815976195925888
-0.5815976195925888
-0.5877520917575707
-0.6062155082525723
-0.6062155082525723
-0.6062155082525723
-0.6185244525825918
-0.6246789247476012
-0.6308333969125834
-0.6308333969125834
-0.6369878690775933
-0.6431423412426027
-0.6554512855725947
-0.6554512855725947
-0.6431423412426027
-0.6431423412426027
-0.6431423412426027
-0.6369878690775933
-0.6369878690775933
-0.6308333969125834
-0.6308333969125834
-0.6246789247476012
-0.6246789247476012
-0.6185244525825918
-0.6185244525825918
-0.6185244525825918
-0.6246789247476012
-0.6246789247476012
-0.6123699804175823
-0.6123699804175823
-0.6123699804175823
-0.6123699804175823
-0.6000610360875902
-0.5877520917575707
-0.5877520917575707
-0.575443147427579
-0.5692886752625692
-0.575443147427579
-0.5692886752625692
-0.5692886752625692
-0.5631342030975872
-0.5569797309325777
-0.5508252587675677
-0.5446707866025856
-0.5446707866025856
-0.538516314437576
-0.538516314437576
-0.5323618422725662
-0.5323618422725662
-0.538516314437576
-0.538516314437576
-0.538516314437576
-0.5262073701075842
-0.538516314437576
-0.5323618422725662
-0.5323618422725662
-0.538516314437576
-0.538516314437576
-0.5262073701075842
-0.5262073701075842
-0.5200528979425745
-0.5138984257775646
-0.5138984257775646
-0.5077439536125827
-0.5077439536125827
-0.49543500928256323
-0.4831260649525715
-0.4708171206225797
-0.47697159278756174
-0.4831260649525715
-0.49543500928256323
-0.49543500928256323
-0.4831260649525715
-0.4892805371175811
-0.49543500928256323
-0.5077439536125827
-0.5200528979425745
-0.5262073701075842
-0.5323618422725662
-0.5323618422725662
-0.5200528979425745
-0.5138984257775646
-0.49543500928256323
-0.5015894814475731
-0.49543500928256323
-0.4831260649525715
-0.4831260649525715
-0.47697159278756174
-0.47697159278756174
-0.4831260649525715
-0.47697159278756174
-0.47697159278756174
-0.47697159278756174
-0.47697159278756174
-0.4831260649525715
-0.4708171206225797
-0.4708171206225797
-0.4523537041275505
-0.427735815467567
-0.396963454642546
-0.360036621652543
-0.3292642608275498
-0.29233742783754685
-0.24925612268253405
-0.2369471783525424
-0.28618295567253704
-0.40311792680755576
-0.538516314437576
-0.6308333969125834
-0.6369878690775933
-0.6246789247476012
-0.5815976195925888
-0.5569797309325777
-0.538516314437576
-0.5138984257775646
-0.4831260649525715
-0.4708171206225797
-0.4523537041275505
-0.45850817629256013
-0.44619923196256844
-0.4400447597975588
-0.44619923196256844
-0.4400447597975588
-0.433890287632549
-0.433890287632549
-0.427735815467567
-0.433890287632549
-0.42158134330255725
-0.42158134330255725
-0.42158134330255725
-0.4154268711375475
-0.40311792680755576
-0.40927239897256545
-0.4154268711375475
-0.40311792680755576
-0.40927239897256545
-0.396963454642546
-0.40311792680755576
-0.396963454642546
-0.390808982477564
-0.390808982477564
-0.390808982477564
-0.3846545103125543
-0.3846545103125543
-0.3846545103125543
-0.390808982477564
-0.3846545103125543
-0.37850003814754446
-0.37850003814754446
-0.3723455659825625
-0.37850003814754446
-0.37850003814754446
-0.3723455659825625
-0.36619109381755277
-0.36619109381755277
-0.36619109381755277
-0.35388214948756086
-0.35388214948756086
-0.360036621652543
-0.360036621652543
-0.35388214948756086
-0.36619109381755277
-0.360036621652543
-0.34772767732255133
-0.3292642608275498
-0.32310978866254003
-0.31695531649755804
-0.30464637216753854
-0.3108008443325483
-0.2984919000025288
-0.2984919000025288
-0.29233742783754685
-0.2984919000025288
-0.30464637216753854
-0.28618295567253704
-0.29233742783754685
-0.2984919000025288
-0.30464637216753854
-0.30464637216753854
-0.31695531649755804
-0.3292642608275498
-0.3415732051575415
-0.34772767732255133
-0.3415732051575415
-0.360036621652543
-0.3723455659825625
-0.3846545103125543
-0.396963454642546
-0.396963454642546
-0.396963454642546
-0.396963454642546
-0.40927239897256545
-0.40311792680755576
-0.40311792680755576
-0.40311792680755576
-0.40311792680755576
-0.40311792680755576
-0.396963454642546
-0.40927239897256545
-0.40311792680755576
-0.40927239897256545
-0.4154268711375475
-0.40927239897256545
-0.4154268711375475
-0.42158134330255725
-0.42158134330255725
-0.4154268711375475
-0.4154268711375475
-0.4154268711375475
-0.4154268711375475
-0.4154268711375475
-0.40927239897256545
-0.42158134330255725
-0.42158134330255725
-0.42158134330255725
-0.42158134330255725
-0.42158134330255725
-0.433890287632549
-0.42158134330255725
-0.427735815467567
-0.4154268711375475
-0.40927239897256545
-0.40927239897256545
-0.40311792680755576
-0.40311792680755576
-0.40927239897256545
-0.40927239897256545
-0.40311792680755576
-0.4154268711375475
-0.40927239897256545
-0.40927239897256545
-0.4154268711375475
-0.427735815467567
-0.40927239897256545
-0.40311792680755576
-0.396963454642546
-0.40311792680755576
-0.40927239897256545
-0.4154268711375475
-0.4154268711375475
-0.427735815467567
-0.4400447597975588
-0.42158134330255725
-0.42158134330255725
-0.427735815467567
-0.427735815467567
-0.427735815467567
-0.427735815467567
-0.433890287632549
-0.42158134330255725
-0.390808982477564
-0.390808982477564
-0.396963454642546
-0.40927239897256545
-0.40927239897256545
-0.396963454642546
-0.40927239897256545
-0.40311792680755576
-0.3846545103125543
-0.390808982477564
-0.3723455659825625
-0.36619109381755277
-0.360036621652543
-0.35388214948756086
-0.3415732051575415
-0.3415732051575415
-0.3415732051575415
-0.33541873299255964
-0.3415732051575415
-0.3292642608275498
-0.3292642608275498
-0.3292642608275498
-0.3292642608275498
-0.33541873299255964
-0.33541873299255964
-0.3292642608275498
-0.32310978866254003
-0.30464637216753854
-0.2984919000025288
-0.28618295567253704
-0.2738740113425453
-0.2800284835075273
-0.2800284835075273
-0.2800284835075273
-0.2800284835075273
-0.2738740113425453
-0.26771953917753555
-0.26156506701252585
-0.2554105948475438
-0.24925612268253405
-0.2431016505175243
-0.23079270618753256
-0.21232928969253104
-0.21232928969253104
-0.21232928969253104
-0.2184837618575408
-0.2184837618575408
-0.23079270618753256
-0.2246382340225228
-0.23079270618753256
-0.2369471783525424
-0.23079270618753256
-0.23079270618753256
-0.2246382340225228
-0.21232928969253104
-0.2061748175275213
-0.2184837618575408
-0.2184837618575408
-0.2246382340225228
-0.2061748175275213
-0.1938658731975296
-0.2000203453625393
-0.2061748175275213
-0.2000203453625393
-0.2061748175275213
-0.2000203453625393
-0.2061748175275213
-0.21232928969253104
-0.2184837618575408
-0.23079270618753256
-0.2431016505175243
-0.2554105948475438
-0.26156506701252585
-0.2554105948475438
-0.26156506701252585
-0.26156506701252585
-0.26156506701252585
-0.2554105948475438
-0.24925612268253405
-0.2431016505175243
-0.2431016505175243
-0.2554105948475438
-0.24925612268253405
-0.2554105948475438
-0.2738740113425453
-0.28618295567253704
-0.2800284835075273
-0.2800284835075273
-0.28618295567253704
-0.28618295567253704
-0.2738740113425453
-0.2554105948475438
-0.21232928969253104
-0.18771140103251985
-0.16309351237253633
-0.12001220721752358
-0.06462195773251911
-0.04000406907250786
-0.06462195773251911
-0.15078456804251686
-0.2800284835075273
-0.396963454642546
-0.433890287632549
-0.4400447597975588
-0.433890287632549
-0.3723455659825625
-0.33541873299255964
-0.30464637216753854
-0.28618295567253704
-0.28618295567253704
-0.30464637216753854
-0.29233742783754685
-0.29233742783754685
-0.28618295567253704
-0.29233742783754685
-0.29233742783754685
-0.29233742783754685
-0.28618295567253704
-0.2800284835075273
-0.2800284835075273
-0.26771953917753555
-0.24925612268253405
-0.2369471783525424
-0.2184837618575408
-0.1692479845375183
-0.1384756237125251
-0.13232115154751534
-0.11385773505251384
-0.11385773505251384
-0.11385773505251384
-0.1261666793825056
-0.13232115154751534
-0.14463009587750708
-0.14463009587750708
-0.1384756237125251
-0.15078456804251686
-0.14463009587750708
-0.14463009587750708
-0.1384756237125251
-0.14463009587750708
-0.15078456804251686
-0.14463009587750708
-0.15078456804251686
-0.18155692886753785
-0.18155692886753785
-0.16309351237253633
-0.14463009587750708
-0.1384756237125251
-0.15078456804251686
-0.16309351237253633
-0.17540245670252808
-0.1938658731975296
-0.21232928969253104
-0.2184837618575408
-0.23079270618753256
-0.2369471783525424
-0.2554105948475438
-0.26771953917753555
-0.2738740113425453
-0.2800284835075273
-0.29233742783754685
-0.29233742783754685
-0.29233742783754685
-0.2800284835075273
-0.2800284835075273
-0.2800284835075273
-0.26771953917753555
-0.2738740113425453
-0.26156506701252585
-0.2554105948475438
-0.26156506701252585
-0.2554105948475438
-0.2554105948475438
-0.24925612268253405
-0.2554105948475438
-0.2554105948475438
-0.26156506701252585
-0.2554105948475438
-0.26156506701252585
-0.2800284835075273
-0.2800284835075273
-0.2800284835075273
-0.29233742783754685
-0.2984919000025288
-0.2984919000025288
-0.30464637216753854
-0.30464637216753854
-0.2984919000025288
-0.31695531649755804
-0.32310978866254003
-0.3415732051575415
-0.3415732051575415
-0.360036621652543
-0.36619109381755277
-0.35388214948756086
-0.36619109381755277
-0.36619109381755277
-0.360036621652543
-0.36619109381755277
-0.36619109381755277
-0.3723455659825625
-0.3723455659825625
-0.3846545103125543
-0.396963454642546
-0.390808982477564
-0.390808982477564
-0.40927239897256545
-0.4154268711375475
-0.42158134330255725
-0.4154268711375475
-0.42158134330255725
-0.427735815467567
-0.433890287632549
-0.433890287632549
-0.433890287632549
-0.433890287632549
-0.42158134330255725
-0.396963454642546
-0.3846545103125543
-0.3846545103125543
-0.3846545103125543
-0.3846545103125543
-0.3846545103125543
-0.37850003814754446
-0.3723455659825625
-0.37850003814754446
-0.37850003814754446
-0.360036621652543
-0.36619109381755277
-0.37850003814754446
-0.40311792680755576
-0.40927239897256545
-0.40311792680755576
-0.396963454642546
-0.396963454642546
-0.390808982477564
-0.37850003814754446
-0.3723455659825625
-0.3723455659825625
-0.36619109381755277
-0.360036621652543
-0.360036621652543
-0.360036621652543
-0.34772767732255133
-0.35388214948756086
-0.3415732051575415
-0.3415732051575415
-0.3415732051575415
-0.33541873299255964
-0.3292642608275498
-0.33541873299255964
-0.33541873299255964
-0.3415732051575415
-0.34772767732255133
-0.34772767732255133
-0.35388214948756086
-0.360036621652543
-0.35388214948756086
-0.35388214948756086
-0.34772767732255133
-0.3415732051575415
-0.3415732051575415
-0.33541873299255964
-0.3415732051575415
-0.3415732051575415
-0.33541873299255964
-0.32310978866254003
-0.31695531649755804
-0.31695531649755804
-0.31695531649755804
-0.3108008443325483
-0.31695531649755804
-0.30464637216753854
-0.30464637216753854
-0.30464637216753854
-0.3108008443325483
-0.3108008443325483
-0.31695531649755804
-0.31695531649755804
-0.31695531649755804
-0.3108008443325483
-0.31695531649755804
-0.3108008443325483
-0.3108008443325483
-0.31695531649755804
-0.31695531649755804
-0.3108008443325483
-0.3108008443325483
-0.31695531649755804
-0.32310978866254003
-0.3108008443325483
-0.2984919000025288
-0.30464637216753854
-0.2984919000025288
-0.30464637216753854
-0.3108008443325483
-0.30464637216753854
-0.2984919000025288
-0.28618295567253704
-0.2738740113425453
-0.26156506701252585
-0.23079270618753256
-0.1938658731975296
-0.16309351237253633
-0.16309351237253633
-0.17540245670252808
-0.17540245670252808
-0.16309351237253633
-0.1384756237125251
-0.15693904020752658
-0.1384756237125251
-0.07693090206251085
-0.033849596907498114
-0.033849596907498114
-0.04000406907250786
-0.04615854123751762
-0.02769512474251612
-0.01538618041249662
-0.003077236082504875
-0.003077236082504875
-0.009231708247514623
0.033849596907498114
0.05846748556750937
0.033849596907498114
-0.003077236082504875
-0.033849596907498114
-0.0707764298975011
-0.06462195773251911
-0.06462195773251911
-0.08923984639250257
-0.08923984639250257
-0.09539431855751236
-0.08923984639250257
-0.0707764298975011
-0.04615854123751762
-0.003077236082504875
0.02154065257750637
0.04615854123751762
0.08308537422752059
0.13232115154751534
0.12001220721752358
0.04000406907250786
-0.09539431855751236
-0.2369471783525424
-0.2984919000025288
-0.2984919000025288
-0.2554105948475438
-0.2061748175275213
-0.1938658731975296
-0.15693904020752658
-0.13232115154751534
-0.1015487907225221
-0.08923984639250257
-0.10770326288750408
-0.12001220721752358
-0.10770326288750408
-0.11385773505251384
-0.1261666793825056
-0.12001220721752358
-0.12001220721752358
-0.10770326288750408
-0.1015487907225221
-0.1015487907225221
-0.10770326288750408
-0.11385773505251384
-0.11385773505251384
-0.10770326288750408
-0.11385773505251384
-0.12001220721752358
-0.1261666793825056
-0.11385773505251384
-0.1015487907225221
-0.09539431855751236
-0.09539431855751236
-0.09539431855751236
-0.09539431855751236
-0.08308537422752059
-0.08923984639250257
-0.07693090206251085
-0.08308537422752059
-0.08308537422752059
-0.09539431855751236
-0.1015487907225221
-0.1015487907225221
-0.1015487907225221
-0.10770326288750408
-0.11385773505251384
-0.12001220721752358
-0.1384756237125251
-0.13232115154751534
-0.1261666793825056
-0.13232115154751534
-0.13232115154751534
-0.12001220721752358
-0.11385773505251384
-0.11385773505251384
-0.09539431855751236
-0.07693090206251085
-0.0707764298975011
-0.06462195773251911
-0.05846748556750937
-0.05846748556750937
-0.05231301340249961
-0.05231301340249961
-0.05846748556750937
-0.05231301340249961
-0.05231301340249961
-0.04000406907250786
-0.04615854123751762
-0.05231301340249961
-0.05846748556750937
-0.0707764298975011
-0.06462195773251911
-0.07693090206251085
-0.10770326288750408
-0.10770326288750408
-0.11385773505251384
-0.12001220721752358
-0.13232115154751534
-0.15078456804251686
-0.17540245670252808
-0.17540245670252808
-0.1692479845375183
-0.2000203453625393
-0.2431016505175243
-0.2738740113425453
-0.28618295567253704
-0.30464637216753854
-0.30464637216753854
-0.3292642608275498
-0.360036621652543
-0.390808982477564
-0.4154268711375475
-0.45850817629256013
-0.4892805371175811
-0.5200528979425745
-0.5138984257775646
-0.5077439536125827
-0.4892805371175811
-0.49543500928256323
-0.5138984257775646
-0.5262073701075842
-0.5323618422725662
-0.5446707866025856
-0.5569797309325777
-0.575443147427579
-0.5877520917575707
-0.575443147427579
-0.5815976195925888
-0.5692886752625692
-0.5939065639225805
-0.6000610360875902
-0.6062155082525723
-0.6246789247476012
-0.6308333969125834
-0.6431423412426027
-0.6677602299025862
-0.6923781185625978
-0.7293049515526008
-0.7416138958825924
-0.7416138958825924
-0.7539228402126119
-0.7477683680476023
-0.7539228402126119
-0.7477683680476023
-0.7416138958825924
-0.7477683680476023
-0.7416138958825924
-0.7477683680476023
-0.7477683680476023
-0.7477683680476023
-0.7231504793875909
-0.7169960072226089
-0.7169960072226089
-0.7108415350575992
-0.7108415350575992
-0.7108415350575992
-0.7293049515526008
-0.7293049515526008
-0.7108415350575992
-0.7046870628925892
-0.6985325907276074
-0.6985325907276074
-0.6800691742326057
-0.6800691742326057
-0.6739147020675963
-0.6739147020675963
-0.6862236463975879
-0.6923781185625978
-0.6923781185625978
-0.6862236463975879
-0.6862236463975879
-0.6862236463975879
-0.6923781185625978
-0.6862236463975879
-0.6862236463975879
-0.6862236463975879
-0.6739147020675963
-0.6677602299025862
-0.6677602299025862
-0.6554512855725947
-0.6554512855725947
-0.6554512855725947
-0.6492968134075847
-0.6308333969125834
-0.6246789247476012
-0.6185244525825918
-0.6185244525825918
-0.6062155082525723
-0.5939065639225805
-0.5877520917575707
-0.5815976195925888
-0.5692886752625692
-0.5692886752625692
-0.575443147427579
-0.5692886752625692
-0.5631342030975872
-0.5569797309325777
-0.5631342030975872
-0.5446707866025856
-0.5508252587675677
-0.538516314437576
-0.5323618422725662
-0.5200528979425745
-0.5077439536125827
-0.5015894814475731
-0.49543500928256323
-0.5077439536125827
-0.5200528979425745
-0.5077439536125827
-0.5077439536125827
-0.5015894814475731
-0.5138984257775646
-0.5262073701075842
-0.5200528979425745
-0.5077439536125827
-0.5138984257775646
-0.5138984257775646
-0.5015894814475731
-0.5015894814475731
-0.5015894814475731
-0.4831260649525715
-0.47697159278756174
-0.47697159278756174
-0.4831260649525715
-0.4892805371175811
-0.4831260649525715
-0.47697159278756174
-0.46466264845757
-0.4708171206225797
-0.46466264845757
-0.4708171206225797
-0.46466264845757
-0.45850817629256013
-0.4523537041275505
-0.427735815467567
-0.37850003814754446
-0.3415732051575415
-0.3108008443325483
-0.2738740113425453
-0.23079270618753256
-0.2246382340225228
-0.2800284835075273
-0.390808982477564
-0.5200528979425745
-0.6000610360875902
-0.6000610360875902
-0.5815976195925888
-0.5569797309325777
-0.5262073701075842
-0.5015894814475731
-0.47697159278756174
-0.4523537041275505
-0.4400447597975588
-0.42158134330255725
-0.427735815467567
-0.4154268711375475
-0.4154268711375475
-0.42158134330255725
-0.4154268711375475
-0.4154268711375475
-0.427735815467567
-0.42158134330255725
-0.40927239897256545
-0.40927239897256545
-0.40927239897256545
-0.40311792680755576
-0.396963454642546
-0.390808982477564
-0.396963454642546
-0.396963454642546
-0.37850003814754446
-0.37850003814754446
-0.3723455659825625
-0.36619109381755277
-0.36619109381755277
-0.36619109381755277
-0.3846545103125543
-0.3723455659825625
-0.360036621652543
-0.35388214948756086
-0.3415732051575415
-0.33541873299255964
-0.33541873299255964
-0.3292642608275498
-0.3292642608275498
-0.32310978866254003
-0.31695531649755804
-0.30464637216753854
-0.3108008443325483
-0.3108008443325483
-0.3108008443325483
-0.2984919000025288
-0.2984919000025288
-0.29233742783754685
-0.28618295567253704
-0.2738740113425453
-0.26771953917753555
-0.26771953917753555
-0.2554105948475438
-0.2554105948475438
-0.24925612268253405
-0.2369471783525424
-0.2246382340225228
-0.2184837618575408
-0.2184837618575408
-0.21232928969253104
-0.2000203453625393
-0.17540245670252808
-0.15693904020752658
-0.15078456804251686
-0.15078456804251686
-0.15078456804251686
-0.15693904020752658
-0.17540245670252808
-0.18155692886753785
-0.2061748175275213
-0.23079270618753256
-0.2246382340225228
-0.2369471783525424
-0.24925612268253405
-0.26156506701252585
-0.26156506701252585
-0.2800284835075273
-0.29233742783754685
-0.31695531649755804
-0.31695531649755804
-0.32310978866254003
-0.3292642608275498
-0.32310978866254003
-0.32310978866254003
-0.31695531649755804
-0.3108008443325483
-0.3108008443325483
-0.3108008443325483
-0.30464637216753854
-0.30464637216753854
-0.30464637216753854
-0.30464637216753854
-0.2984919000025288
-0.2984919000025288
-0.29233742783754685
-0.28618295567253704
-0.2738740113425453
-0.26771953917753555
-0.2800284835075273
-0.29233742783754685
-0.2800284835075273
-0.2738740113425453
-0.28618295567253704
-0.2800284835075273
-0.2800284835075273
-0.28618295567253704
-0.28618295567253704
-0.28618295567253704
-0.28618295567253704
-0.2738740113425453
-0.2800284835075273
-0.28618295567253704
-0.29233742783754685
-0.29233742783754685
-0.28618295567253704
-0.2800284835075273
-0.2800284835075273
-0.28618295567253704
-0.28618295567253704
-0.29233742783754685
-0.30464637216753854
-0.31695531649755804
-0.31695531649755804
-0.31695531649755804
-0.31695531649755804
-0.3108008443325483
-0.32310978866254003
-0.31695531649755804
-0.31695531649755804
-0.31695531649755804
-0.31695531649755804
-0.32310978866254003
-0.32310978866254003
-0.33541873299255964
-0.3292642608275498
-0.3292642608275498
-0.3292642608275498
-0.33541873299255964
-0.3415732051575415
-0.3415732051575415
-0.3415732051575415
-0.33541873299255964
-0.3415732051575415
-0.33541873299255964
-0.3415732051575415
-0.34772767732255133
-0.34772767732255133
-0.34772767732255133
-0.33541873299255964
-0.35388214948756086
-0.3723455659825625
-0.36619109381755277
-0.360036621652543
-0.360036621652543
-0.360036621652543
-0.34772767732255133
-0.33541873299255964
-0.3415732051575415
-0.3415732051575415
-0.3292642608275498
-0.3292642608275498
-0.3292642608275498
-0.3292642608275498
-0.33541873299255964
-0.32310978866254003
-0.32310978866254003
-0.32310978866254003
-0.33541873299255964
-0.33541873299255964
-0.33541873299255964
-0.3292642608275498
-0.3292642608275498
-0.31695531649755804
-0.31695531649755804
-0.3108008443325483
-0.31695531649755804
-0.31695531649755804
-0.31695531649755804
-0.31695531649755804
-0.3108008443325483
-0.31695531649755804
-0.31695531649755804
-0.32310978866254003
-0.3108008443325483
-0.2984919000025288
-0.2800284835075273
-0.26771953917753555
-0.26771953917753555
-0.2738740113425453
-0.2738740113425453
-0.2800284835075273
-0.28618295567253704
-0.29233742783754685
-0.29233742783754685
-0.2984919000025288
-0.2984919000025288
-0.30464637216753854
-0.30464637216753854
-0.30464637216753854
-0.29233742783754685
-0.30464637216753854
-0.30464637216753854
-0.30464637216753854
-0.30464637216753854
-0.30464637216753854
-0.30464637216753854
-0.30464637216753854
-0.30464637216753854
-0.29233742783754685
-0.2984919000025288
-0.30464637216753854
-0.28618295567253704
-0.2800284835075273
-0.28618295567253704
-0.28618295567253704
-0.2800284835075273
-0.26771953917753555
-0.23079270618753256
-0.1938658731975296
-0.1692479845375183
-0.12001220721752358
-0.05846748556750937
-0.02769512474251612
-0.0707764298975011
-0.1692479845375183
-0.3108008443325483
-0.427735815467567
-0.4523537041275505
-0.4523537041275505
-0.433890287632549
-0.40311792680755576
-0.36619109381755277
-0.31695531649755804
-0.28618295567253704
-0.2738740113425453
-0.2554105948475438
-0.24925612268253405
-0.24925612268253405
-0.24925612268253405
-0.2431016505175243
-0.2369471783525424
-0.2369471783525424
-0.23079270618753256
-0.2184837618575408
-0.21232928969253104
-0.2061748175275213
-0.2000203453625393
-0.1938658731975296
-0.18771140103251985
-0.18771140103251985
-0.18155692886753785
-0.18771140103251985
-0.18771140103251985
-0.18771140103251985
-0.18771140103251985
-0.1938658731975296
-0.18771140103251985
-0.2000203453625393
-0.2061748175275213
-0.1938658731975296
-0.2000203453625393
-0.2000203453625393
-0.18771140103251985
-0.18771140103251985
-0.18771140103251985
-0.18155692886753785
-0.17540245670252808
-0.18155692886753785
-0.17540245670252808
-0.17540245670252808
-0.15693904020752658
-0.15078456804251686
-0.14463009587750708
-0.14463009587750708
-0.14463009587750708
-0.13232115154751534
-0.12001220721752358
-0.13232115154751534
-0.13232115154751534
-0.10770326288750408
-0.1015487907225221
-0.09539431855751236
-0.08923984639250257
-0.08923984639250257
-0.08923984639250257
-0.08308537422752059
-0.08308537422752059
-0.07693090206251085
-0.06462195773251911
-0.06462195773251911
-0.06462195773251911
-0.06462195773251911
-0.0707764298975011
-0.08308537422752059
-0.08923984639250257
-0.10770326288750408
-0.12001220721752358
-0.1261666793825056
-0.1384756237125251
-0.14463009587750708
-0.16309351237253633
-0.17540245670252808
-0.18155692886753785
-0.1938658731975296
-0.2061748175275213
-0.21232928969253104
-0.21232928969253104
-0.2184837618575408
-0.21232928969253104
-0.2184837618575408
-0.2184837618575408
-0.2184837618575408
-0.2246382340225228
-0.2246382340225228
-0.23079270618753256
-0.2369471783525424
-0.23079270618753256
-0.2369471783525424
-0.2369471783525424
-0.23079270618753256
-0.2369471783525424
-0.23079270618753256
-0.23079270618753256
-0.2246382340225228
-0.2369471783525424
-0.23079270618753256
-0.2369471783525424
-0.2369471783525424
-0.2369471783525424
-0.2369471783525424
-0.2369471783525424
-0.2431016505175243
-0.2554105948475438
-0.24925612268253405
-0.24925612268253405
-0.24925612268253405
-0.24925612268253405
-0.2554105948475438
-0.26156506701252585
-0.2738740113425453
-0.26156506701252585
-0.26771953917753555
-0.26156506701252585
-0.26156506701252585
-0.26156506701252585
-0.2738740113425453
-0.2738740113425453
-0.26771953917753555
-0.26156506701252585
-0.26156506701252585
-0.24925612268253405
-0.2369471783525424
-0.2431016505175243
-0.2431016505175243
-0.24925612268253405
-0.24925612268253405
-0.2369471783525424
-0.23079270618753256
-0.21232928969253104
-0.1938658731975296
-0.18155692886753785
-0.17540245670252808
-0.18155692886753785
-0.18771140103251985
-0.2000203453625393
-0.1938658731975296
-0.1938658731975296
-0.18155692886753785
-0.1692479845375183
-0.17540245670252808
-0.1692479845375183
-0.18155692886753785
-0.1938658731975296
-0.21232928969253104
-0.2184837618575408
-0.2061748175275213
-0.2000203453625393
-0.21232928969253104
-0.2061748175275213
-0.1938658731975296
-0.1938658731975296
-0.21232928969253104
-0.2061748175275213
-0.1938658731975296
-0.18771140103251985
-0.1938658731975296
-0.18771140103251985
-0.1938658731975296
-0.2000203453625393
-0.21232928969253104
-0.17540245670252808
-0.17540245670252808
-0.15078456804251686
-0.14463009587750708
-0.13232115154751534
-0.14463009587750708
-0.1384756237125251
-0.1692479845375183
-0.1692479845375183
-0.14463009587750708
-0.13232115154751534
-0.15078456804251686
-0.17540245670252808
-0.18155692886753785
-0.18771140103251985
-0.1938658731975296
-0.18771140103251985
-0.18771140103251985
-0.18155692886753785
-0.18155692886753785
-0.17540245670252808
-0.18155692886753785
-0.2000203453625393
-0.2184837618575408
-0.24925612268253405
-0.29233742783754685
-0.30464637216753854
-0.33541873299255964
-0.36619109381755277
-0.390808982477564
-0.40927239897256545
-0.433890287632549
-0.427735815467567
-0.44619923196256844
-0.433890287632549
-0.40927239897256545
-0.390808982477564
-0.3723455659825625
-0.36619109381755277
-0.3846545103125543
-0.396963454642546
-0.396963454642546
-0.40927239897256545
-0.4154268711375475
-0.4154268711375475
-0.4154268711375475
-0.40927239897256545
-0.4154268711375475
-0.4154268711375475
-0.42158134330255725
-0.42158134330255725
-0.4154268711375475
-0.42158134330255725
-0.42158134330255725
-0.4154268711375475
-0.42158134330255725
-0.4154268711375475
-0.4154268711375475
-0.40927239897256545
-0.40311792680755576
-0.40311792680755576
-0.396963454642546
-0.40927239897256545
-0.4154268711375475
-0.433890287632549
-0.42158134330255725
-0.433890287632549
-0.4400447597975588
-0.433890287632549
-0.40311792680755576
-0.36619109381755277
-0.33541873299255964
-0.29233742783754685
-0.24925612268253405
-0.2431016505175243
-0.32310978866254003
-0.44619923196256844
-0.5877520917575707
-0.6431423412426027
-0.6431423412426027
-0.6123699804175823
-0.5815976195925888
-0.5631342030975872
-0.5569797309325777
-0.538516314437576
-0.5200528979425745
-0.5077439536125827
-0.5077439536125827
-0.47697159278756174
-0.47697159278756174
-0.4708171206225797
-0.46466264845757
-0.4523537041275505
-0.45850817629256013
-0.44619923196256844
-0.433890287632549
-0.42158134330255725
-0.42158134330255725
-0.42158134330255725
-0.40927239897256545
-0.396963454642546
-0.390808982477564
-0.396963454642546
-0.390808982477564
-0.3723455659825625
-0.3723455659825625
-0.360036621652543
-0.35388214948756086
-0.34772767732255133
-0.34772767732255133
-0.34772767732255133
-0.34772767732255133
-0.35388214948756086
-0.34772767732255133
-0.34772767732255133
-0.33541873299255964
-0.33541873299255964
-0.33541873299255964
-0.33541873299255964
-0.33541873299255964
-0.3292642608275498
-0.32310978866254003
-0.32310978866254003
-0.32310978866254003
-0.30464637216753854
-0.3108008443325483
-0.32310978866254003
-0.33541873299255964
-0.3292642608275498
-0.3415732051575415
-0.34772767732255133
-0.35388214948756086
-0.35388214948756086
-0.35388214948756086
-0.34772767732255133
-0.33541873299255964
-0.32310978866254003
-0.3108008443325483
-0.3108008443325483
-0.29233742783754685
-0.2800284835075273
-0.28618295567253704
-0.26771953917753555
-0.2800284835075273
-0.2738740113425453
-0.26771953917753555
-0.26771953917753555
-0.26156506701252585
-0.2800284835075273
-0.2984919000025288
-0.30464637216753854
-0.32310978866254003
-0.33541873299255964
-0.3415732051575415
-0.35388214948756086
-0.34772767732255133
-0.35388214948756086
-0.360036621652543
-0.360036621652543
-0.360036621652543
-0.36619109381755277
-0.3723455659825625
-0.3723455659825625
-0.37850003814754446
-0.360036621652543
-0.360036621652543
-0.360036621652543
-0.35388214948756086
-0.35388214948756086
-0.36619109381755277
-0.35388214948756086
-0.3415732051575415
-0.33541873299255964
-0.33541873299255964
-0.32310978866254003
-0.3108008443325483
-0.30464637216753854
-0.3108008443325483
-0.3108008443325483
-0.3108008443325483
-0.31695531649755804
-0.32310978866254003
-0.32310978866254003
-0.3292642608275498
-0.31695531649755804
-0.3108008443325483
-0.3292642608275498
-0.3108008443325483
-0.30464637216753854
-0.3108008443325483
-0.3108008443325483
-0.29233742783754685
-0.28618295567253704
-0.2738740113425453
-0.26771953917753555
-0.2738740113425453
-0.2738740113425453
-0.2800284835075273
-0.2738740113425453
-0.2738740113425453
-0.2800284835075273
-0.2800284835075273
-0.2800284835075273
-0.2800284835075273
-0.2738740113425453
-0.26771953917753555
-0.2800284835075273
-0.2800284835075273
-0.26771953917753555
-0.2738740113425453
-0.2800284835075273
-0.2738740113425453
-0.2800284835075273
-0.28618295567253704
-0.2800284835075273
-0.26771953917753555
-0.26771953917753555
-0.2738740113425453
-0.2738740113425453
-0.2800284835075273
-0.26771953917753555
-0.2800284835075273
-0.2738740113425453
-0.29233742783754685
-0.28618295567253704
-0.29233742783754685
-0.28618295567253704
-0.2984919000025288
-0.29233742783754685
-0.29233742783754685
-0.29233742783754685
-0.29233742783754685
-0.28618295567253704
-0.2800284835075273
-0.2800284835075273
-0.2738740113425453
-0.28618295567253704
-0.28618295567253704
-0.29233742783754685
-0.2984919000025288
-0.29233742783754685
-0.28618295567253704
-0.28618295567253704
-0.2800284835075273
-0.28618295567253704
-0.29233742783754685
-0.31695531649755804
-0.33541873299255964
-0.3415732051575415
-0.33541873299255964
-0.33541873299255964
-0.32310978866254003
-0.3108008443325483
-0.30464637216753854
-0.29233742783754685
-0.2800284835075273
-0.26156506701252585
-0.24925612268253405
-0.2431016505175243
-0.24925612268253405
-0.24925612268253405
-0.2431016505175243
-0.2431016505175243
-0.24925612268253405
-0.24925612268253405
-0.24925612268253405
-0.2554105948475438
-0.2554105948475438
-0.24925612268253405
-0.2554105948475438
-0.2431016505175243
-0.2369471783525424
-0.2061748175275213
-0.16309351237253633
-0.1384756237125251
-0.1015487907225221
-0.09539431855751236
-0.1261666793825056
-0.1384756237125251
-0.1261666793825056
-0.11385773505251384
-0.1015487907225221
-0.07693090206251085
-0.05231301340249961
-0.04000406907250786
-0.04000406907250786
-0.033849596907498114
-0.033849596907498114
-0.02769512474251612
-0.02769512474251612
-0.02769512474251612
-0.04000406907250786
-0.04000406907250786
-0.04000406907250786
-0.04615854123751762
-0.04000406907250786
-0.033849596907498114
-0.04000406907250786
-0.04000406907250786
-0.04615854123751762
-0.02154065257750637
0.003077236082504875
0.04000406907250786
0.06462195773251911
0.1015487907225221
0.17540245670252808
0.21232928969253104
0.18155692886753785
0.1015487907225221
-0.05231301340249961
-0.18771140103251985
-0.2369471783525424
-0.26156506701252585
-0.2369471783525424
-0.2000203453625393
-0.15693904020752658
-0.11385773505251384
-0.12001220721752358
-0.14463009587750708
-0.13232115154751534
-0.14463009587750708
-0.15078456804251686
-0.15078456804251686
-0.15078456804251686
-0.16309351237253633
-0.14463009587750708
-0.15693904020752658
-0.16309351237253633
-0.14463009587750708
-0.15078456804251686
-0.15693904020752658
-0.15078456804251686
-0.15078456804251686
-0.15693904020752658
-0.17540245670252808
-0.1938658731975296
-0.2000203453625393
-0.2061748175275213
-0.2061748175275213
-0.2184837618575408
-0.23079270618753256
-0.2431016505175243
-0.24925612268253405
-0.24925612268253405
-0.2369471783525424
-0.23079270618753256
-0.2369471783525424
-0.23079270618753256
-0.2246382340225228
-0.2246382340225228
-0.2061748175275213
-0.2000203453625393
-0.1938658731975296
-0.2000203453625393
-0.1938658731975296
-0.1938658731975296
-0.18155692886753785
-0.15078456804251686
-0.14463009587750708
-0.14463009587750708
-0.1384756237125251
-0.1384756237125251
-0.15693904020752658
-0.14463009587750708
-0.15078456804251686
-0.15078456804251686
-0.14463009587750708
-0.1384756237125251
-0.11385773505251384
-0.08923984639250257
-0.06462195773251911
-0.07693090206251085
-0.08923984639250257
-0.1015487907225221
-0.1261666793825056
-0.13232115154751534
-0.1384756237125251
-0.15693904020752658
-0.15078456804251686
-0.15078456804251686
-0.16309351237253633
-0.1692479845375183
-0.1938658731975296
-0.1938658731975296
-0.2061748175275213
-0.2246382340225228
-0.2369471783525424
-0.2431016505175243
-0.2431016505175243
-0.23079270618753256
-0.23079270618753256
-0.2431016505175243
-0.2369471783525424
-0.23079270618753256
-0.2246382340225228
-0.2369471783525424
-0.23079270618753256
-0.23079270618753256
-0.2246382340225228
-0.2246382340225228
-0.23079270618753256
-0.2246382340225228
-0.2184837618575408
-0.21232928969253104
-0.2184837618575408
-0.21232928969253104
-0.2184837618575408
-0.21232928969253104
-0.1938658731975296
-0.18771140103251985
-0.14463009587750708
-0.1261666793825056
-0.09539431855751236
-0.08923984639250257
-0.08308537422752059
-0.04000406907250786
-0.01538618041249662
-0.05231301340249961
-0.1261666793825056
-0.15078456804251686
-0.18771140103251985
-0.23079270618753256
-0.2800284835075273
-0.3292642608275498
-0.3846545103125543
-0.4400447597975588
-0.4892805371175811
-0.5200528979425745
-0.5569797309325777
-0.5939065639225805
-0.6123699804175823
-0.6185244525825918
-0.6308333969125834
-0.6308333969125834
-0.6369878690775933
-0.6492968134075847
-0.6554512855725947
-0.6492968134075847
-0.6554512855725947
-0.6554512855725947
-0.6554512855725947
-0.6492968134075847
-0.6492968134075847
-0.6554512855725947
-0.6554512855725947
-0.6492968134075847
-0.6369878690775933
-0.6246789247476012
-0.6308333969125834
-0.6185244525825918
-0.6246789247476012
-0.6185244525825918
-0.6062155082525723
-0.6000610360875902
-0.6062155082525723
-0.6062155082525723
-0.6000610360875902
-0.6000610360875902
-0.5939065639225805
-0.5939065639225805
-0.5877520917575707
-0.5877520917575707
-0.5877520917575707
-0.5877520917575707
-0.5815976195925888
-0.5877520917575707
-0.5877520917575707
-0.575443147427579
-0.575443147427579
-0.5692886752625692
-0.5569797309325777
-0.5569797309325777
-0.5508252587675677
-0.5508252587675677
-0.5569797309325777
-0.5508252587675677
-0.5508252587675677
-0.5508252587675677
-0.538516314437576
-0.5323618422725662
-0.5323618422725662
-0.5323618422725662
-0.5323618422725662
-0.5262073701075842
-0.5262073701075842
-0.538516314437576
-0.538516314437576
-0.5323618422725662
-0.5569797309325777
-0.5815976195925888
-0.575443147427579
-0.5815976195925888
-0.5877520917575707
-0.6000610360875902
-0.6062155082525723
-0.6000610360875902
-0.5877520917575707
-0.5939065639225805
-0.5877520917575707
-0.5815976195925888
-0.5815976195925888
-0.5692886752625692
-0.5569797309325777
-0.5446707866025856
-0.5323618422725662
-0.5262073701075842
-0.5200528979425745
-0.5323618422725662
-0.5262073701075842
-0.5323618422725662
-0.5323618422725662
-0.538516314437576
-0.5446707866025856
-0.538516314437576
-0.5262073701075842
-0.5200528979425745
-0.5015894814475731
-0.5138984257775646
-0.5077439536125827
-0.5138984257775646
-0.5077439536125827
-0.5138984257775646
-0.5015894814475731
-0.49543500928256323
-0.49543500928256323
-0.49543500928256323
-0.4892805371175811
-0.4831260649525715
-0.47697159278756174
-0.4892805371175811
-0.4892805371175811
-0.4892805371175811
-0.47697159278756174
-0.4831260649525715
-0.4831260649525715
-0.44619923196256844
-0.4154268711375475
-0.3723455659825625
-0.3292642608275498
-0.2800284835075273
-0.23079270618753256
-0.2369471783525424
-0.30464637216753854
-0.433890287632549
-0.575443147427579
-0.6492968134075847
-0.6431423412426027
-0.6185244525825918
-0.5939065639225805
-0.5815976195925888
-0.5508252587675677
-0.5323618422725662
-0.5138984257775646
-0.47697159278756174
-0.4708171206225797
-0.4708171206225797
-0.4708171206225797
-0.4708171206225797
-0.46466264845757
-0.4523537041275505
-0.46466264845757
-0.45850817629256013
-0.45850817629256013
-0.45850817629256013
-0.45850817629256013
-0.4523537041275505
-0.46466264845757
-0.4523537041275505
-0.44619923196256844
-0.44619923196256844
-0.44619923196256844
-0.4523537041275505
-0.44619923196256844
-0.4400447597975588
-0.433890287632549
-0.4154268711375475
-0.40927239897256545
-0.40311792680755576
-0.40311792680755576
-0.390808982477564
-0.390808982477564
-0.3846545103125543
-0.37850003814754446
-0.37850003814754446
-0.3723455659825625
-0.36619109381755277
-0.360036621652543
-0.3723455659825625
-0.360036621652543
-0.360036621652543
-0.360036621652543
-0.35388214948756086
-0.35388214948756086
-0.35388214948756086
-0.35388214948756086
-0.34772767732255133
-0.3415732051575415
-0.33541873299255964
-0.3292642608275498
-0.32310978866254003
-0.3108008443325483
-0.30464637216753854
-0.2984919000025288
-0.2984919000025288
-0.29233742783754685
-0.2738740113425453
-0.26771953917753555
-0.2554105948475438
-0.24925612268253405
-0.24925612268253405
-0.2369471783525424
-0.2369471783525424
-0.2184837618575408
-0.2369471783525424
-0.24925612268253405
-0.23079270618753256
-0.23079270618753256
-0.2246382340225228
-0.2246382340225228
-0.2369471783525424
-0.23079270618753256
-0.2369471783525424
-0.2369471783525424
-0.2554105948475438
-0.26156506701252585
-0.2554105948475438
-0.26156506701252585
-0.26156506701252585
-0.26771953917753555
-0.26771953917753555
-0.29233742783754685
-0.2984919000025288
-0.2984919000025288
-0.29233742783754685
-0.2984919000025288
-0.29233742783754685
-0.2984919000025288
-0.2984919000025288
-0.29233742783754685
-0.2738740113425453
-0.2738740113425453
-0.2800284835075273
-0.2738740113425453
-0.2800284835075273
-0.2800284835075273
-0.2984919000025288
-0.30464637216753854
-0.2984919000025288
-0.2984919000025288
-0.2984919000025288
-0.30464637216753854
-0.2984919000025288
-0.30464637216753854
-0.3108008443325483
-0.2984919000025288
-0.2984919000025288
-0.30464637216753854
-0.2984919000025288
-0.3108008443325483
-0.2984919000025288
-0.30464637216753854
-0.29233742783754685
-0.30464637216753854
-0.30464637216753854
-0.3108008443325483
-0.3108008443325483
-0.31695531649755804
-0.31695531649755804
-0.3108008443325483
-0.32310978866254003
-0.33541873299255964
-0.3415732051575415
-0.33541873299255964
-0.31695531649755804
-0.3108008443325483
-0.32310978866254003
-0.33541873299255964
-0.33541873299255964
-0.3292642608275498
-0.32310978866254003
-0.32310978866254003
-0.3292642608275498
-0.31695531649755804
-0.3108008443325483
-0.30464637216753854
-0.2984919000025288
-0.2800284835075273
-0.2738740113425453
-0.26156506701252585
-0.24925612268253405
-0.24925612268253405
-0.2369471783525424
-0.2554105948475438
-0.26771953917753555
-0.26156506701252585
-0.26156506701252585
-0.2554105948475438
-0.2554105948475438
-0.26771953917753555
-0.2738740113425453
-0.2800284835075273
-0.2800284835075273
-0.26156506701252585
-0.2431016505175243
-0.2431016505175243
-0.24925612268253405
-0.24925612268253405
-0.24925612268253405
-0.2554105948475438
-0.2554105948475438
-0.26156506701252585
-0.2738740113425453
-0.29233742783754685
-0.29233742783754685
-0.30464637216753854
-0.2984919000025288
-0.2984919000025288
-0.28618295567253704
-0.29233742783754685
-0.29233742783754685
-0.2738740113425453
-0.26771953917753555
-0.24925612268253405
-0.24925612268253405
-0.2431016505175243
-0.24925612268253405
-0.2431016505175243
-0.26156506701252585
-0.2738740113425453
-0.2738740113425453
-0.2800284835075273
-0.2800284835075273
-0.29233742783754685
-0.32310978866254003
-0.29233742783754685
-0.28618295567253704
-0.2738740113425453
-0.2738740113425453
-0.28618295567253704
-0.2984919000025288
-0.3108008443325483
-0.3415732051575415
-0.35388214948756086
-0.35388214948756086
-0.360036621652543
-0.36619109381755277
-0.3723455659825625
-0.37850003814754446
-0.3846545103125543
-0.37850003814754446
-0.3723455659825625
-0.3723455659825625
-0.37850003814754446
-0.360036621652543
-0.33541873299255964
-0.3108008443325483
-0.2738740113425453
-0.2431016505175243
-0.2061748175275213
-0.16309351237253633
-0.18155692886753785
-0.2554105948475438
-0.3723455659825625
-0.49543500928256323
-0.5569797309325777
-0.5631342030975872
-0.5569797309325777
-0.5323618422725662
-0.4892805371175811
-0.45850817629256013
-0.427735815467567
-0.40927239897256545
-0.390808982477564
-0.3846545103125543
-0.37850003814754446
-0.3846545103125543
-0.37850003814754446
-0.37850003814754446
-0.3846545103125543
-0.3723455659825625
-0.37850003814754446
-0.37850003814754446
-0.37850003814754446
-0.3723455659825625
-0.360036621652543
-0.360036621652543
-0.34772767732255133
-0.34772767732255133
-0.35388214948756086
-0.360036621652543
-0.360036621652543
-0.360036621652543
-0.3723455659825625
-0.3723455659825625
-0.3723455659825625
-0.360036621652543
-0.36619109381755277
-0.360036621652543
-0.33541873299255964
-0.33541873299255964
-0.3415732051575415
-0.33541873299255964
-0.32310978866254003
-0.33541873299255964
-0.3415732051575415
-0.33541873299255964
-0.3415732051575415
-0.3415732051575415
-0.34772767732255133
-0.3415732051575415
-0.3415732051575415
-0.3415732051575415
-0.3415732051575415
-0.33541873299255964
-0.3415732051575415
-0.33541873299255964
-0.3292642608275498
-0.32310978866254003
-0.31695531649755804
-0.31695531649755804
-0.3108008443325483
-0.31695531649755804
-0.3108008443325483
-0.2984919000025288
-0.29233742783754685
-0.29233742783754685
-0.28618295567253704
-0.2800284835075273
-0.26771953917753555
-0.26156506701252585
-0.28618295567253704
-0.2800284835075273
-0.28618295567253704
-0.2800284835075273
-0.29233742783754685
-0.29233742783754685
-0.28618295567253704
-0.29233742783754685
-0.2984919000025288
-0.3108008443325483
-0.31695531649755804
-0.33541873299255964
-0.33541873299255964
-0.3415732051575415
-0.35388214948756086
-0.360036621652543
-0.36619109381755277
-0.36619109381755277
-0.360036621652543
-0.360036621652543
-0.36619109381755277
-0.37850003814754446
-0.36619109381755277
-0.360036621652543
-0.360036621652543
-0.35388214948756086
-0.33541873299255964
-0.3415732051575415
-0.33541873299255964
-0.3292642608275498
-0.3292642608275498
-0.3415732051575415
-0.3292642608275498
-0.3108008443325483
-0.28618295567253704
-0.2369471783525424
-0.21232928969253104
-0.2184837618575408
-0.23079270618753256
-0.2184837618575408
-0.21232928969253104
-0.18771140103251985
-0.15078456804251686
-0.1692479845375183
-0.18771140103251985
-0.18155692886753785
-0.15693904020752658
-0.15693904020752658
-0.1384756237125251
-0.13232115154751534
-0.13232115154751534
-0.12001220721752358
-0.12001220721752358
-0.12001220721752358
-0.12001220721752358
-0.13232115154751534
-0.1384756237125251
-0.14463009587750708
-0.15693904020752658
-0.16309351237253633
-0.15078456804251686
-0.1261666793825056
-0.08923984639250257
-0.0707764298975011
-0.07693090206251085
-0.08308537422752059
-0.08923984639250257
-0.11385773505251384
-0.11385773505251384
-0.11385773505251384
-0.11385773505251384
-0.12001220721752358
-0.1261666793825056
-0.1261666793825056
-0.1261666793825056
-0.12001220721752358
-0.13232115154751534
-0.13232115154751534
-0.15078456804251686
-0.15693904020752658
-0.15078456804251686
-0.15078456804251686
-0.15693904020752658
-0.15693904020752658
-0.16309351237253633
-0.16309351237253633
-0.16309351237253633
-0.16309351237253633
-0.1692479845375183
-0.15693904020752658
-0.15693904020752658
-0.15693904020752658
-0.15693904020752658
-0.15693904020752658
-0.15078456804251686
-0.1384756237125251
-0.15078456804251686
-0.15078456804251686
-0.15693904020752658
-0.1692479845375183
-0.17540245670252808
-0.17540245670252808
-0.18155692886753785
-0.18155692886753785
-0.18155692886753785
-0.1938658731975296
-0.2061748175275213
-0.2184837618575408
-0.2246382340225228
-0.23079270618753256
-0.2369471783525424
-0.2431016505175243
-0.24925612268253405
-0.24925612268253405
-0.2369471783525424
-0.2431016505175243
-0.24925612268253405
-0.2431016505175243
-0.23079270618753256
-0.2246382340225228
-0.23079270618753256
-0.2246382340225228
-0.2246382340225228
-0.2246382340225228
-0.23079270618753256
-0.2369471783525424
-0.24925612268253405
-0.24925612268253405
-0.2184837618575408
-0.2246382340225228
-0.2184837618575408
-0.2184837618575408
-0.2246382340225228
-0.23079270618753256
-0.2431016505175243
-0.2554105948475438
-0.23079270618753256
-0.2246382340225228
-0.2061748175275213
-0.2061748175275213
-0.2061748175275213
-0.21232928969253104
-0.2184837618575408
-0.2184837618575408
-0.2431016505175243
-0.24925612268253405
-0.2369471783525424
-0.24925612268253405
-0.2246382340225228
-0.2246382340225228
-0.23079270618753256
-0.2554105948475438
-0.2431016505175243
-0.2369471783525424
-0.2369471783525424
-0.2369471783525424
-0.24925612268253405
-0.24925612268253405
-0.2554105948475438
-0.24925612268253405
-0.24925612268253405
-0.2554105948475438
-0.26156506701252585
-0.2554105948475438
-0.26771953917753555
-0.26771953917753555
-0.26771953917753555
-0.28618295567253704
-0.29233742783754685
-0.28618295567253704
-0.26156506701252585
-0.2369471783525424
-0.21232928969253104
-0.18771140103251985
-0.1384756237125251
-0.08308537422752059
-0.06462195773251911
-0.12001220721752358
-0.2369471783525424
-0.37850003814754446
-0.45850817629256013
-0.47697159278756174
-0.47697159278756174
-0.44619923196256844
-0.4154268711375475
-0.3723455659825625
-0.3415732051575415
-0.32310978866254003
-0.3108008443325483
-0.2984919000025288
-0.2984919000025288
-0.28618295567253704
-0.28618295567253704
-0.28618295567253704
-0.2800284835075273
-0.2738740113425453
-0.26156506701252585
-0.2554105948475438
-0.2431016505175243
-0.23079270618753256
-0.2246382340225228
-0.2184837618575408
-0.2184837618575408
-0.21232928969253104
-0.2061748175275213
-0.2000203453625393
-0.18771140103251985
-0.17540245670252808
-0.17540245670252808
-0.17540245670252808
-0.1692479845375183
-0.16309351237253633
-0.15078456804251686
-0.15078456804251686
-0.15078456804251686
-0.14463009587750708
-0.14463009587750708
-0.1384756237125251
-0.15078456804251686
-0.1692479845375183
-0.17540245670252808
-0.18155692886753785
-0.17540245670252808
-0.16309351237253633
-0.15693904020752658
-0.14463009587750708
-0.13232115154751534
-0.1384756237125251
-0.13232115154751534
-0.15078456804251686
-0.16309351237253633
-0.1692479845375183
-0.16309351237253633
-0.17540245670252808
-0.18155692886753785
-0.17540245670252808
-0.1692479845375183
-0.16309351237253633
-0.14463009587750708
-0.13232115154751534
-0.1384756237125251
-0.14463009587750708
-0.13232115154751534
-0.1261666793825056
-0.1261666793825056
-0.11385773505251384
-0.12001220721752358
-0.13232115154751534
-0.13232115154751534
-0.13232115154751534
-0.13232115154751534
-0.15078456804251686
-0.16309351237253633
-0.1692479845375183
-0.1938658731975296
-0.2061748175275213
-0.21232928969253104
-0.21232928969253104
-0.23079270618753256
-0.2369471783525424
-0.23079270618753256
-0.23079270618753256
-0.23079270618753256
-0.2184837618575408
-0.2246382340225228
-0.2184837618575408
-0.2061748175275213
-0.2061748175275213
-0.1938658731975296
-0.18155692886753785
-0.2061748175275213
-0.2061748175275213
-0.1938658731975296
-0.18771140103251985
-0.18771140103251985
-0.1938658731975296
-0.18771140103251985
-0.16309351237253633
-0.16309351237253633
-0.17540245670252808
-0.1692479845375183
-0.16309351237253633
-0.15078456804251686
-0.16309351237253633
-0.1938658731975296
-0.2184837618575408
-0.2369471783525424
-0.2431016505175243
-0.2431016505175243
-0.2369471783525424
-0.2431016505175243
-0.2431016505175243
-0.2184837618575408
-0.1938658731975296
-0.17540245670252808
-0.18771140103251985
-0.18771140103251985
-0.2000203453625393
-0.2246382340225228
-0.2431016505175243
-0.2431016505175243
-0.24925612268253405
-0.2738740113425453
-0.2800284835075273
-0.2984919000025288
-0.31695531649755804
-0.33541873299255964
-0.3415732051575415
-0.3292642608275498
-0.3415732051575415
-0.34772767732255133
-0.36619109381755277
-0.37850003814754446
-0.36619109381755277
-0.37850003814754446
-0.40927239897256545
-0.42158134330255725
-0.433890287632549
-0.427735815467567
-0.433890287632549
-0.433890287632549
-0.433890287632549
-0.433890287632549
-0.44619923196256844
-0.4523537041275505
-0.46466264845757
-0.4831260649525715
-0.4892805371175811
-0.5015894814475731
-0.5077439536125827
-0.5077439536125827
-0.5138984257775646
-0.5323618422725662
-0.5200528979425745
-0.5200528979425745
-0.5138984257775646
-0.5200528979425745
-0.5200528979425745
-0.5077439536125827
-0.5138984257775646
-0.5015894814475731
-0.5077439536125827
-0.5015894814475731
-0.49543500928256323
-0.49543500928256323
-0.4831260649525715
-0.4831260649525715
-0.47697159278756174
-0.4708171206225797
-0.47697159278756174
-0.4708171206225797
-0.45850817629256013
-0.46466264845757
-0.45850817629256013
-0.46466264845757
-0.45850817629256013
-0.45850817629256013
-0.4400447597975588
-0.433890287632549
-0.427735815467567
-0.427735815467567
-0.427735815467567
-0.433890287632549
-0.433890287632549
-0.427735815467567
-0.433890287632549
-0.4400447597975588
-0.42158134330255725
-0.40927239897256545
-0.4154268711375475
-0.4154268711375475
-0.42158134330255725
-0.42158134330255725
-0.427735815467567
-0.4154268711375475
-0.4154268711375475
-0.4154268711375475
-0.40927239897256545
-0.4154268711375475
-0.4154268711375475
-0.40927239897256545
-0.40927239897256545
-0.390808982477564
-0.3723455659825625
-0.3723455659825625
-0.36619109381755277
-0.3723455659825625
-0.360036621652543
-0.35388214948756086
-0.35388214948756086
-0.3723455659825625
-0.36619109381755277
-0.360036621652543
-0.360036621652543
-0.36619109381755277
-0.36619109381755277
-0.36619109381755277
-0.360036621652543
-0.390808982477564
-0.3846545103125543
-0.37850003814754446
-0.3846545103125543
-0.3723455659825625
-0.3723455659825625
-0.36619109381755277
-0.3723455659825625
-0.360036621652543
-0.36619109381755277
-0.360036621652543
-0.35388214948756086
-0.34772767732255133
-0.3415732051575415
-0.33541873299255964
-0.33541873299255964
-0.30464637216753854
-0.26771953917753555
-0.2246382340225228
-0.18771140103251985
-0.14463009587750708
-0.1015487907225221
-0.07693090206251085
-0.12001220721752358
-0.2369471783525424
-0.3846545103125543
-0.46466264845757
-0.4708171206225797
-0.4523537041275505
-0.42158134330255725
-0.3846545103125543
-0.36619109381755277
-0.33541873299255964
-0.31695531649755804
-0.2984919000025288
-0.28618295567253704
-0.2800284835075273
-0.2738740113425453
-0.26771953917753555
-0.26771953917753555
-0.26771953917753555
-0.26771953917753555
-0.24925612268253405
-0.24925612268253405
-0.24925612268253405
-0.2431016505175243
-0.2431016505175243
-0.26156506701252585
-0.28618295567253704
-0.2554105948475438
-0.2246382340225228
-0.2184837618575408
-0.21232928969253104
-0.21232928969253104
-0.2061748175275213
-0.21232928969253104
-0.2246382340225228
-0.2246382340225228
-0.23079270618753256
-0.2369471783525424
-0.23079270618753256
-0.2369471783525424
-0.2431016505175243
-0.2431016505175243
-0.2431016505175243
-0.24925612268253405
-0.24925612268253405
-0.2369471783525424
-0.23079270618753256
-0.23079270618753256
-0.2184837618575408
-0.2184837618575408
-0.2246382340225228
-0.2184837618575408
-0.21232928969253104
-0.2000203453625393
-0.1938658731975296
-0.2000203453625393
-0.2000203453625393
-0.1938658731975296
-0.18771140103251985
-0.17540245670252808
-0.18155692886753785
-0.17540245670252808
-0.1692479845375183
-0.15693904020752658
-0.15078456804251686
-0.15078456804251686
-0.14463009587750708
-0.13232115154751534
-0.1261666793825056
-0.1261666793825056
-0.13232115154751534
-0.13232115154751534
-0.1384756237125251
-0.1384756237125251
-0.14463009587750708
-0.15693904020752658
-0.1692479845375183
-0.18155692886753785
-0.18771140103251985
-0.21232928969253104
-0.23079270618753256
-0.2431016505175243
-0.2554105948475438
-0.2554105948475438
-0.26156506701252585
-0.26156506701252585
-0.26156506701252585
-0.26156506701252585
-0.26771953917753555
-0.2800284835075273
-0.26771953917753555
-0.26771953917753555
-0.2738740113425453
-0.2800284835075273
-0.2738740113425453
-0.26771953917753555
-0.26771953917753555
-0.26771953917753555
-0.2800284835075273
-0.26156506701252585
-0.2554105948475438
-0.24925612268253405
-0.24925612268253405
-0.24925612268253405
-0.2369471783525424
-0.2369471783525424
-0.2369471783525424
-0.2369471783525424
-0.2369471783525424
-0.2369471783525424
-0.2369471783525424
-0.24925612268253405
-0.2554105948475438
-0.26156506701252585
-0.2554105948475438
-0.24925612268253405
-0.2554105948475438
-0.24925612268253405
-0.24925612268253405
-0.2431016505175243
-0.2431016505175243
-0.2431016505175243
-0.2369471783525424
-0.2369471783525424
-0.2369471783525424
-0.23079270618753256
-0.23079270618753256
-0.2369471783525424
-0.23079270618753256
-0.21232928969253104
-0.2184837618575408
-0.2246382340225228
-0.2246382340225228
-0.2246382340225228
-0.2246382340225228
-0.21232928969253104
-0.21232928969253104
-0.2061748175275213
-0.2061748175275213
-0.2184837618575408
-0.2184837618575408
-0.21232928969253104
-0.2184837618575408
-0.21232928969253104
-0.2184837618575408
-0.2184837618575408
-0.2184837618575408
-0.21232928969253104
-0.2184837618575408
-0.21232928969253104
-0.21232928969253104
-0.21232928969253104
-0.2184837618575408
-0.23079270618753256
-0.23079270618753256
-0.23079270618753256
-0.2369471783525424
-0.23079270618753256
-0.23079270618753256
-0.2369471783525424
-0.2369471783525424
-0.23079270618753256
-0.23079270618753256
-0.2246382340225228
-0.2246382340225228
-0.2246382340225228
-0.2369471783525424
-0.2431016505175243
-0.23079270618753256
-0.2554105948475438
-0.2554105948475438
-0.26156506701252585
-0.26771953917753555
-0.26156506701252585
-0.26771953917753555
-0.26771953917753555
-0.2738740113425453
-0.26771953917753555
-0.26156506701252585
-0.26771953917753555
-0.26771953917753555
-0.2738740113425453
-0.2738740113425453
-0.26771953917753555
-0.26771953917753555
-0.26771953917753555
-0.2738740113425453
-0.2738740113425453
-0.2738740113425453
-0.2800284835075273
-0.28618295567253704
-0.2800284835075273
-0.26156506701252585
-0.2554105948475438
-0.24925612268253405
-0.2431016505175243
-0.2431016505175243
-0.2431016505175243
-0.24925612268253405
-0.2554105948475438
-0.2431016505175243
-0.2554105948475438
-0.24925612268253405
-0.24925612268253405
-0.26771953917753555
-0.2738740113425453
-0.2738740113425453
-0.2738740113425453
-0.28618295567253704
-0.28618295567253704
-0.29233742783754685
-0.29233742783754685
-0.28618295567253704
-0.29233742783754685
-0.28618295567253704
-0.28618295567253704
-0.2800284835075273
-0.30464637216753854
-0.3108008443325483
-0.3108008443325483
-0.3108008443325483
-0.30464637216753854
-0.3108008443325483
-0.30464637216753854
-0.30464637216753854
-0.2800284835075273
-0.26156506701252585
-0.23079270618753256
-0.21232928969253104
-0.18771140103251985
-0.15078456804251686
-0.11385773505251384
-0.15078456804251686
-0.2431016505175243
-0.3723455659825625
-0.4892805371175811
-0.5138984257775646
-0.5138984257775646
-0.5015894814475731
-0.4831260649525715
-0.4523537041275505
-0.4154268711375475
-0.396963454642546
-0.37850003814754446
-0.3723455659825625
-0.36619109381755277
-0.36619109381755277
-0.36619109381755277
-0.360036621652543
-0.360036621652543
-0.36619109381755277
-0.35388214948756086
-0.360036621652543
-0.34772767732255133
-0.34772767732255133
-0.34772767732255133
-0.3415732051575415
-0.3415732051575415
-0.3292642608275498
-0.3415732051575415
-0.33541873299255964
-0.34772767732255133
-0.3415732051575415
-0.35388214948756086
-0.35388214948756086
-0.34772767732255133
-0.35388214948756086
-0.34772767732255133
-0.3415732051575415
-0.3415732051575415
-0.3415732051575415
-0.33541873299255964
-0.33541873299255964
-0.3415732051575415
-0.3292642608275498
-0.32310978866254003
-0.31695531649755804
-0.32310978866254003
-0.32310978866254003
-0.30464637216753854
-0.30464637216753854
-0.30464637216753854
-0.2984919000025288
-0.29233742783754685
-0.29233742783754685
-0.2800284835075273
-0.28618295567253704
-0.2738740113425453
-0.28618295567253704
-0.2800284835075273
-0.2738740113425453
-0.26156506701252585
-0.2554105948475438
-0.24925612268253405
-0.2431016505175243
-0.2369471783525424
-0.23079270618753256
-0.2369471783525424
-0.2246382340225228
-0.23079270618753256
-0.2246382340225228
-0.2369471783525424
-0.2369471783525424
-0.2431016505175243
-0.23079270618753256
-0.23079270618753256
-0.2246382340225228
-0.2431016505175243
-0.2554105948475438
-0.26156506701252585
-0.2800284835075273
-0.28618295567253704
-0.28618295567253704
-0.2984919000025288
-0.29233742783754685
-0.28618295567253704
-0.29233742783754685
-0.29233742783754685
-0.29233742783754685
-0.28618295567253704
-0.29233742783754685
-0.3108008443325483
-0.2984919000025288
-0.28618295567253704
-0.26771953917753555
-0.2554105948475438
-0.24925612268253405
-0.2554105948475438
-0.2554105948475438
-0.2369471783525424
-0.23079270618753256
-0.23079270618753256
-0.2431016505175243
-0.2369471783525424
-0.2246382340225228
-0.2246382340225228
-0.2369471783525424
-0.24925612268253405
-0.21232928969253104
-0.2061748175275213
-0.21232928969253104
-0.2061748175275213
-0.2061748175275213
-0.2061748175275213
-0.21232928969253104
-0.2431016505175243
-0.2246382340225228
-0.2000203453625393
-0.18771140103251985
-0.18771140103251985
-0.18771140103251985
-0.1938658731975296
-0.2061748175275213
-0.2369471783525424
-0.2431016505175243
-0.23079270618753256
-0.23079270618753256
-0.2246382340225228
-0.23079270618753256
-0.2184837618575408
-0.2246382340225228
-0.2184837618575408
-0.23079270618753256
-0.2246382340225228
-0.2246382340225228
-0.2246382340225228
-0.2246382340225228
-0.21232928969253104
-0.2184837618575408
-0.21232928969253104
-0.2184837618575408
-0.21232928969253104
-0.21232928969253104
-0.21232928969253104
-0.21232928969253104
-0.2184837618575408
-0.2246382340225228
-0.2246382340225228
-0.2246382340225228
-0.2246382340225228
-0.2246382340225228
-0.2246382340225228
-0.21232928969253104
-0.2184837618575408
-0.21232928969253104
-0.21232928969253104
-0.2184837618575408
-0.2246382340225228
-0.2184837618575408
-0.2184837618575408
-0.21232928969253104
-0.2061748175275213
-0.2000203453625393
-0.1938658731975296
-0.1938658731975296
-0.18771140103251985
-0.18155692886753785
-0.18771140103251985
-0.18771140103251985
-0.1938658731975296
-0.2000203453625393
-0.1938658731975296
-0.2000203453625393
-0.18771140103251985
-0.18771140103251985
-0.17540245670252808
-0.17540245670252808
-0.18155692886753785
-0.16309351237253633
-0.15693904020752658
-0.18771140103251985
-0.18771140103251985
-0.1938658731975296
-0.18771140103251985
-0.18771140103251985
-0.2000203453625393
-0.18771140103251985
-0.1938658731975296
-0.21232928969253104
-0.2000203453625393
-0.2000203453625393
-0.2061748175275213
-0.21232928969253104
-0.2184837618575408
-0.21232928969253104
-0.2184837618575408
-0.21232928969253104
-0.2061748175275213
-0.21232928969253104
-0.2000203453625393
-0.2061748175275213
-0.2000203453625393
-0.2000203453625393
-0.1938658731975296
-0.1938658731975296
-0.2000203453625393
-0.2000203453625393
-0.2000203453625393
-0.2000203453625393
-0.2000203453625393
-0.1938658731975296
-0.1938658731975296
-0.18771140103251985
-0.1938658731975296
-0.1938658731975296
-0.2000203453625393
-0.2061748175275213
-0.1938658731975296
-0.1692479845375183
-0.16309351237253633
-0.1692479845375183
-0.16309351237253633
-0.17540245670252808
-0.17540245670252808
-0.17540245670252808
-0.1692479845375183
-0.1692479845375183
-0.18155692886753785
-0.18771140103251985
-0.1938658731975296
-0.18155692886753785
-0.18155692886753785
-0.1938658731975296
-0.2000203453625393
-0.21232928969253104
-0.2369471783525424
-0.2184837618575408
-0.2061748175275213
-0.21232928969253104
-0.2000203453625393
-0.1938658731975296
-0.18155692886753785
-0.17540245670252808
-0.16309351237253633
-0.15693904020752658
-0.15693904020752658
-0.15078456804251686
-0.14463009587750708
-0.14463009587750708
-0.1384756237125251
-0.1261666793825056
-0.09539431855751236
-0.05846748556750937
-0.02769512474251612
-0.003077236082504875
0.05846748556750937
0.10770326288750408
0.09539431855751236
0.003077236082504875
-0.14463009587750708
-0.24925612268253405
-0.29233742783754685
-0.2984919000025288
-0.2738740113425453
-0.24925612268253405
-0.23079270618753256
-0.18771140103251985
-0.15693904020752658
-0.14463009587750708
-0.12001220721752358
-0.11385773505251384
-0.11385773505251384
-0.11385773505251384
-0.08923984639250257
-0.09539431855751236
-0.08923984639250257
-0.08923984639250257
-0.09539431855751236
-0.1015487907225221
-0.09539431855751236
-0.09539431855751236
-0.09539431855751236
-0.09539431855751236
-0.10770326288750408
-0.10770326288750408
-0.1261666793825056
-0.15078456804251686
-0.18155692886753785
-0.18771140103251985
-0.2000203453625393
-0.2184837618575408
-0.23079270618753256
-0.26156506701252585
-0.26156506701252585
-0.26771953917753555
-0.28618295567253704
-0.29233742783754685
-0.28618295567253704
-0.28618295567253704
-0.2800284835075273
-0.2738740113425453
-0.26771953917753555
-0.2800284835075273
-0.2738740113425453
-0.26771953917753555
-0.26156506701252585
-0.2738740113425453
-0.2738740113425453
-0.2800284835075273
-0.28618295567253704
-0.26156506701252585
-0.23079270618753256
-0.21232928969253104
-0.1938658731975296
-0.18155692886753785
-0.18155692886753785
-0.18771140103251985
-0.18771140103251985
-0.1692479845375183
-0.16309351237253633
-0.14463009587750708
-0.15693904020752658
-0.16309351237253633
-0.17540245670252808
-0.18771140103251985
-0.2000203453625393
-0.21232928969253104
-0.2061748175275213
-0.21232928969253104
-0.2246382340225228
-0.23079270618753256
-0.24925612268253405
-0.26156506701252585
-0.2554105948475438
-0.26771953917753555
-0.2738740113425453
-0.2800284835075273
-0.2738740113425453
-0.2738740113425453
-0.2554105948475438
-0.2369471783525424
-0.2061748175275213
-0.1938658731975296
-0.16309351237253633
-0.10770326288750408
-0.05846748556750937
-0.02154065257750637
-0.04000406907250786
-0.05846748556750937
-0.09539431855751236
-0.15078456804251686
-0.1938658731975296
-0.1938658731975296
-0.2000203453625393
-0.2184837618575408
-0.2431016505175243
-0.26156506701252585
-0.2800284835075273
-0.30464637216753854
-0.3292642608275498
-0.35388214948756086
-0.36619109381755277
-0.36619109381755277
-0.360036621652543
-0.34772767732255133
-0.35388214948756086
-0.34772767732255133
-0.34772767732255133
-0.34772767732255133
-0.3292642608275498
-0.3292642608275498
-0.33541873299255964
-0.3415732051575415
-0.34772767732255133
-0.33541873299255964
-0.33541873299255964
-0.33541873299255964
-0.3292642608275498
-0.32310978866254003
-0.31695531649755804
-0.3108008443325483
-0.31695531649755804
-0.3292642608275498
-0.35388214948756086
-0.3723455659825625
-0.37850003814754446
-0.3846545103125543
-0.37850003814754446
-0.3846545103125543
-0.40311792680755576
-0.42158134330255725
-0.433890287632549
-0.45850817629256013
-0.45850817629256013
-0.4708171206225797
-0.4708171206225797
-0.47697159278756174
-0.47697159278756174
-0.46466264845757
-0.4708171206225797
-0.4708171206225797
-0.4708171206225797
-0.4708171206225797
-0.4831260649525715
-0.47697159278756174
-0.47697159278756174
-0.47697159278756174
-0.4708171206225797
-0.45850817629256013
-0.4523537041275505
-0.4523537041275505
-0.44619923196256844
-0.4523537041275505
-0.44619923196256844
-0.45850817629256013
-0.44619923196256844
-0.4400447597975588
-0.4400447597975588
-0.44619923196256844
-0.4400447597975588
-0.44619923196256844
-0.433890287632549
-0.4400447597975588
-0.4400447597975588
-0.427735815467567
-0.427735815467567
-0.4154268711375475
-0.427735815467567
-0.427735815467567
-0.42158134330255725
-0.4154268711375475
-0.4154268711375475
-0.42158134330255725
-0.427735815467567
-0.4400447597975588
-0.42158134330255725
-0.4154268711375475
-0.42158134330255725
-0.42158134330255725
-0.4154268711375475
-0.42158134330255725
-0.42158134330255725
-0.4400447597975588
-0.433890287632549
-0.427735815467567
-0.42158134330255725
-0.40311792680755576
-0.40311792680755576
-0.396963454642546
-0.390808982477564
-0.390808982477564
-0.3846545103125543
-0.37850003814754446
-0.37850003814754446
-0.37850003814754446
-0.3723455659825625
-0.35388214948756086
-0.34772767732255133
-0.34772767732255133
-0.3415732051575415
-0.33541873299255964
-0.3292642608275498
-0.31695531649755804
-0.30464637216753854
-0.29233742783754685
-0.2800284835075273
-0.28618295567253704
-0.29233742783754685
-0.28618295567253704
-0.2738740113425453
-0.2800284835075273
-0.28618295567253704
-0.29233742783754685
-0.2984919000025288
-0.28618295567253704
-0.2738740113425453
-0.2738740113425453
-0.26156506701252585
-0.26156506701252585
-0.26156506701252585
-0.2738740113425453
-0.2738740113425453
-0.2738740113425453
-0.2738740113425453
-0.2800284835075273
-0.2738740113425453
-0.2800284835075273
-0.26771953917753555
-0.2738740113425453
-0.26771953917753555
-0.2738740113425453
-0.2738740113425453
-0.26771953917753555
-0.2738740113425453
-0.26156506701252585
-0.2369471783525424
-0.1938658731975296
-0.15693904020752658
-0.1261666793825056
-0.08923984639250257
-0.05846748556750937
-0.08308537422752059
-0.1692479845375183
-0.30464637216753854
-0.42158134330255725
-0.45850817629256013
-0.4523537041275505
-0.4154268711375475
-0.396963454642546
-0.360036621652543
-0.33541873299255964
-0.3108008443325483
-0.29233742783754685
-0.2800284835075273
-0.26771953917753555
-0.26771953917753555
-0.26771953917753555
-0.26771953917753555
-0.26156506701252585
-0.26771953917753555
-0.26156506701252585
-0.26156506701252585
-0.26771953917753555
-0.26771953917753555
-0.2738740113425453
-0.26156506701252585
-0.2738740113425453
-0.26156506701252585
-0.26771953917753555
-0.26156506701252585
-0.26156506701252585
-0.26156506701252585
-0.2738740113425453
-0.2738740113425453
-0.2738740113425453
-0.26771953917753555
-0.2800284835075273
-0.26771953917753555
-0.26156506701252585
-0.26771953917753555
-0.26156506701252585
-0.26156506701252585
-0.26156506701252585
-0.2554105948475438
-0.2431016505175243
-0.2369471783525424
-0.23079270618753256
-0.23079270618753256
-0.23079270618753256
-0.23079270618753256
-0.2246382340225228
-0.23079270618753256
-0.2369471783525424
-0.2246382340225228
-0.2246382340225228
-0.2184837618575408
-0.2184837618575408
-0.2184837618575408
-0.2184837618575408
-0.21232928969253104
-0.21232928969253104
-0.2061748175275213
-0.2184837618575408
-0.21232928969253104
-0.2061748175275213
-0.2000203453625393
-0.2061748175275213
-0.2061748175275213
-0.21232928969253104
-0.2061748175275213
-0.21232928969253104
-0.2184837618575408
-0.2184837618575408
-0.23079270618753256
-0.23079270618753256
-0.2431016505175243
-0.24925612268253405
-0.26156506701252585
-0.26771953917753555
-0.2800284835075273
-0.29233742783754685
-0.3108008443325483
-0.31695531649755804
-0.32310978866254003
-0.33541873299255964
-0.3415732051575415
-0.3415732051575415
-0.3415732051575415
-0.34772767732255133
-0.3415732051575415
-0.34772767732255133
-0.3415732051575415
-0.33541873299255964
-0.33541873299255964
-0.33541873299255964
-0.360036621652543
-0.3415732051575415
-0.33541873299255964
-0.33541873299255964
-0.33541873299255964
-0.33541873299255964
-0.33541873299255964
-0.35388214948756086
-0.35388214948756086
-0.3415732051575415
-0.3415732051575415
-0.33541873299255964
-0.3292642608275498
-0.3292642608275498
-0.3292642608275498
-0.3292642608275498
-0.3292642608275498
-0.31695531649755804
-0.3108008443325483
-0.3108008443325483
-0.30464637216753854
-0.2984919000025288
-0.30464637216753854
-0.30464637216753854
-0.2984919000025288
-0.2984919000025288
-0.2984919000025288
-0.30464637216753854
-0.2984919000025288
-0.31695531649755804
-0.3108008443325483
-0.3108008443325483
-0.28618295567253704
-0.2800284835075273
-0.28618295567253704
-0.26771953917753555
-0.26771953917753555
-0.2738740113425453
-0.26771953917753555
-0.26156506701252585
-0.26771953917753555
-0.26771953917753555
-0.26771953917753555
-0.26156506701252585
-0.26771953917753555
-0.2554105948475438
-0.2554105948475438
-0.2554105948475438
-0.2554105948475438
-0.2554105948475438
-0.2369471783525424
-0.2369471783525424
-0.2246382340225228
-0.21232928969253104
-0.2184837618575408
-0.2184837618575408
-0.2246382340225228
-0.2246382340225228
-0.21232928969253104
-0.21232928969253104
-0.2000203453625393
-0.1938658731975296
-0.2000203453625393
-0.2000203453625393
-0.18771140103251985
-0.17540245670252808
-0.18155692886753785
-0.1938658731975296
-0.18771140103251985
-0.1938658731975296
-0.1938658731975296
-0.1938658731975296
-0.1938658731975296
-0.1938658731975296
-0.2000203453625393
-0.2000203453625393
-0.2061748175275213
-0.2061748175275213
-0.2061748175275213
-0.21232928969253104
-0.2184837618575408
-0.21232928969253104
-0.2000203453625393
-0.1938658731975296
-0.1938658731975296
-0.18771140103251985
-0.1938658731975296
-0.1938658731975296
-0.1938658731975296
-0.18771140103251985
-0.18155692886753785
-0.18771140103251985
-0.18771140103251985
-0.18155692886753785
-0.17540245670252808
-0.18155692886753785
-0.18155692886753785
-0.18155692886753785
-0.1938658731975296
-0.1938658731975296
-0.2061748175275213
-0.2061748175275213
-0.1938658731975296
-0.18155692886753785
-0.17540245670252808
-0.1692479845375183
-0.16309351237253633
-0.1692479845375183
-0.18155692886753785
-0.18771140103251985
-0.18155692886753785
-0.18771140103251985
-0.18155692886753785
-0.18771140103251985
-0.18771140103251985
-0.18155692886753785
-0.18771140103251985
-0.18771140103251985
-0.1938658731975296
-0.18771140103251985
-0.1938658731975296
-0.2000203453625393
-0.2061748175275213
-0.17540245670252808
-0.18155692886753785
-0.17540245670252808
-0.1938658731975296
-0.2184837618575408
-0.2061748175275213
-0.1938658731975296
-0.1938658731975296
-0.18771140103251985
-0.18771140103251985
-0.1938658731975296
-0.1938658731975296
-0.1692479845375183
-0.13232115154751534
-0.10770326288750408
-0.07693090206251085
-0.04615854123751762
0.02154065257750637
0.04000406907250786
-0.02769512474251612
-0.15693904020752658
-0.29233742783754685
-0.37850003814754446
-0.40927239897256545
-0.4154268711375475
-0.390808982477564
-0.360036621652543
-0.31695531649755804
-0.29233742783754685
-0.26771953917753555
-0.24925612268253405
-0.24925612268253405
-0.26156506701252585
-0.26771953917753555
-0.26771953917753555
-0.2800284835075273
-0.2800284835075273
-0.2369471783525424
-0.2369471783525424
-0.2431016505175243
-0.2431016505175243
-0.2246382340225228
-0.2184837618575408
-0.2431016505175243
-0.26771953917753555
-0.26156506701252585
-0.2554105948475438
-0.24925612268253405
-0.24925612268253405
-0.2431016505175243
-0.2431016505175243
-0.2369471783525424
-0.2431016505175243
-0.24925612268253405
-0.24925612268253405
-0.2554105948475438
-0.24925612268253405
-0.24925612268253405
-0.24925612268253405
-0.24925612268253405
-0.2554105948475438
-0.2554105948475438
-0.2431016505175243
-0.2431016505175243
-0.23079270618753256
-0.2246382340225228
-0.2184837618575408
-0.2246382340225228
-0.23079270618753256
-0.23079270618753256
-0.2246382340225228
-0.2184837618575408
-0.2061748175275213
-0.17540245670252808
-0.15693904020752658
-0.15078456804251686
-0.13232115154751534
-0.1261666793825056
-0.10770326288750408
-0.08923984639250257
-0.07693090206251085
-0.0707764298975011
-0.06462195773251911
-0.05846748556750937
-0.05231301340249961
-0.05846748556750937
-0.05846748556750937
-0.05231301340249961
-0.05231301340249961
-0.05231301340249961
-0.05846748556750937
-0.0707764298975011
-0.09539431855751236
-0.1015487907225221
-0.12001220721752358
-0.14463009587750708
-0.15078456804251686
-0.16309351237253633
-0.17540245670252808
-0.18771140103251985
-0.18155692886753785
-0.18771140103251985
-0.1938658731975296
-0.18771140103251985
-0.2000203453625393
-0.21232928969253104
-0.23079270618753256
-0.2431016505175243
-0.24925612268253405
-0.26771953917753555
-0.26156506701252585
-0.2554105948475438
-0.26156506701252585
-0.2369471783525424
-0.2246382340225228
-0.2246382340225228
-0.2246382340225228
-0.2184837618575408
-0.21232928969253104
-0.2184837618575408
-0.2246382340225228
-0.2184837618575408
-0.1938658731975296
-0.2061748175275213
-0.2000203453625393
-0.18771140103251985
-0.17540245670252808
-0.18155692886753785
-0.1938658731975296
-0.2184837618575408
-0.2431016505175243
-0.24925612268253405
-0.26156506701252585
-0.26771953917753555
-0.26156506701252585
-0.28618295567253704
-0.2984919000025288
-0.3415732051575415
-0.3723455659825625
-0.40311792680755576
-0.427735815467567
-0.44619923196256844
-0.46466264845757
-0.4831260649525715
-0.5077439536125827
-0.5200528979425745
-0.5323618422725662
-0.5323618422725662
-0.5446707866025856
-0.5631342030975872
-0.5692886752625692
-0.575443147427579
-0.575443147427579
-0.5877520917575707
-0.5877520917575707
-0.5877520917575707
-0.6000610360875902
-0.6000610360875902
-0.6000610360875902
-0.6062155082525723
-0.6000610360875902
-0.5939065639225805
-0.5939065639225805
-0.5939065639225805
-0.5877520917575707
-0.5815976195925888
-0.5815976195925888
-0.5692886752625692
-0.5692886752625692
-0.5815976195925888
-0.5692886752625692
-0.575443147427579
-0.5692886752625692
-0.5631342030975872
-0.5631342030975872
-0.5569797309325777
-0.5569797309325777
-0.5508252587675677
-0.5446707866025856
-0.5446707866025856
-0.5262073701075842
-0.5262073701075842
-0.5323618422725662
-0.538516314437576
-0.538516314437576
-0.5200528979425745
-0.5077439536125827
-0.5200528979425745
-0.5138984257775646
-0.5077439536125827
-0.5015894814475731
-0.49543500928256323
-0.49543500928256323
-0.5015894814475731
-0.5015894814475731
-0.4831260649525715
-0.4831260649525715
-0.46466264845757
-0.45850817629256013
-0.45850817629256013
-0.4523537041275505
-0.44619923196256844
-0.44619923196256844
-0.44619923196256844
-0.44619923196256844
-0.433890287632549
-0.427735815467567
-0.433890287632549
-0.427735815467567
-0.427735815467567
-0.4154268711375475
-0.396963454642546
-0.3846545103125543
-0.3846545103125543
-0.37850003814754446
-0.37850003814754446
-0.37850003814754446
-0.3723455659825625
-0.360036621652543
-0.3723455659825625
-0.37850003814754446
-0.3846545103125543
-0.390808982477564
-0.396963454642546
-0.390808982477564
-0.396963454642546
-0.390808982477564
-0.390808982477564
-0.3846545103125543
-0.3723455659825625
-0.3723455659825625
-0.3723455659825625
-0.3723455659825625
-0.36619109381755277
-0.36619109381755277
-0.360036621652543
-0.35388214948756086
-0.360036621652543
-0.34772767732255133
-0.34772767732255133
-0.34772767732255133
-0.35388214948756086
-0.3292642608275498
-0.31695531649755804
-0.2369471783525424
-0.18771140103251985
-0.15693904020752658
-0.1261666793825056
-0.11385773505251384
-0.15078456804251686
-0.26156506701252585
-0.4154268711375475
-0.5200528979425745
-0.5508252587675677
-0.5200528979425745
-0.49543500928256323
-0.45850817629256013
-0.42158134330255725
-0.40311792680755576
-0.37850003814754446
-0.34772767732255133
-0.3415732051575415
-0.33541873299255964
-0.3292642608275498
-0.32310978866254003
-0.31695531649755804
-0.3292642608275498
-0.3292642608275498
-0.32310978866254003
-0.3292642608275498
-0.3292642608275498
-0.31695531649755804
-0.3292642608275498
-0.32310978866254003
-0.32310978866254003
-0.3292642608275498
-0.33541873299255964
-0.33541873299255964
-0.32310978866254003
-0.31695531649755804
-0.31695531649755804
-0.30464637216753854
-0.2984919000025288
-0.2984919000025288
-0.3108008443325483
-0.3108008443325483
-0.29233742783754685
-0.26156506701252585
-0.2431016505175243
-0.21232928969253104
-0.18155692886753785
-0.12001220721752358
-0.1015487907225221
-0.15693904020752658
-0.1938658731975296
-0.2369471783525424
-0.26156506701252585
-0.2800284835075273
-0.2800284835075273
-0.28618295567253704
-0.29233742783754685
-0.28618295567253704
-0.2800284835075273
-0.2800284835075273
-0.2800284835075273
-0.2800284835075273
-0.2984919000025288
-0.2738740113425453
-0.26156506701252585
-0.24925612268253405
-0.2369471783525424
-0.23079270618753256
-0.21232928969253104
-0.1938658731975296
-0.18155692886753785
-0.16309351237253633
-0.15693904020752658
-0.15693904020752658
-0.18155692886753785
-0.2061748175275213
-0.2246382340225228
-0.2369471783525424
-0.2554105948475438
-0.2738740113425453
-0.29233742783754685
-0.30464637216753854
-0.31695531649755804
-0.33541873299255964
-0.34772767732255133
-0.35388214948756086
-0.35388214948756086
-0.35388214948756086
-0.360036621652543
-0.3723455659825625
-0.3723455659825625
-0.36619109381755277
-0.3723455659825625
-0.360036621652543
-0.360036621652543
-0.3723455659825625
-0.360036621652543
-0.35388214948756086
-0.34772767732255133
-0.33541873299255964
-0.3292642608275498
-0.31695531649755804
-0.30464637216753854
-0.2984919000025288
-0.28618295567253704
-0.26156506701252585
-0.2431016505175243
-0.23079270618753256
-0.2184837618575408
-0.2000203453625393
-0.18155692886753785
-0.17540245670252808
-0.1261666793825056
-0.11385773505251384
-0.10770326288750408
-0.11385773505251384
-0.09539431855751236
-0.08923984639250257
-0.08308537422752059
-0.08308537422752059
-0.07693090206251085
-0.08308537422752059
-0.04615854123751762
-0.05231301340249961
-0.05846748556750937
-0.06462195773251911
-0.0707764298975011
-0.1015487907225221
-0.1015487907225221
-0.10770326288750408
-0.1261666793825056
-0.13232115154751534
-0.1384756237125251
-0.14463009587750708
-0.1384756237125251
-0.13232115154751534
-0.1261666793825056
-0.12001220721752358
-0.1015487907225221
-0.08923984639250257
-0.08308537422752059
-0.0707764298975011
-0.05846748556750937
-0.06462195773251911
-0.05846748556750937
-0.04000406907250786
-0.04000406907250786
-0.02769512474251612
-0.01538618041249662
-0.02154065257750637
-0.05846748556750937
-0.08308537422752059
-0.10770326288750408
-0.12001220721752358
-0.12001220721752358
-0.12001220721752358
-0.1261666793825056
-0.11385773505251384
-0.11385773505251384
-0.12001220721752358
-0.11385773505251384
-0.12001220721752358
-0.12001220721752358
-0.1261666793825056
-0.1384756237125251
-0.12001220721752358
-0.12001220721752358
-0.11385773505251384
-0.11385773505251384
-0.1261666793825056
-0.1261666793825056
-0.1261666793825056
-0.10770326288750408
-0.10770326288750408
-0.10770326288750408
-0.10770326288750408
-0.12001220721752358
-0.15693904020752658
-0.17540245670252808
-0.18771140103251985
-0.2000203453625393
-0.2000203453625393
-0.2000203453625393
-0.2184837618575408
-0.2246382340225228
-0.2246382340225228
-0.2184837618575408
-0.23079270618753256
-0.23079270618753256
-0.2369471783525424
-0.2431016505175243
-0.24925612268253405
-0.2554105948475438
-0.26771953917753555
-0.26156506701252585
-0.26156506701252585
-0.26156506701252585
-0.26771953917753555
-0.2431016505175243
-0.2184837618575408
-0.17540245670252808
-0.14463009587750708
-0.12001220721752358
-0.05846748556750937
-0.02769512474251612
-0.04615854123751762
-0.13232115154751534
-0.2554105948475438
-0.360036621652543
-0.40927239897256545
-0.433890287632549
-0.427735815467567
-0.396963454642546
-0.3723455659825625
-0.34772767732255133
-0.32310978866254003
-0.3108008443325483
-0.32310978866254003
-0.30464637216753854
-0.3108008443325483
-0.34772767732255133
-0.36619109381755277
-0.3846545103125543
-0.3846545103125543
-0.37850003814754446
-0.37850003814754446
-0.3846545103125543
-0.3846545103125543
-0.36619109381755277
-0.360036621652543
-0.360036621652543
-0.36619109381755277
-0.36619109381755277
-0.36619109381755277
-0.37850003814754446
-0.3846545103125543
-0.396963454642546
-0.4154268711375475
-0.427735815467567
-0.433890287632549
-0.4523537041275505
-0.46466264845757
-0.49543500928256323
-0.5200528979425745
-0.5015894814475731
-0.5077439536125827
-0.5262073701075842
-0.538516314437576
-0.5262073701075842
-0.5262073701075842
-0.5262073701075842
-0.5323618422725662
-0.538516314437576
-0.5323618422725662
-0.5262073701075842
-0.5200528979425745
-0.5138984257775646
-0.5015894814475731
-0.49543500928256323
-0.4831260649525715
-0.4708171206225797
-0.4708171206225797
-0.47697159278756174
-0.4708171206225797
-0.45850817629256013
-0.4523537041275505
-0.44619923196256844
-0.433890287632549
-0.433890287632549
-0.42158134330255725
-0.4154268711375475
-0.40311792680755576
-0.396963454642546
-0.3846545103125543
-0.37850003814754446
-0.36619109381755277
-0.36619109381755277
-0.36619109381755277
-0.36619109381755277
-0.37850003814754446
-0.390808982477564
-0.40311792680755576
-0.40927239897256545
-0.4154268711375475
-0.4154268711375475
-0.42158134330255725
-0.427735815467567
-0.427735815467567
-0.427735815467567
-0.427735815467567
-0.433890287632549
-0.433890287632549
-0.42158134330255725
-0.4154268711375475
-0.08923984639250257
1.0062561989776508
1.3139798072276945
1.2955163907326928
1.2708985020726815
1.2339716690826785
1.2093537804226673
1.178581419597674
1.1601180031026725
1.141654586607671
1.1170366979476598
1.0985732814526583
1.073955392792647
1.0554919762976458
1.0308740876376343
1.0185651433076426
1.0062561989776508
0.9877927824826491
0.9816383103176396
0.9754838381526297
0.9447114773276367
0.9324025329976448
0.9324025329976448
0.9200935886676254
0.8339309783576276
0.34772767732255133
-0.1015487907225221
-0.3292642608275498
-0.45850817629256013
-0.5262073701075842
-0.5815976195925888
-0.6185244525825918
-0.5877520917575707
0.1938658731975296
0.8770122835126126
0.8770122835126126
0.8523943948526291
0.8400854505226096
0.8154675618626261
0.7970041453676248
0.7785407288726233
0.7662317845426038
0.7354594237176102
0.7169960072226089
0.7046870628925892
0.6862236463975879
0.6739147020675963
0.6554512855725947
0.6431423412426027
0.6369878690775933
0.6185244525825918
0.6062155082525723
0.5939065639225805
0.5815976195925888
0.575443147427579
0.575443147427579
0.5631342030975872
0.5569797309325777
0.5446707866025856
0.34772767732255133
-0.1938658731975296
-0.5200528979425745
-0.6985325907276074
-0.8031586175326066
-0.8585488670176111
-0.901630172172624
-0.9262480608326351
-0.9385570051626267
-0.9570204216576284
-0.9693293659876481
-0.9754838381526297
-0.9877927824826491
-1.000101726812641
-1.0062561989776508
-1.000101726812641
-0.9877927824826491
-0.9939472546476313
-0.9877927824826491
-0.9693293659876481
-0.9693293659876481
-0.9508659494926462
-0.9200935886676254
-0.895475700007614
-0.8339309783576276
-0.8093130896976164
-0.7046870628925892
-0.2800284835075273
0.5323618422725662
0.7354594237176102
0.7231504793875909
0.6862236463975879
0.6800691742326057
0.6616057577376044
0.6431423412426027
0.6308333969125834
0.6000610360875902
0.5877520917575707
0.6000610360875902
0.6185244525825918
0.6369878690775933
0.6492968134075847
0.6616057577376044
0.6923781185625978
0.6800691742326057
0.6062155082525723
0.5200528979425745
0.37850003814754446
0.2738740113425453
0.2554105948475438
0.2554105948475438
0.29233742783754685
0.31695531649755804
0.33541873299255964
0.34772767732255133
0.360036621652543
0.34772767732255133
0.33541873299255964
0.3292642608275498
0.3292642608275498
0.3108008443325483
0.3108008443325483
0.3108008443325483
0.2984919000025288
0.29233742783754685
0.2800284835075273
0.2738740113425453
0.26156506701252585
0.2554105948475438
0.2554105948475438
0.24925612268253405
0.2369471783525424
0.23079270618753256
0.23079270618753256
0.2246382340225228
0.2184837618575408
0.21232928969253104
0.1938658731975296
0.2000203453625393
0.2000203453625393
0.18155692886753785
0.17540245670252808
0.18155692886753785
0.17540245670252808
0.18771140103251985
0.15693904020752658
0.1384756237125251
0.1384756237125251
0.1261666793825056
0.09539431855751236
0.0707764298975011
0.06462195773251911
0.11385773505251384
0.15693904020752658
0.16309351237253633
0.14463009587750708
0.1384756237125251
0.1384756237125251
0.1384756237125251
0.13232115154751534
0.1261666793825056
0.1261666793825056
0.1261666793825056
0.12001220721752358
0.12001220721752358
0.1261666793825056
0.12001220721752358
0.12001220721752358
0.12001220721752358
0.12001220721752358
0.12001220721752358
0.11385773505251384
0.1015487907225221
0.1015487907225221
0.08923984639250257
0.08308537422752059
0.0707764298975011
0.05231301340249961
0.04000406907250786
0.02769512474251612
0.003077236082504875
-0.009231708247514623
-0.02154065257750637
-0.033849596907498114
-0.04615854123751762
-0.05846748556750937
-0.0707764298975011
-0.07693090206251085
-0.08308537422752059
-0.08923984639250257
-0.1015487907225221
-0.09539431855751236
-0.1015487907225221
-0.10770326288750408
-0.10770326288750408
-0.09539431855751236
-0.09539431855751236
-0.1015487907225221
-0.11385773505251384
-0.1261666793825056
-0.1261666793825056
-0.15078456804251686
-0.14463009587750708
-0.1384756237125251
-0.1384756237125251
-0.1384756237125251
-0.14463009587750708
-0.14463009587750708
-0.1384756237125251
-0.15078456804251686
-0.15078456804251686
-0.14463009587750708
-0.14463009587750708
-0.14463009587750708
-0.15078456804251686
-0.15693904020752658
-0.15078456804251686
-0.15693904020752658
-0.15078456804251686
-0.15693904020752658
-0.15693904020752658
-0.15693904020752658
-0.16309351237253633
-0.15693904020752658
-0.1692479845375183
-0.17540245670252808
-0.1692479845375183
-0.17540245670252808
-0.1692479845375183
-0.17540245670252808
-0.17540245670252808
-0.17540245670252808
-0.18155692886753785
-0.18771140103251985
-0.1938658731975296
-0.18155692886753785
-0.18155692886753785
-0.1938658731975296
-0.1938658731975296
-0.1938658731975296
-0.1938658731975296
-0.18771140103251985
-0.1938658731975296
-0.1938658731975296
-0.1938658731975296
-0.1938658731975296
-0.1938658731975296
-0.18155692886753785
-0.1692479845375183
-0.17540245670252808
-0.17540245670252808
-0.18155692886753785
-0.18155692886753785
-0.18155692886753785
-0.1938658731975296
-0.2000203453625393
-0.2061748175275213
-0.23079270618753256
-0.2246382340225228
-0.23079270618753256
-0.23079270618753256
-0.34772767732255133
-0.7908496732026148
-1.1601180031026725
-1.3570611123826792
-1.467841611352716
-1.5293863330027024
-1.5724676381577152
-1.5970855268177266
-1.615548943312728
-1.6217034154777374
-1.615548943312728
-1.6093944711477182
-1.615548943312728
-1.6032399989827366
-1.590931054652717
-1.578622110322725
-1.5663131659927332
-1.5601586938277234
-1.5355408051677124
-1.4924595000126994
-1.4432237226927047
-1.3878334732077002
-1.3324432237226955
-1.2832074464026733
-1.2401261412476885
-1.25243508557768
-1.3201342793926762
-1.4432237226927047
-1.5355408051677124
-1.5601586938277234
-1.5232318608377204
-1.473996083517698
-1.4309147783627132
-1.400142417537692
-1.3509066402176972
-1.3201342793926762
-1.289361918567683
-1.2708985020726815
-1.25243508557768
-1.2339716690826785
-1.2093537804226673
-1.1908903639276658
-1.1724269474326645
-1.1539635309376628
-1.1355001144426613
-1.1170366979476598
-1.11088222578265
-1.11088222578265
-1.104727753617668
-1.0924188092876486
-1.073955392792647
-1.0678009206276373
-1.0431830319676536
-1.0308740876376343
-1.0247196154726523
-1.0308740876376343
-1.000101726812641
-0.9939472546476313
-0.9877927824826491
-1.0124106711426328
-1.0247196154726523
-0.9939472546476313
-0.9816383103176396
-0.9570204216576284
-0.9385570051626267
-0.9324025329976448
-0.9139391165026156
-0.9077846443376336
-0.901630172172624
-0.889321227842632
-0.8708578113476306
-0.8647033391826209
-0.8523943948526291
-0.8462399226876194
-0.8339309783576276
-0.8339309783576276
-0.8154675618626261
-0.7970041453676248
-0.7846952010376053
-0.7662317845426038
-0.7662317845426038
-0.7539228402126119
-0.7354594237176102
-0.7354594237176102
-0.7231504793875909
-0.7231504793875909
-0.7169960072226089
-0.7108415350575992
-0.6985325907276074
-0.6923781185625978
-0.6923781185625978
-0.6800691742326057
-0.6739147020675963
-0.6616057577376044
-0.6616057577376044
-0.6616057577376044
-0.6554512855725947
-0.6554512855725947
-0.6616057577376044
-0.6739147020675963
-0.6862236463975879
-0.6923781185625978
-0.6923781185625978
-0.6985325907276074
-0.6985325907276074
-0.6985325907276074
-0.7046870628925892
-0.7046870628925892
-0.6985325907276074
-0.6985325907276074
-0.6923781185625978
-0.6923781185625978
-0.6862236463975879
-0.6862236463975879
-0.6800691742326057
-0.6739147020675963
-0.6739147020675963
-0.6677602299025862
-0.6677602299025862
-0.6492968134075847
-0.6492968134075847
-0.6492968134075847
-0.6431423412426027
-0.6492968134075847
-0.6431423412426027
-0.6308333969125834
-0.6369878690775933
-0.6246789247476012
-0.6185244525825918
-0.6000610360875902
-0.5939065639225805
-0.5877520917575707
-0.5815976195925888
-0.575443147427579
-0.5569797309325777
-0.5569797309325777
-0.5508252587675677
-0.538516314437576
-0.538516314437576
-0.5262073701075842
-0.5200528979425745
-0.5138984257775646
-0.5138984257775646
-0.5138984257775646
-0.5015894814475731
-0.49543500928256323
-0.49543500928256323
-0.49543500928256323
-0.5077439536125827
-0.5015894814475731
-0.5077439536125827
-0.5138984257775646
-0.5077439536125827
-0.5200528979425745
-0.5138984257775646
-0.5138984257775646
-0.5200528979425745
-0.5200528979425745
-0.5200528979425745
-0.5262073701075842
-0.5262073701075842
-0.5200528979425745
-0.5200528979425745
-0.5200528979425745
-0.5138984257775646
-0.5077439536125827
-0.5138984257775646
-0.5015894814475731
-0.5015894814475731
-0.5015894814475731
-0.5015894814475731
-0.5015894814475731
-0.49543500928256323
-0.49543500928256323
-0.4892805371175811
-0.4708171206225797
-0.3846545103125543
-0.2000203453625393
0.15693904020752658
0.7600773123775938
1.0554919762976458
1.1231911701126696
1.1293456422776516
1.1170366979476598
1.0924188092876486
1.0801098649576568
1.0678009206276373
1.0431830319676536
1.0247196154726523
1.0062561989776508
0.9939472546476313
0.9816383103176396
0.9754838381526297
0.9693293659876481
0.9447114773276367
0.901630172172624
0.9077846443376336
0.901630172172624
0.8831667556776225
0.8585488670176111
0.8277765061926179
0.8031586175326066
0.7846952010376053
0.7477683680476023
0.7231504793875909
0.7046870628925892
0.7046870628925892
0.6923781185625978
0.6677602299025862
0.6554512855725947
0.6492968134075847
0.6308333969125834
0.6185244525825918
0.6000610360875902
0.5877520917575707
0.5815976195925888
0.5631342030975872
0.5569797309325777
0.5446707866025856
0.5323618422725662
0.5138984257775646
0.5077439536125827
0.4892805371175811
0.47697159278756174
0.4831260649525715
0.5015894814475731
0.5323618422725662
0.5508252587675677
0.575443147427579
0.6246789247476012
0.6369878690775933
0.6000610360875902
0.49543500928256323
0.3415732051575415
0.21232928969253104
0.16309351237253633
0.16309351237253633
0.1938658731975296
0.23079270618753256
0.24925612268253405
0.2738740113425453
0.28618295567253704
0.28618295567253704
0.2800284835075273
0.2738740113425453
0.26771953917753555
0.2554105948475438
0.2554105948475438
0.2431016505175243
0.2369471783525424
0.2369471783525424
0.2246382340225228
0.2246382340225228
0.21232928969253104
0.2061748175275213
0.1938658731975296
0.18771140103251985
0.1692479845375183
0.08923984639250257
-0.15693904020752658
-0.360036621652543
-0.433890287632549
-0.46466264845757
-0.45850817629256013
-0.45850817629256013
-0.44619923196256844
-0.44619923196256844
-0.4400447597975588
-0.40927239897256545
-0.34772767732255133
-0.26771953917753555
-0.26156506701252585
-0.29233742783754685
-0.2738740113425453
-0.2061748175275213
-0.21232928969253104
-0.2000203453625393
-0.2000203453625393
-0.1938658731975296
-0.18771140103251985
-0.18771140103251985
-0.15693904020752658
-0.15078456804251686
-0.1692479845375183
-0.16309351237253633
-0.18155692886753785
-0.18155692886753785
-0.16309351237253633
-0.003077236082504875
0.09539431855751236
0.15078456804251686
0.17540245670252808
0.2000203453625393
0.21232928969253104
0.2000203453625393
0.2000203453625393
0.2000203453625393
0.2000203453625393
0.2061748175275213
0.2061748175275213
0.2246382340225228
0.2246382340225228
0.21232928969253104
0.2000203453625393
0.18771140103251985
0.17540245670252808
0.15078456804251686
0.10770326288750408
0.1015487907225221
0.09539431855751236
0.07693090206251085
0.0707764298975011
0.05846748556750937
0.04615854123751762
0.04000406907250786
0.02769512474251612
0.02154065257750637
0.01538618041249662
0.009231708247514623
0.01538618041249662
0.009231708247514623
-0.003077236082504875
-0.003077236082504875
-0.003077236082504875
-0.009231708247514623
-0.009231708247514623
-0.01538618041249662
-0.02769512474251612
-0.02154065257750637
-0.033849596907498114
-0.033849596907498114
-0.033849596907498114
-0.04000406907250786
-0.04615854123751762
-0.05231301340249961
-0.04615854123751762
-0.05846748556750937
-0.05231301340249961
-0.06462195773251911
-0.05846748556750937
-0.06462195773251911
-0.06462195773251911
-0.07693090206251085
-0.07693090206251085
-0.08308537422752059
-0.08308537422752059
-0.08923984639250257
-0.09539431855751236
-0.08923984639250257
-0.09539431855751236
-0.08923984639250257
-0.1015487907225221
-0.1015487907225221
-0.1015487907225221
-0.10770326288750408
-0.10770326288750408
-0.11385773505251384
-0.11385773505251384
-0.11385773505251384
-0.11385773505251384
-0.1261666793825056
-0.1261666793825056
-0.1384756237125251
-0.13232115154751534
-0.1384756237125251
-0.1384756237125251
-0.1384756237125251
-0.1384756237125251
-0.1384756237125251
-0.15078456804251686
-0.15078456804251686
-0.15078456804251686
-0.15693904020752658
-0.15078456804251686
-0.15078456804251686
-0.16309351237253633
-0.15693904020752658
-0.1692479845375183
-0.1692479845375183
-0.1692479845375183
-0.16309351237253633
-0.1692479845375183
-0.1692479845375183
-0.1692479845375183
-0.17540245670252808
-0.18155692886753785
-0.18155692886753785
-0.18155692886753785
-0.18155692886753785
-0.1938658731975296
-0.18771140103251985
-0.18771140103251985
-0.18771140103251985
-0.1938658731975296
-0.18771140103251985
-0.1938658731975296
-0.1938658731975296
-0.2000203453625393
-0.2000203453625393
-0.2061748175275213
-0.2061748175275213
-0.2000203453625393
-0.2061748175275213
-0.21232928969253104
-0.2000203453625393
-0.21232928969253104
-0.21232928969253104
-0.21232928969253104
-0.2000203453625393
-0.2061748175275213
-0.21232928969253104
-0.21232928969253104
-0.2061748175275213
-0.21232928969253104
-0.21232928969253104
-0.21232928969253104
-0.2061748175275213
-0.2184837618575408
-0.21232928969253104
-0.21232928969253104
-0.2061748175275213
-0.2246382340225228
-0.1938658731975296
-0.1938658731975296
-0.2000203453625393
-0.2000203453625393
-0.21232928969253104
-0.23079270618753256
-0.2246382340225228
-0.2184837618575408
-0.2184837618575408
-0.2184837618575408
-0.2184837618575408
-0.21232928969253104
-0.21232928969253104
-0.2061748175275213
-0.1938658731975296
-0.18155692886753785
-0.17540245670252808
-0.18155692886753785
-0.18771140103251985
-0.18155692886753785
-0.18771140103251985
-0.18771140103251985
-0.2000203453625393
-0.2000203453625393
-0.2184837618575408
-0.2184837618575408
-0.2246382340225228
-0.2246382340225228
-0.23079270618753256
-0.2184837618575408
-0.2246382340225228
-0.23079270618753256
-0.2246382340225228
-0.23079270618753256
-0.23079270618753256
-0.23079270618753256
-0.23079270618753256
-0.23079270618753256
-0.2246382340225228
-0.2369471783525424
-0.2369471783525424
-0.23079270618753256
-0.2184837618575408
-0.2246382340225228
-0.23079270618753256
-0.23079270618753256
-0.2246382340225228
-0.21232928969253104
-0.17540245670252808
-0.13232115154751534
-0.11385773505251384
-0.07693090206251085
-0.01538618041249662
0.009231708247514623
-0.04615854123751762
-0.15693904020752658
-0.30464637216753854
-0.4154268711375475
-0.4523537041275505
-0.433890287632549
-0.396963454642546
-0.360036621652543
-0.3292642608275498
-0.29233742783754685
-0.26771953917753555
-0.26156506701252585
-0.2554105948475438
-0.2554105948475438
-0.26156506701252585
-0.2554105948475438
-0.24925612268253405
-0.2554105948475438
-0.2554105948475438
-0.2554105948475438
-0.24925612268253405
-0.24925612268253405
-0.2554105948475438
-0.24925612268253405
-0.26156506701252585
-0.24925612268253405
-0.24925612268253405
-0.24925612268253405
-0.24925612268253405
-0.2554105948475438
-0.2554105948475438
-0.24925612268253405
-0.2554105948475438
-0.24925612268253405
-0.2431016505175243
-0.24925612268253405
-0.24925612268253405
-0.24925612268253405
-0.2554105948475438
-0.2369471783525424
-0.23079270618753256
-0.2369471783525424
-0.23079270618753256
-0.2431016505175243
-0.2431016505175243
-0.2369471783525424
-0.24925612268253405
-0.2554105948475438
-0.2431016505175243
-0.2431016505175243
-0.2369471783525424
-0.2431016505175243
-0.23079270618753256
-0.23079270618753256
-0.23079270618753256
-0.23079270618753256
-0.2184837618575408
-0.2184837618575408
-0.2184837618575408
-0.21232928969253104
-0.2061748175275213
-0.2000203453625393
-0.2000203453625393
-0.1938658731975296
-0.18771140103251985
-0.18155692886753785
-0.18771140103251985
-0.1938658731975296
-0.17540245670252808
-0.17540245670252808
-0.2000203453625393
-0.2061748175275213
-0.2061748175275213
-0.21232928969253104
-0.2246382340225228
-0.2369471783525424
-0.2431016505175243
-0.26156506701252585
-0.26771953917753555
-0.2738740113425453
-0.2800284835075273
-0.29233742783754685
-0.30464637216753854
-0.30464637216753854
-0.3108008443325483
-0.31695531649755804
-0.3108008443325483
-0.32310978866254003
-0.31695531649755804
-0.32310978866254003
-0.3292642608275498
-0.3292642608275498
-0.3292642608275498
-0.32310978866254003
-0.32310978866254003
-0.32310978866254003
-0.3292642608275498
-0.3292642608275498
-0.3292642608275498
-0.3415732051575415
-0.35388214948756086
-0.36619109381755277
-0.36619109381755277
-0.3846545103125543
-0.3846545103125543
-0.360036621652543
-0.3292642608275498
-0.3108008443325483
-0.2984919000025288
-0.2984919000025288
-0.30464637216753854
-0.2984919000025288
-0.2984919000025288
-0.2984919000025288
-0.30464637216753854
-0.2984919000025288
-0.2984919000025288
-0.30464637216753854
-0.2984919000025288
-0.2984919000025288
-0.2984919000025288
-0.2984919000025288
-0.2984919000025288
-0.30464637216753854
-0.30464637216753854
-0.2984919000025288
-0.30464637216753854
-0.2984919000025288
-0.30464637216753854
-0.30464637216753854
-0.3108008443325483
-0.2984919000025288
-0.30464637216753854
-0.30464637216753854
-0.30464637216753854
-0.2984919000025288
-0.2984919000025288
-0.30464637216753854
-0.2984919000025288
-0.30464637216753854
-0.30464637216753854
-0.30464637216753854
-0.2984919000025288
-0.30464637216753854
-0.30464637216753854
-0.2984919000025288
-0.2984919000025288
-0.30464637216753854
-0.2984919000025288
-0.29233742783754685
-0.29233742783754685
-0.2984919000025288
-0.29233742783754685
-0.28618295567253704
-0.29233742783754685
-0.29233742783754685
-0.29233742783754685
-0.29233742783754685
-0.2984919000025288
-0.29233742783754685
-0.28618295567253704
-0.29233742783754685
-0.28618295567253704
-0.29233742783754685
-0.29233742783754685
-0.29233742783754685
-0.2984919000025288
-0.29233742783754685
-0.2800284835075273
-0.2800284835075273
-0.2800284835075273
-0.28618295567253704
-0.28618295567253704
-0.29233742783754685
-0.29233742783754685
-0.28618295567253704
-0.29233742783754685
-0.2800284835075273
-0.2800284835075273
-0.28618295567253704
-0.28618295567253704
-0.29233742783754685
-0.28618295567253704
-0.29233742783754685
-0.29233742783754685
-0.28618295567253704
-0.28618295567253704
-0.28618295567253704
-0.2984919000025288
-0.32310978866254003
-0.31695531649755804
-0.31695531649755804
-0.31695531649755804
-0.36619109381755277
-0.5508252587675677
-0.7908496732026148
-0.9200935886676254
-1.0062561989776508
-1.215508252587677
-1.39398794537271
-1.467841611352716
-1.4863050278477177
-1.4986139721777092
-1.5170773886727107
-1.5355408051677124
-1.5540042216627135
-1.5724676381577152
-1.5663131659927332
-1.5663131659927332
-1.5724676381577152
-1.5663131659927332
-1.5601586938277234
-1.5540042216627135
-1.5416952773327224
-1.5355408051677124
-1.504768444342719
-1.4863050278477177
-1.467841611352716
-1.4493781948577145
-1.4247603061977032
-1.4124513618677115
-1.400142417537692
-1.3755245288776807
-1.3693700567126987
-1.3509066402176972
-1.3324432237226955
-1.326288751557686
-1.3078253350626845
-1.3016708628976748
-1.289361918567683
-1.2770529742376913
-1.25243508557768
-1.2339716690826785
-1.184735891762656
-1.1293456422776516
-1.073955392792647
-1.0308740876376343
-0.9754838381526297
-1.000101726812641
-1.0924188092876486
-1.2278171969176688
-1.326288751557686
-1.3509066402176972
-1.326288751557686
-1.2955163907326928
-1.2585895577426898
-1.221662724752659
-1.178581419597674
-1.1478090587726528
-1.1170366979476598
-1.0985732814526583
-1.0801098649576568
-1.0862643371226666
-1.0554919762976458
-1.0493375041326358
-1.0431830319676536
-1.0370285598026439
-1.0308740876376343
-1.0062561989776508
-1.0062561989776508
-1.000101726812641
-0.9877927824826491
-0.9816383103176396
-0.9754838381526297
-0.9693293659876481
-0.9631748938226381
-0.9631748938226381
-0.9508659494926462
-0.9447114773276367
-0.9385570051626267
-0.901630172172624
-0.8585488670176111
-0.8216220340276081
-0.7846952010376053
-0.6923781185625978
-0.5508252587675677
-0.2369471783525424
0.3292642608275498
0.6862236463975879
0.7539228402126119
0.7293049515526008
0.7169960072226089
0.6985325907276074
0.6923781185625978
0.6739147020675963
0.6554512855725947
0.6492968134075847
0.6369878690775933
0.6308333969125834
0.6185244525825918
0.6123699804175823
0.6000610360875902
0.5877520917575707
0.5877520917575707
0.5692886752625692
0.5692886752625692
0.5569797309325777
0.5508252587675677
0.5446707866025856
0.538516314437576
0.538516314437576
0.5323618422725662
0.5262073701075842
0.5200528979425745
0.5077439536125827
0.49543500928256323
0.4892805371175811
0.4831260649525715
0.46466264845757
0.44619923196256844
0.427735815467567
0.40311792680755576
0.4154268711375475
0.390808982477564
0.3723455659825625
0.34772767732255133
0.3292642608275498
0.2984919000025288
0.2738740113425453
0.26156506701252585
0.24925612268253405
0.2369471783525424
0.23079270618753256
0.2246382340225228
0.2061748175275213
0.2000203453625393
0.18771140103251985
0.18771140103251985
0.17540245670252808
0.1692479845375183
0.16309351237253633
0.16309351237253633
0.15693904020752658
0.15078456804251686
0.14463009587750708
0.1384756237125251
0.1261666793825056
0.13232115154751534
0.1261666793825056
0.12001220721752358
0.11385773505251384
0.11385773505251384
0.10770326288750408
0.1015487907225221
0.1015487907225221
0.08923984639250257
0.08923984639250257
0.08308537422752059
0.08308537422752059
0.08308537422752059
0.0707764298975011
0.0707764298975011
0.0707764298975011
0.06462195773251911
0.05231301340249961
0.05846748556750937
0.05231301340249961
0.02769512474251612
0.02154065257750637
0.04000406907250786
0.04000406907250786
0.009231708247514623
-0.05231301340249961
-0.2738740113425453
-0.6739147020675963
-0.9754838381526297
-1.1539635309376628
-1.2339716690826785
-1.2832074464026733
-1.3016708628976748
-1.3016708628976748
-1.3139798072276945
-1.3016708628976748
-1.3139798072276945
-1.3078253350626845
-1.3016708628976748
-1.2955163907326928
-1.289361918567683
-1.2708985020726815
-1.25243508557768
-1.2462806134126705
-1.2401261412476885
-1.221662724752659
-1.184735891762656
-1.1539635309376628
-1.1231911701126696
-1.11088222578265
-1.0924188092876486
-1.073955392792647
-1.0062561989776508
-0.9200935886676254
-0.8585488670176111
-0.895475700007614
-0.889321227842632
-0.8831667556776225
-0.8770122835126126
-0.8831667556776225
-0.8770122835126126
-0.8647033391826209
-0.8647033391826209
-0.8523943948526291
-0.8093130896976164
-0.7477683680476023
-0.7293049515526008
-0.7169960072226089
-0.7293049515526008
-0.7169960072226089
-0.6862236463975879
-0.6616057577376044
-0.5569797309325777
-0.3292642608275498
-0.1938658731975296
-0.16309351237253633
-0.29233742783754685
-0.360036621652543
-0.360036621652543
-0.26156506701252585
-0.2061748175275213
-0.2431016505175243
-0.33541873299255964
-0.36619109381755277
-0.390808982477564
-0.35388214948756086
-0.29233742783754685
-0.32310978866254003
-0.36619109381755277
-0.35388214948756086
-0.3415732051575415
-0.34772767732255133
-0.3292642608275498
-0.29233742783754685
-0.3292642608275498
-0.40927239897256545
-0.45850817629256013
-0.4708171206225797
-0.4523537041275505
-0.427735815467567
-0.42158134330255725
-0.40927239897256545
-0.390808982477564
-0.390808982477564
-0.3846545103125543
-0.3846545103125543
-0.35388214948756086
-0.30464637216753854
-0.28618295567253704
-0.31695531649755804
-0.3415732051575415
-0.35388214948756086
-0.3723455659825625
-0.396963454642546
-0.42158134330255725
