4.021947559828071
3.9788662546730578
3.7942320897230433
4.108110170138069
3.9234760051880535
3.9604028381780574
3.8680857557030492
3.9357849495180455
3.9234760051880535
4.5943134711731455
5.566720073243298
3.609597924773
3.9357849495180455
3.6896060629180156
2.255614048472826
3.1972482897179573
3.9850207268380675
3.9357849495180455
3.9173215330230438
3.75730525673304
4.028102031993082
3.9788662546730578
3.831158922713046
3.628061341268002
3.9973296711680604
4.003484143333068
3.8065410340530352
3.6834515907530063
3.8065410340530352
4.034256504158063
3.9727117825080476
3.7757686732280415
3.8065410340530352
4.052719920653064
3.8803947000330408
3.825004450548036
3.7265328959080186
4.058874392818074
3.8803947000330408
3.591134508277999
3.609597924773
3.948093893848065
3.9357849495180455
3.948093893848065
3.788077617558033
3.8496223392080475
3.9542483660130467
3.800386561888025
3.837313394878028
3.8126955062180454
4.003484143333068
3.874240227868059
3.9604028381780574
4.089646753643067
4.040410976323072
3.8927036443630603
3.8988581165280416
3.75730525673304
3.9542483660130467
3.9788662546730578
3.8927036443630603
3.7942320897230433
3.831158922713046
3.9542483660130467
3.8927036443630603
3.8803947000330408
3.7265328959080186
3.8988581165280416
3.8065410340530352
3.831158922713046
3.695760535083026
3.9665573103430654
3.9050125886930522
3.6465247577630033
3.9604028381780574
4.009638615498079
4.034256504158063
3.831158922713046
3.8927036443630603
3.9111670608580615
4.009638615498079
4.083492281478085
4.003484143333068
3.75115078456803
4.089646753643067
4.846646829938185
3.418809287657976
3.418809287657976
4.015793087663061
4.077337809313075
3.9788662546730578
3.8188499783830263
3.9788662546730578
4.1327280587980795
3.9234760051880535
4.280435390758092
4.27428091859311
4.114264642303079
3.9850207268380675
3.8619312835380395
3.855776811373057
4.1758093639530935
3.9050125886930522
3.8988581165280416
3.7757686732280415
4.052719920653064
4.003484143333068
3.9357849495180455
3.738841840238039
3.652679229928013
3.560362147453006
3.8680857557030492
3.837313394878028
3.7942320897230433
3.9911751990030497
3.9604028381780574
3.837313394878028
3.8927036443630603
4.015793087663061
3.9419394216830552
3.8927036443630603
3.75730525673304
4.058874392818074
3.9296304773530633
3.8496223392080475
3.7942320897230433
3.831158922713046
4.009638615498079
3.9173215330230438
3.8803947000330408
3.874240227868059
4.686630553648152
5.6036469062333
2.575646601052861
2.563337656722869
3.9727117825080476
3.9542483660130467
4.034256504158063
3.874240227868059
4.12657358663307
4.015793087663061
4.021947559828071
3.701915007248036
3.9296304773530633
3.9911751990030497
3.9050125886930522
3.800386561888025
3.9050125886930522
4.077337809313075
4.015793087663061
3.8065410340530352
4.151191475293081
4.68047608148317
4.083492281478085
3.9665573103430654
3.781923145393024
4.0711833371480655
4.108110170138069
3.8927036443630603
3.788077617558033
3.9850207268380675
4.034256504158063
3.9604028381780574
3.855776811373057
3.9050125886930522
3.831158922713046
3.1357035680679433
3.7449963124030208
3.7942320897230433
4.040410976323072
3.9173215330230438
3.9357849495180455
3.7449963124030208
4.065028864983084
3.8988581165280416
3.825004450548036
3.7757686732280415
3.9173215330230438
4.058874392818074
4.1327280587980795
4.2681264464281
4.015793087663061
4.003484143333068
3.9357849495180455
3.886549172198051
3.738841840238039
4.015793087663061
3.9850207268380675
3.9542483660130467
3.825004450548036
4.009638615498079
3.9911751990030497
3.948093893848065
3.781923145393024
3.61575239693801
3.701915007248036
4.243508557768089
3.9665573103430654
3.7265328959080186
4.021947559828071
3.9604028381780574
3.874240227868059
3.8065410340530352
4.083492281478085
3.9788662546730578
3.948093893848065
3.7265328959080186
4.0711833371480655
3.9850207268380675
3.9173215330230438
3.837313394878028
4.034256504158063
4.12657358663307
4.015793087663061
3.8680857557030492
3.8619312835380395
4.114264642303079
3.9973296711680604
4.021947559828071
3.763459728898022
4.108110170138069
4.0465654484880815
3.8619312835380395
3.763459728898022
4.040410976323072
4.009638615498079
3.9788662546730578
3.874240227868059
3.9973296711680604
4.040410976323072
3.9296304773530633
3.9542483660130467
3.8434678670430373
4.065028864983084
4.009638615498079
3.9665573103430654
3.8188499783830263
4.065028864983084
4.015793087663061
3.9911751990030497
3.8126955062180454
4.101955697973087
3.9973296711680604
3.9357849495180455
3.855776811373057
4.021947559828071
4.065028864983084
3.9296304773530633
3.8680857557030492
3.9050125886930522
4.021947559828071
3.948093893848065
4.40967930622313
5.83751684850331
3.406500343327984
3.75115078456803
3.8988581165280416
3.75730525673304
4.0465654484880815
4.065028864983084
3.3880369268329824
2.249459576307816
3.634215813433012
4.089646753643067
4.163500419623101
3.9296304773530633
3.8680857557030492
4.058874392818074
4.052719920653064
3.837313394878028
3.738841840238039
4.0711833371480655
4.021947559828071
3.9973296711680604
3.781923145393024
4.028102031993082
4.138882530963089
3.9727117825080476
3.8188499783830263
3.9665573103430654
4.12657358663307
3.9604028381780574
3.874240227868059
3.8927036443630603
4.27428091859311
3.9727117825080476
3.9665573103430654
3.800386561888025
4.095801225808078
4.021947559828071
3.948093893848065
3.8680857557030492
4.803565524783171
4.335825640243124
3.9850207268380675
3.8803947000330408
3.9973296711680604
4.114264642303079
4.009638615498079
3.9234760051880535
3.9911751990030497
4.077337809313075
4.003484143333068
3.9542483660130467
3.8065410340530352
4.0711833371480655
3.4126548154929934
3.5172808422979926
3.8496223392080475
3.9604028381780574
3.9850207268380675
3.9234760051880535
3.8680857557030492
3.9111670608580615
4.028102031993082
3.948093893848065
3.788077617558033
3.4926629536379816
4.428142722718132
4.065028864983084
4.458915083543125
4.1942727804480935
4.089646753643067
4.015793087663061
4.040410976323072
3.671142646423015
4.003484143333068
4.065028864983084
3.9788662546730578
3.8927036443630603
3.9173215330230438
4.009638615498079
4.188118308283084
3.9234760051880535
3.3449556216779697
3.6034434526080172
3.9234760051880535
3.9296304773530633
3.8188499783830263
4.1327280587980795
4.077337809313075
3.8803947000330408
3.8188499783830263
4.015793087663061
4.015793087663061
3.9111670608580615
3.855776811373057
3.9727117825080476
4.575850054678144
4.292744335088111
3.9050125886930522
3.831158922713046
4.145037003128072
3.9727117825080476
3.874240227868059
3.8065410340530352
4.243508557768089
3.9665573103430654
4.003484143333068
3.837313394878028
4.077337809313075
3.9850207268380675
3.6834515907530063
3.48035400930799
3.9050125886930522
3.9542483660130467
3.9419394216830552
3.8927036443630603
3.7942320897230433
4.058874392818074
3.9850207268380675
3.9788662546730578
3.855776811373057
3.9788662546730578
3.9665573103430654
4.514305333028129
5.129752549528216
4.335825640243124
4.095801225808078
3.7757686732280415
2.378703491772827
3.332646677347978
3.9419394216830552
3.9542483660130467
3.874240227868059
3.8065410340530352
4.077337809313075
4.034256504158063
3.837313394878028
3.695760535083026
4.163500419623101
4.0465654484880815
3.9234760051880535
3.7265328959080186
4.040410976323072
4.145037003128072
4.040410976323072
3.800386561888025
3.9111670608580615
4.058874392818074
3.9911751990030497
3.8927036443630603
3.8188499783830263
4.163500419623101
4.225045141273086
4.225045141273086
3.825004450548036
4.114264642303079
4.040410976323072
3.9234760051880535
3.7942320897230433
4.0711833371480655
4.0465654484880815
3.9542483660130467
3.8619312835380395
3.8988581165280416
4.138882530963089
3.9727117825080476
3.8619312835380395
3.6649881742580046
3.9604028381780574
3.9050125886930522
3.9296304773530633
3.75730525673304
4.0711833371480655
4.009638615498079
3.9604028381780574
3.831158922713046
4.009638615498079
3.9727117825080476
3.9419394216830552
3.831158922713046
3.886549172198051
3.9850207268380675
3.886549172198051
3.9111670608580615
3.837313394878028
4.083492281478085
3.886549172198051
3.677297118588024
4.083492281478085
4.095801225808078
4.028102031993082
3.9234760051880535
3.7942320897230433
3.9973296711680604
4.12657358663307
3.9111670608580615
3.732687368073029
3.7942320897230433
4.089646753643067
5.84367132066832
2.8033620711578893
2.8895246814679143
4.034256504158063
3.9727117825080476
3.9357849495180455
3.75730525673304
4.058874392818074
4.089646753643067
3.9296304773530633
3.8434678670430373
3.9542483660130467
3.9911751990030497
3.9727117825080476
3.886549172198051
3.886549172198051
4.151191475293081
3.9234760051880535
3.8927036443630603
3.8188499783830263
4.083492281478085
3.9665573103430654
3.9111670608580615
3.831158922713046
4.083492281478085
3.8680857557030492
3.8496223392080475
3.75730525673304
3.9542483660130467
4.065028864983084
3.9419394216830552
3.8988581165280416
3.9911751990030497
3.9973296711680604
3.9911751990030497
3.855776811373057
3.788077617558033
4.083492281478085
4.015793087663061
3.9357849495180455
3.8126955062180454
3.9234760051880535
3.9234760051880535
3.9419394216830552
3.8065410340530352
4.003484143333068
4.5820045268431535
5.105134660868233
2.9879962361079313
2.680272627857888
3.8927036443630603
3.9973296711680604
4.458915083543125
4.040410976323072
4.040410976323072
3.9911751990030497
4.040410976323072
3.6896060629180156
4.009638615498079
3.9727117825080476
3.9419394216830552
3.837313394878028
3.948093893848065
4.101955697973087
4.003484143333068
3.6649881742580046
3.449581648482997
3.9173215330230438
4.021947559828071
3.874240227868059
3.75115078456803
4.089646753643067
4.015793087663061
3.9173215330230438
3.732687368073029
3.9788662546730578
4.034256504158063
3.9111670608580615
3.8065410340530352
4.028102031993082
4.575850054678144
4.058874392818074
3.9111670608580615
3.8619312835380395
4.058874392818074
3.9234760051880535
3.8927036443630603
3.874240227868059
4.120419114468088
3.831158922713046
3.9542483660130467
3.837313394878028
4.028102031993082
3.9665573103430654
3.640370285598021
3.48035400930799
3.9419394216830552
3.9788662546730578
3.9173215330230438
3.8188499783830263
3.9111670608580615
4.034256504158063
3.948093893848065
3.9542483660130467
3.781923145393024
3.9665573103430654
3.9357849495180455
3.948093893848065
4.305053279418103
4.3112077515831135
3.7757686732280415
4.3112077515831135
3.9111670608580615
3.8803947000330408
4.015793087663061
3.8927036443630603
3.837313394878028
3.874240227868059
4.114264642303079
4.188118308283084
5.320541186643241
4.083492281478085
3.6834515907530063
3.48035400930799
3.8496223392080475
3.7942320897230433
4.065028864983084
3.677297118588024
2.360240075277825
3.3449556216779697
3.9234760051880535
4.028102031993082
3.9111670608580615
3.8680857557030492
3.8619312835380395
4.151191475293081
4.538923221688139
4.3112077515831135
3.9604028381780574
4.108110170138069
4.009638615498079
3.948093893848065
3.8126955062180454
4.120419114468088
3.9419394216830552
3.8434678670430373
3.8803947000330408
3.948093893848065
4.058874392818074
3.9173215330230438
3.5172808422979926
3.437272704152977
4.114264642303079
3.9050125886930522
3.9050125886930522
3.75115078456803
4.0711833371480655
3.8927036443630603
3.8803947000330408
3.7696142010630322
4.003484143333068
4.009638615498079
3.8927036443630603
3.831158922713046
4.0711833371480655
4.040410976323072
3.9173215330230438
3.788077617558033
4.341980112408105
5.289768825818246
4.200427252613103
3.9050125886930522
3.7757686732280415
4.058874392818074
3.9727117825080476
3.363419038172971
2.3171587701228398
3.701915007248036
3.9111670608580615
3.8680857557030492
3.763459728898022
3.8803947000330408
3.9788662546730578
4.015793087663061
3.837313394878028
3.763459728898022
3.9727117825080476
3.9050125886930522
3.8619312835380395
3.825004450548036
4.058874392818074
4.034256504158063
4.009638615498079
4.034256504158063
4.052719920653064
4.028102031993082
3.9357849495180455
3.8065410340530352
3.9419394216830552
4.120419114468088
3.874240227868059
3.8126955062180454
3.8188499783830263
4.015793087663061
3.9542483660130467
3.9173215330230438
3.7142239515780275
3.8065410340530352
3.8619312835380395
3.8803947000330408
3.8434678670430373
3.9911751990030497
3.9788662546730578
3.9727117825080476
3.8496223392080475
4.015793087663061
3.9234760051880535
3.9357849495180455
3.874240227868059
3.8496223392080475
4.138882530963089
4.028102031993082
3.831158922713046
3.831158922713046
3.9542483660130467
3.9665573103430654
3.9788662546730578
3.781923145393024
4.015793087663061
4.114264642303079
3.886549172198051
3.75115078456803
3.572671091782997
4.366598001068117
4.083492281478085
3.831158922713046
3.831158922713046
4.12657358663307
4.0465654484880815
3.9911751990030497
3.671142646423015
4.065028864983084
3.9788662546730578
3.9173215330230438
3.7942320897230433
4.0465654484880815
3.9911751990030497
3.9788662546730578
3.7757686732280415
3.9050125886930522
3.9850207268380675
3.9665573103430654
3.874240227868059
3.75730525673304
4.0465654484880815
4.021947559828071
3.855776811373057
3.732687368073029
4.015793087663061
3.9542483660130467
3.9111670608580615
3.738841840238039
4.009638615498079
3.9911751990030497
3.7942320897230433
3.75730525673304
3.874240227868059
3.9788662546730578
3.9419394216830552
3.825004450548036
3.7696142010630322
4.083492281478085
3.8680857557030492
3.8065410340530352
3.720378423743037
3.9665573103430654
3.9665573103430654
4.021947559828071
3.7942320897230433
3.9973296711680604
3.9357849495180455
3.874240227868059
3.7757686732280415
3.788077617558033
4.028102031993082
3.886549172198051
3.8680857557030492
3.7942320897230433
3.9050125886930522
3.8619312835380395
4.557386638183142
5.437476157778259
3.738841840238039
3.9173215330230438
3.732687368073029
2.1694514381628007
3.289565372192965
3.9173215330230438
3.9111670608580615
3.7696142010630322
3.7942320897230433
3.9727117825080476
3.9111670608580615
3.763459728898022
3.7142239515780275
4.028102031993082
3.855776811373057
3.8434678670430373
3.788077617558033
3.9419394216830552
3.9542483660130467
3.831158922713046
3.6649881742580046
3.8988581165280416
3.9788662546730578
3.8496223392080475
3.75115078456803
3.788077617558033
4.120419114468088
3.9727117825080476
3.8803947000330408
3.7080694794130173
3.9419394216830552
3.9234760051880535
3.8619312835380395
3.7080694794130173
4.003484143333068
3.8803947000330408
3.831158922713046
3.7449963124030208
3.8927036443630603
3.9234760051880535
3.825004450548036
3.6834515907530063
3.6896060629180156
3.9357849495180455
3.8065410340530352
3.8434678670430373
3.75115078456803
3.948093893848065
3.831158922713046
3.8065410340530352
3.61575239693801
3.9050125886930522
3.837313394878028
3.7942320897230433
3.7449963124030208
4.2065817247780855
4.212736196943095
3.8126955062180454
3.732687368073029
3.75115078456803
3.9727117825080476
3.800386561888025
3.554207675287996
4.003484143333068
3.9911751990030497
3.837313394878028
3.732687368073029
3.652679229928013
3.9234760051880535
3.578825563948007
3.4988174258029914
3.628061341268002
3.831158922713046
3.9173215330230438
3.8988581165280416
3.6834515907530063
3.720378423743037
3.9173215330230438
3.800386561888025
3.781923145393024
3.6834515907530063
3.8680857557030492
3.8927036443630603
4.1942727804480935
4.065028864983084
3.9111670608580615
3.8619312835380395
3.8126955062180454
3.6896060629180156
3.831158922713046
4.052719920653064
3.7757686732280415
3.7142239515780275
3.781923145393024
4.003484143333068
3.874240227868059
3.8434678670430373
3.35111009384298
3.48035400930799
3.75115078456803
3.7449963124030208
3.6649881742580046
3.9665573103430654
3.9111670608580615
3.8126955062180454
3.658833702093023
3.9542483660130467
3.8065410340530352
3.788077617558033
3.7080694794130173
3.7265328959080186
4.145037003128072
3.8434678670430373
3.763459728898022
3.874240227868059
4.040410976323072
3.9973296711680604
3.9173215330230438
3.7142239515780275
3.9419394216830552
4.655858192823159
5.579029017573289
2.4217847969278394
2.6987360443528896
3.9973296711680604
4.028102031993082
3.8188499783830263
3.8126955062180454
4.089646753643067
3.8927036443630603
3.948093893848065
3.6896060629180156
4.0465654484880815
3.8927036443630603
3.9050125886930522
3.788077617558033
4.034256504158063
3.9973296711680604
3.9542483660130467
3.825004450548036
3.9542483660130467
4.015793087663061
3.9604028381780574
3.8434678670430373
3.7696142010630322
4.114264642303079
5.012817578393197
3.9357849495180455
4.341980112408105
4.169654891788083
3.9727117825080476
3.8680857557030492
3.701915007248036
4.034256504158063
2.8095165433228986
2.9264515144579173
3.61575239693801
3.8188499783830263
3.9604028381780574
3.8927036443630603
3.7757686732280415
3.788077617558033
3.9788662546730578
3.788077617558033
3.8188499783830263
3.720378423743037
4.015793087663061
3.8126955062180454
3.6219068691030203
3.6834515907530063
3.9173215330230438
3.8065410340530352
3.8988581165280416
3.763459728898022
3.8065410340530352
3.9727117825080476
3.8126955062180454
3.7942320897230433
3.837313394878028
3.9419394216830552
3.8434678670430373
3.8496223392080475
3.732687368073029
3.9111670608580615
3.8496223392080475
3.825004450548036
3.8188499783830263
3.8680857557030492
3.9111670608580615
3.855776811373057
3.75730525673304
3.837313394878028
4.028102031993082
3.874240227868059
3.788077617558033
3.9357849495180455
4.606622415503137
4.065028864983084
3.9234760051880535
3.8188499783830263
3.9727117825080476
3.9788662546730578
3.9234760051880535
3.677297118588024
3.9665573103430654
4.034256504158063
3.9173215330230438
3.7696142010630322
3.8496223392080475
3.732687368073029
3.6649881742580046
3.9727117825080476
3.800386561888025
3.9911751990030497
3.9111670608580615
3.8188499783830263
3.701915007248036
4.003484143333068
3.9050125886930522
3.8496223392080475
3.8126955062180454
3.9234760051880535
3.9357849495180455
3.837313394878028
3.424963759822985
3.788077617558033
4.021947559828071
3.874240227868059
3.8126955062180454
3.788077617558033
3.9727117825080476
3.8988581165280416
3.825004450548036
3.7449963124030208
3.9234760051880535
3.8680857557030492
3.9173215330230438
3.9357849495180455
4.686630553648152
4.255817502098108
3.8988581165280416
3.8496223392080475
4.421988250553122
5.252841992828244
4.1942727804480935
3.9050125886930522
3.8496223392080475
4.040410976323072
3.9727117825080476
3.3203377330179586
2.2433051041428067
3.6649881742580046
3.1295490959029335
3.541898730958004
3.6896060629180156
3.9234760051880535
3.8927036443630603
3.9727117825080476
3.763459728898022
3.8619312835380395
3.9850207268380675
3.886549172198051
3.8126955062180454
3.8803947000330408
3.9788662546730578
4.058874392818074
4.557386638183142
4.065028864983084
4.015793087663061
3.9357849495180455
3.8927036443630603
3.831158922713046
4.065028864983084
4.1758093639530935
3.831158922713046
3.7942320897230433
3.8988581165280416
4.021947559828071
3.9788662546730578
3.8680857557030492
3.2403295948729705
3.763459728898022
3.886549172198051
3.8927036443630603
3.75115078456803
3.9911751990030497
3.9604028381780574
3.9050125886930522
3.738841840238039
4.009638615498079
3.8803947000330408
3.855776811373057
3.781923145393024
3.855776811373057
4.058874392818074
3.9234760051880535
3.788077617558033
3.9604028381780574
3.948093893848065
3.8065410340530352
3.8927036443630603
3.75115078456803
3.9050125886930522
3.8927036443630603
3.8434678670430373
3.7449963124030208
3.560362147453006
4.1758093639530935
3.825004450548036
3.6465247577630033
3.855776811373057
3.9604028381780574
3.8927036443630603
3.874240227868059
3.720378423743037
3.9973296711680604
3.9234760051880535
3.831158922713046
3.7449963124030208
3.9973296711680604
3.9850207268380675
4.052719920653064
4.354289056738125
4.440451667048122
4.009638615498079
3.9665573103430654
3.9111670608580615
3.874240227868059
4.015793087663061
4.052719920653064
3.8126955062180454
3.781923145393024
3.9788662546730578
3.9727117825080476
3.9296304773530633
3.8065410340530352
3.5665166196180156
3.4311182319879947
3.7449963124030208
3.7757686732280415
3.9911751990030497
3.9357849495180455
3.8188499783830263
3.7942320897230433
3.9111670608580615
4.009638615498079
3.8126955062180454
3.8126955062180454
3.720378423743037
4.034256504158063
3.9850207268380675
3.8619312835380395
3.75115078456803
4.021947559828071
3.9665573103430654
3.886549172198051
3.75730525673304
3.837313394878028
4.009638615498079
3.9050125886930522
3.874240227868059
3.886549172198051
3.9542483660130467
3.9419394216830552
4.717402914473173
5.369776963963263
4.292744335088111
3.948093893848065
3.738841840238039
2.187914854657802
3.375727982502963
3.9357849495180455
3.948093893848065
3.9050125886930522
3.948093893848065
3.9727117825080476
3.9665573103430654
3.9357849495180455
3.6896060629180156
3.6834515907530063
3.9050125886930522
3.8927036443630603
3.8680857557030492
3.9727117825080476
3.9296304773530633
3.9234760051880535
3.7757686732280415
3.9911751990030497
3.9357849495180455
3.874240227868059
3.8065410340530352
3.9850207268380675
4.114264642303079
3.886549172198051
3.831158922713046
3.8619312835380395
4.083492281478085
3.9788662546730578
3.825004450548036
3.788077617558033
4.065028864983084
4.058874392818074
3.9234760051880535
3.8496223392080475
3.9973296711680604
4.003484143333068
4.034256504158063
3.763459728898022
4.009638615498079
4.040410976323072
3.9357849495180455
3.8803947000330408
3.874240227868059
3.9911751990030497
3.9296304773530633
3.9357849495180455
3.837313394878028
3.9665573103430654
3.948093893848065
3.9111670608580615
3.9234760051880535
4.040410976323072
4.009638615498079
3.9050125886930522
3.781923145393024
3.9234760051880535
4.040410976323072
3.788077617558033
3.5665166196180156
4.138882530963089
4.058874392818074
3.9727117825080476
4.668167137153151
3.332646677347978
3.652679229928013
4.028102031993082
3.9234760051880535
3.75730525673304
3.9788662546730578
3.9419394216830552
3.9788662546730578
3.7942320897230433
3.8988581165280416
4.028102031993082
3.9542483660130467
3.8434678670430373
3.8188499783830263
4.015793087663061
4.028102031993082
3.8619312835380395
3.7449963124030208
3.948093893848065
3.9911751990030497
3.9419394216830552
3.7449963124030208
3.9788662546730578
4.1327280587980795
3.800386561888025
3.825004450548036
3.9050125886930522
3.9973296711680604
3.8496223392080475
3.8803947000330408
3.9296304773530633
5.068207827878203
5.326695658808251
3.591134508277999
3.788077617558033
4.095801225808078
3.9296304773530633
3.9357849495180455
3.8619312835380395
3.117240151572942
2.766435238167886
3.8188499783830263
3.837313394878028
3.9050125886930522
3.9296304773530633
3.788077617558033
3.8188499783830263
3.9357849495180455
3.8927036443630603
3.9050125886930522
3.8988581165280416
3.781923145393024
4.058874392818074
4.538923221688139
5.117443605198224
2.778744182497905
2.8895246814679143
3.9050125886930522
4.028102031993082
3.837313394878028
3.9173215330230438
4.052719920653064
3.9111670608580615
3.9665573103430654
3.781923145393024
4.040410976323072
3.9542483660130467
3.837313394878028
3.8188499783830263
4.021947559828071
3.9542483660130467
4.034256504158063
3.9050125886930522
4.065028864983084
4.003484143333068
3.8927036443630603
3.75730525673304
3.8803947000330408
4.0465654484880815
4.065028864983084
3.7942320897230433
3.788077617558033
4.0465654484880815
3.9604028381780574
3.8496223392080475
3.7696142010630322
3.9050125886930522
3.7942320897230433
3.781923145393024
3.7942320897230433
3.9111670608580615
3.9788662546730578
3.948093893848065
3.8188499783830263
3.8927036443630603
4.0465654484880815
3.781923145393024
3.8434678670430373
3.7696142010630322
4.040410976323072
4.514305333028129
4.292744335088111
3.825004450548036
4.083492281478085
3.9296304773530633
3.874240227868059
3.720378423743037
3.9542483660130467
3.9665573103430654
3.9173215330230438
3.8619312835380395
3.8988581165280416
4.015793087663061
3.8988581165280416
3.289565372192965
3.3141832608529764
3.886549172198051
3.677297118588024
4.181963836118102
3.831158922713046
3.9604028381780574
3.9850207268380675
3.8803947000330408
3.7142239515780275
3.9050125886930522
3.9727117825080476
3.9542483660130467
3.8065410340530352
3.7265328959080186
3.8619312835380395
3.9234760051880535
3.886549172198051
3.8496223392080475
4.003484143333068
3.948093893848065
3.9542483660130467
3.7449963124030208
4.015793087663061
3.9173215330230438
3.800386561888025
3.75115078456803
4.052719920653064
4.040410976323072
3.788077617558033
3.7696142010630322
3.886549172198051
4.015793087663061
3.9111670608580615
3.9296304773530633
3.720378423743037
4.108110170138069
3.9604028381780574
3.825004450548036
3.7265328959080186
3.9911751990030497
3.9173215330230438
3.9296304773530633
3.720378423743037
3.9357849495180455
3.948093893848065
3.8434678670430373
3.781923145393024
3.855776811373057
3.948093893848065
3.9234760051880535
3.8927036443630603
3.781923145393024
3.9727117825080476
3.8434678670430373
3.9050125886930522
3.9665573103430654
4.145037003128072
3.8927036443630603
3.9111670608580615
3.75730525673304
4.538923221688139
5.185142799013221
4.089646753643067
3.8126955062180454
3.886549172198051
4.028102031993082
3.9050125886930522
3.9111670608580615
1.9786628010477763
3.4311182319879947
3.855776811373057
3.825004450548036
3.6649881742580046
3.9911751990030497
3.9788662546730578
3.9604028381780574
3.7696142010630322
3.9357849495180455
3.9727117825080476
3.886549172198051
3.788077617558033
3.8619312835380395
4.058874392818074
4.12657358663307
3.825004450548036
3.7265328959080186
3.9911751990030497
3.9357849495180455
3.8803947000330408
3.800386561888025
3.9850207268380675
4.101955697973087
3.9111670608580615
3.732687368073029
3.886549172198051
3.9604028381780574
3.948093893848065
3.7696142010630322
3.548053203123014
4.028102031993082
3.837313394878028
3.831158922713046
3.8065410340530352
4.009638615498079
3.9542483660130467
3.9357849495180455
3.825004450548036
4.145037003128072
3.825004450548036
3.8803947000330408
3.7696142010630322
4.040410976323072
4.163500419623101
3.8803947000330408
3.8065410340530352
3.948093893848065
3.8988581165280416
3.8619312835380395
3.8065410340530352
3.75115078456803
4.040410976323072
3.9173215330230438
3.8680857557030492
3.7449963124030208
3.6896060629180156
4.237354085603107
3.9234760051880535
3.788077617558033
3.9050125886930522
4.021947559828071
3.9973296711680604
3.8803947000330408
3.7942320897230433
4.003484143333068
3.9234760051880535
3.9111670608580615
3.788077617558033
3.9665573103430654
3.9296304773530633
4.003484143333068
3.7942320897230433
3.9542483660130467
3.948093893848065
3.8988581165280416
3.8434678670430373
3.9357849495180455
4.009638615498079
3.9788662546730578
3.7696142010630322
3.9296304773530633
4.083492281478085
3.9357849495180455
3.8803947000330408
3.8434678670430373
4.058874392818074
3.9788662546730578
3.8496223392080475
3.781923145393024
3.9973296711680604
4.015793087663061
3.9727117825080476
3.7757686732280415
3.886549172198051
4.065028864983084
3.9050125886930522
3.9173215330230438
3.800386561888025
4.015793087663061
3.9296304773530633
3.8065410340530352
3.781923145393024
4.009638615498079
3.8803947000330408
3.9173215330230438
3.788077617558033
3.9665573103430654
3.9234760051880535
3.9173215330230438
3.8988581165280416
3.9911751990030497
3.9357849495180455
4.015793087663061
5.2220696320032225
5.825207904173318
3.800386561888025
3.9050125886930522
3.7265328959080186
2.298695353627811
3.48035400930799
3.9234760051880535
3.8803947000330408
3.825004450548036
4.015793087663061
3.9727117825080476
3.9357849495180455
3.781923145393024
3.1357035680679433
3.609597924773
3.8927036443630603
3.788077617558033
3.825004450548036
3.9542483660130467
3.9234760051880535
3.9111670608580615
3.658833702093023
3.9788662546730578
3.8988581165280416
3.8988581165280416
3.7142239515780275
3.9727117825080476
4.212736196943095
4.040410976323072
3.8065410340530352
3.9357849495180455
3.9419394216830552
3.8619312835380395
3.837313394878028
3.825004450548036
4.0465654484880815
3.8988581165280416
3.825004450548036
3.825004450548036
4.015793087663061
4.015793087663061
3.7449963124030208
3.6834515907530063
4.034256504158063
3.9173215330230438
3.800386561888025
3.7942320897230433
3.9234760051880535
4.015793087663061
3.9419394216830552
3.831158922713046
4.292744335088111
5.591337961903281
3.701915007248036
4.181963836118102
3.837313394878028
3.9911751990030497
3.9234760051880535
3.9850207268380675
3.2464840670379527
2.520256351567857
3.7265328959080186
3.886549172198051
3.837313394878028
3.9357849495180455
4.015793087663061
3.8496223392080475
4.662012664988168
3.461890592812989
3.7080694794130173
3.9542483660130467
3.8680857557030492
3.781923145393024
4.028102031993082
3.9788662546730578
4.028102031993082
3.7080694794130173
3.9419394216830552
3.9604028381780574
3.8803947000330408
3.788077617558033
3.9234760051880535
4.003484143333068
3.9542483660130467
3.634215813433012
3.738841840238039
4.034256504158063
3.9296304773530633
3.825004450548036
3.7696142010630322
3.9911751990030497
4.0465654484880815
3.8434678670430373
3.763459728898022
3.9296304773530633
3.9911751990030497
3.9542483660130467
3.874240227868059
3.874240227868059
4.095801225808078
3.831158922713046
3.8680857557030492
3.800386561888025
4.015793087663061
3.9850207268380675
3.837313394878028
3.75115078456803
4.083492281478085
3.8803947000330408
3.8803947000330408
3.763459728898022
3.9727117825080476
3.9665573103430654
3.886549172198051
3.7942320897230433
3.628061341268002
4.181963836118102
3.9665573103430654
3.831158922713046
3.8065410340530352
4.0465654484880815
4.489687444368147
5.068207827878203
2.772589710332896
2.9202970422929075
3.855776811373057
3.8188499783830263
3.7265328959080186
3.9542483660130467
4.003484143333068
3.9665573103430654
3.9296304773530633
3.763459728898022
3.9850207268380675
3.9788662546730578
3.9173215330230438
3.8927036443630603
4.003484143333068
3.9727117825080476
4.021947559828071
3.652679229928013
3.9788662546730578
4.021947559828071
3.9234760051880535
3.7942320897230433
3.9419394216830552
3.9850207268380675
3.9850207268380675
3.788077617558033
3.8803947000330408
4.003484143333068
3.9234760051880535
3.874240227868059
3.9111670608580615
3.9050125886930522
3.8619312835380395
3.7942320897230433
3.7942320897230433
4.052719920653064
3.9542483660130467
3.8619312835380395
3.831158922713046
3.9788662546730578
3.9173215330230438
3.837313394878028
3.825004450548036
3.8803947000330408
4.138882530963089
4.12657358663307
3.831158922713046
3.8619312835380395
4.058874392818074
3.8680857557030492
3.874240227868059
3.75115078456803
4.021947559828071
3.9604028381780574
3.9604028381780574
3.855776811373057
4.009638615498079
3.948093893848065
3.9234760051880535
3.720378423743037
3.75730525673304
3.8927036443630603
3.6219068691030203
4.120419114468088
3.8619312835380395
3.9234760051880535
3.8927036443630603
3.9050125886930522
3.7449963124030208
4.0465654484880815
3.948093893848065
3.9111670608580615
3.7080694794130173
3.591134508277999
3.8496223392080475
3.8619312835380395
3.763459728898022
3.800386561888025
3.9419394216830552
3.9296304773530633
3.855776811373057
3.738841840238039
3.9973296711680604
3.9173215330230438
3.8496223392080475
3.75730525673304
4.058874392818074
4.27428091859311
3.9788662546730578
3.738841840238039
3.9357849495180455
4.021947559828071
3.9542483660130467
3.8434678670430373
3.8188499783830263
4.0711833371480655
3.9788662546730578
3.825004450548036
3.7449963124030208
3.9788662546730578
4.028102031993082
4.6435492484931675
3.9665573103430654
4.052719920653064
3.9419394216830552
3.948093893848065
3.781923145393024
3.9850207268380675
3.9850207268380675
3.9357849495180455
3.8680857557030492
3.874240227868059
3.9419394216830552
3.874240227868059
3.8188499783830263
3.2034027618829395
3.75115078456803
3.8803947000330408
3.8988581165280416
3.7449963124030208
4.717402914473173
5.652882683553296
3.7142239515780275
3.8188499783830263
3.9973296711680604
4.034256504158063
3.9050125886930522
4.0465654484880815
1.9971262175427773
3.578825563948007
3.9296304773530633
3.8988581165280416
3.837313394878028
4.058874392818074
3.948093893848065
4.028102031993082
3.720378423743037
4.052719920653064
4.003484143333068
3.9296304773530633
3.7696142010630322
3.8988581165280416
4.040410976323072
4.366598001068117
3.9050125886930522
3.781923145393024
4.021947559828071
3.9234760051880535
3.837313394878028
3.800386561888025
4.021947559828071
4.003484143333068
3.831158922713046
3.75730525673304
3.9727117825080476
3.886549172198051
3.874240227868059
3.720378423743037
3.9050125886930522
4.065028864983084
3.837313394878028
3.825004450548036
3.874240227868059
4.0465654484880815
3.9111670608580615
3.874240227868059
3.825004450548036
4.2065817247780855
3.8988581165280416
3.874240227868059
3.781923145393024
3.7942320897230433
3.763459728898022
3.8619312835380395
3.8803947000330408
4.015793087663061
3.9911751990030497
3.8988581165280416
3.825004450548036
3.8619312835380395
4.058874392818074
4.009638615498079
3.8680857557030492
3.7757686732280415
3.7696142010630322
4.637394776328158
4.27428091859311
3.831158922713046
3.9727117825080476
4.034256504158063
3.9973296711680604
3.9111670608580615
3.8434678670430373
4.009638615498079
3.9173215330230438
3.8803947000330408
3.8619312835380395
4.0465654484880815
3.948093893848065
3.6034434526080172
3.3203377330179586
4.021947559828071
3.9604028381780574
3.8496223392080475
3.738841840238039
4.040410976323072
3.9727117825080476
4.015793087663061
3.7142239515780275
3.8496223392080475
3.9850207268380675
3.855776811373057
3.8434678670430373
4.391215889728128
4.575850054678144
4.021947559828071
3.8065410340530352
3.763459728898022
4.089646753643067
4.015793087663061
3.9357849495180455
3.7265328959080186
4.077337809313075
4.083492281478085
3.886549172198051
3.7942320897230433
3.9911751990030497
3.6896060629180156
3.3141832608529764
3.7757686732280415
3.8680857557030492
4.003484143333068
3.9111670608580615
3.886549172198051
3.732687368073029
3.9973296711680604
3.9727117825080476
3.9234760051880535
3.738841840238039
4.021947559828071
3.9357849495180455
4.021947559828071
4.458915083543125
5.523638768088285
3.7696142010630322
3.9665573103430654
3.831158922713046
4.101955697973087
3.2034027618829395
4.169654891788083
3.8927036443630603
3.8065410340530352
4.108110170138069
3.9665573103430654
3.634215813433012
2.2679229928028177
3.486508481473
3.9234760051880535
3.9173215330230438
3.837313394878028
3.9850207268380675
4.0711833371480655
3.9727117825080476
3.886549172198051
3.800386561888025
4.034256504158063
3.948093893848065
3.8619312835380395
3.7449963124030208
4.163500419623101
4.108110170138069
3.9050125886930522
3.720378423743037
3.9357849495180455
3.9788662546730578
3.8927036443630603
3.9357849495180455
3.9357849495180455
4.028102031993082
3.9357849495180455
3.8927036443630603
3.837313394878028
3.9850207268380675
4.034256504158063
3.9111670608580615
3.7757686732280415
4.003484143333068
3.8988581165280416
3.948093893848065
3.75115078456803
3.9234760051880535
3.9727117825080476
3.9419394216830552
3.8188499783830263
3.886549172198051
4.009638615498079
3.886549172198051
3.825004450548036
3.8188499783830263
3.9727117825080476
3.8619312835380395
3.8680857557030492
3.7080694794130173
4.101955697973087
4.021947559828071
3.8680857557030492
3.738841840238039
3.948093893848065
3.9665573103430654
3.9419394216830552
3.6219068691030203
4.231199613438097
4.846646829938185
4.089646753643067
3.8927036443630603
3.781923145393024
4.052719920653064
3.9357849495180455
3.9973296711680604
3.7449963124030208
3.948093893848065
3.9357849495180455
3.9111670608580615
3.800386561888025
3.9419394216830552
3.8619312835380395
3.043386485592936
3.4741995371429804
3.8188499783830263
3.9973296711680604
3.8927036443630603
3.8803947000330408
3.800386561888025
3.9296304773530633
4.028102031993082
3.886549172198051
3.788077617558033
4.021947559828071
3.9050125886930522
3.948093893848065
4.1327280587980795
4.052719920653064
4.120419114468088
3.7942320897230433
3.788077617558033
3.8619312835380395
4.003484143333068
3.8803947000330408
3.825004450548036
3.825004450548036
4.169654891788083
3.831158922713046
3.8126955062180454
3.837313394878028
4.465069555708134
4.12657358663307
3.9788662546730578
3.8188499783830263
3.9911751990030497
3.855776811373057
3.9357849495180455
3.874240227868059
3.8680857557030492
3.9542483660130467
4.483532972203136
5.092825716538213
2.7418173495078744
2.901833625797906
3.277256427862973
3.5172808422979926
3.7449963124030208
3.9234760051880535
3.8927036443630603
3.9111670608580615
3.8927036443630603
3.8188499783830263
3.9296304773530633
3.8619312835380395
3.800386561888025
3.8496223392080475
4.034256504158063
3.9357849495180455
4.261971974263091
3.8927036443630603
4.052719920653064
3.9911751990030497
3.9111670608580615
3.825004450548036
3.9850207268380675
3.9788662546730578
3.9973296711680604
3.732687368073029
3.9419394216830552
4.003484143333068
3.9296304773530633
3.8988581165280416
3.75115078456803
4.040410976323072
3.9973296711680604
3.7696142010630322
3.800386561888025
4.003484143333068
3.9788662546730578
3.9727117825080476
3.7757686732280415
4.009638615498079
4.015793087663061
3.8496223392080475
3.831158922713046
3.9542483660130467
3.8803947000330408
3.8619312835380395
3.8496223392080475
4.009638615498079
4.101955697973087
3.8927036443630603
3.9234760051880535
3.8803947000330408
4.003484143333068
3.8927036443630603
3.9111670608580615
3.886549172198051
4.1758093639530935
3.9173215330230438
4.354289056738125
4.0711833371480655
3.9357849495180455
3.886549172198051
3.6834515907530063
4.200427252613103
3.8680857557030492
3.9911751990030497
3.9542483660130467
3.8434678670430373
3.8065410340530352
4.015793087663061
3.9604028381780574
3.9542483660130467
3.4311182319879947
3.4926629536379816
3.8496223392080475
3.886549172198051
3.7942320897230433
3.8065410340530352
3.9850207268380675
3.9604028381780574
3.8065410340530352
3.788077617558033
3.9973296711680604
3.9111670608580615
3.8434678670430373
3.8680857557030492
4.471224027873144
4.489687444368147
3.9173215330230438
3.7757686732280415
4.0465654484880815
4.003484143333068
3.9604028381780574
3.781923145393024
3.948093893848065
4.052719920653064
3.9542483660130467
3.855776811373057
3.8496223392080475
4.0465654484880815
3.5849800361130173
3.3695735103379807
3.738841840238039
4.040410976323072
3.8988581165280416
3.9050125886930522
3.8126955062180454
3.9788662546730578
4.003484143333068
3.9604028381780574
3.855776811373057
3.9665573103430654
3.9727117825080476
3.9542483660130467
4.114264642303079
4.2865898629231
4.058874392818074
3.9419394216830552
3.9357849495180455
3.825004450548036
4.735866330968175
5.289768825818246
4.2065817247780855
3.9050125886930522
4.077337809313075
4.021947559828071
3.9788662546730578
3.2095572340479492
2.329467714452832
3.418809287657976
3.8065410340530352
3.9296304773530633
3.8927036443630603
4.089646753643067
3.9604028381780574
3.9665573103430654
3.7757686732280415
4.003484143333068
3.9973296711680604
3.9111670608580615
3.8803947000330408
4.040410976323072
4.058874392818074
4.1327280587980795
3.7696142010630322
3.9050125886930522
4.003484143333068
3.9973296711680604
3.948093893848065
3.8803947000330408
4.12657358663307
4.083492281478085
3.874240227868059
3.855776811373057
4.095801225808078
3.948093893848065
4.003484143333068
3.75115078456803
3.8803947000330408
4.120419114468088
3.855776811373057
3.8188499783830263
3.9973296711680604
4.009638615498079
3.9050125886930522
3.8680857557030492
3.9234760051880535
4.034256504158063
3.9850207268380675
3.874240227868059
3.800386561888025
3.9973296711680604
3.9296304773530633
3.9727117825080476
3.8803947000330408
4.065028864983084
3.948093893848065
3.9604028381780574
3.8188499783830263
3.9419394216830552
4.0465654484880815
3.9234760051880535
3.8619312835380395
3.8065410340530352
3.695760535083026
4.298898807253093
3.8434678670430373
3.800386561888025
3.9973296711680604
3.9665573103430654
3.9850207268380675
3.9296304773530633
3.8988581165280416
3.9788662546730578
3.9050125886930522
3.8434678670430373
3.9173215330230438
3.9973296711680604
4.058874392818074
5.419012741283257
4.323516695913104
4.089646753643067
4.003484143333068
3.9357849495180455
3.7942320897230433
4.015793087663061
3.9050125886930522
2.495638462907845
2.96953281961293
3.9604028381780574
4.009638615498079
3.9296304773530633
3.9050125886930522
3.9111670608580615
4.009638615498079
3.948093893848065
3.788077617558033
3.8496223392080475
4.0465654484880815
3.9788662546730578
3.9050125886930522
3.7942320897230433
4.1327280587980795
3.9788662546730578
3.874240227868059
3.825004450548036
4.065028864983084
4.040410976323072
3.9419394216830552
3.831158922713046
3.9788662546730578
4.169654891788083
3.9542483660130467
3.8434678670430373
3.9111670608580615
4.034256504158063
3.9665573103430654
3.9419394216830552
3.831158922713046
4.095801225808078
4.021947559828071
4.637394776328158
4.67432160931816
5.2220696320032225
4.2865898629231
4.009638615498079
3.677297118588024
2.372549019607845
3.5357442587929944
3.9419394216830552
3.9542483660130467
3.8803947000330408
4.101955697973087
3.9296304773530633
3.9173215330230438
3.234175122707961
3.652679229928013
3.9357849495180455
3.9111670608580615
3.886549172198051
3.9788662546730578
3.9850207268380675
4.003484143333068
3.886549172198051
3.8927036443630603
3.9419394216830552
3.9727117825080476
3.874240227868059
3.886549172198051
4.3112077515831135
4.077337809313075
4.034256504158063
3.75115078456803
4.015793087663061
3.9357849495180455
3.9357849495180455
3.837313394878028
3.9665573103430654
4.120419114468088
3.9173215330230438
3.7142239515780275
3.9111670608580615
3.9973296711680604
3.8803947000330408
3.8188499783830263
3.8188499783830263
4.0465654484880815
3.9173215330230438
3.9050125886930522
3.874240227868059
3.9911751990030497
3.9173215330230438
3.9234760051880535
3.8434678670430373
3.9357849495180455
4.015793087663061
3.9173215330230438
3.9788662546730578
3.9542483660130467
3.9973296711680604
3.9111670608580615
3.8927036443630603
3.788077617558033
4.040410976323072
3.9788662546730578
3.825004450548036
3.529589786627985
4.2865898629231
4.009638615498079
3.9911751990030497
3.9665573103430654
3.8803947000330408
3.8988581165280416
3.9296304773530633
3.9419394216830552
3.9357849495180455
3.9727117825080476
3.9665573103430654
3.9850207268380675
3.7080694794130173
3.9542483660130467
3.9973296711680604
3.9173215330230438
3.8188499783830263
4.077337809313075
4.501996388698137
4.569695582513134
3.8126955062180454
4.040410976323072
4.009638615498079
3.9604028381780574
3.9234760051880535
3.9296304773530633
4.021947559828071
4.0465654484880815
3.831158922713046
3.8619312835380395
4.065028864983084
3.9727117825080476
3.554207675287996
3.264947483532954
3.948093893848065
4.065028864983084
3.948093893848065
3.7265328959080186
3.886549172198051
3.9788662546730578
3.9419394216830552
3.8619312835380395
3.8434678670430373
4.120419114468088
3.8988581165280416
3.8803947000330408
3.8619312835380395
4.181963836118102
3.9788662546730578
3.9111670608580615
3.8496223392080475
4.089646753643067
3.8619312835380395
3.9665573103430654
3.837313394878028
3.9296304773530633
3.9665573103430654
4.477378500038126
5.105134660868233
2.8402889041478923
3.080313318582939
3.9850207268380675
3.855776811373057
3.788077617558033
4.0465654484880815
4.003484143333068
3.948093893848065
3.800386561888025
3.9911751990030497
4.015793087663061
3.9542483660130467
3.8188499783830263
3.9419394216830552
4.034256504158063
3.886549172198051
3.640370285598021
3.763459728898022
4.028102031993082
3.9234760051880535
3.855776811373057
3.7942320897230433
4.077337809313075
4.028102031993082
3.8619312835380395
3.738841840238039
3.9911751990030497
3.9234760051880535
3.9604028381780574
3.9665573103430654
4.2865898629231
4.120419114468088
3.9973296711680604
3.8188499783830263
3.886549172198051
4.052719920653064
3.9788662546730578
3.8680857557030492
3.8126955062180454
4.120419114468088
3.9911751990030497
3.8065410340530352
3.7696142010630322
3.9604028381780574
3.6465247577630033
3.8065410340530352
3.8126955062180454
3.9665573103430654
4.108110170138069
3.8927036443630603
3.8188499783830263
3.8434678670430373
4.058874392818074
3.9788662546730578
3.8619312835380395
3.825004450548036
4.021947559828071
3.9911751990030497
3.8927036443630603
3.640370285598021
4.065028864983084
4.0711833371480655
4.7912565804531795
4.526614277358149
4.021947559828071
3.9296304773530633
3.8065410340530352
2.772589710332896
3.449581648482997
3.9604028381780574
3.8434678670430373
3.9542483660130467
4.120419114468088
4.003484143333068
3.9050125886930522
3.9542483660130467
3.763459728898022
3.9727117825080476
3.9296304773530633
3.9173215330230438
3.738841840238039
3.837313394878028
3.9727117825080476
3.8803947000330408
3.8065410340530352
3.8680857557030492
4.1942727804480935
4.058874392818074
3.8803947000330408
3.6834515907530063
4.021947559828071
3.9542483660130467
3.855776811373057
3.7942320897230433
4.052719920653064
4.089646753643067
3.9727117825080476
3.800386561888025
3.9296304773530633
3.9911751990030497
3.701915007248036
3.763459728898022
3.8065410340530352
4.101955697973087
4.520459805193139
4.858955774268176
3.9604028381780574
4.0465654484880815
3.9111670608580615
3.3880369268329824
2.8279799598179
3.8988581165280416
3.9788662546730578
3.9850207268380675
4.0465654484880815
3.9604028381780574
3.9911751990030497
3.9419394216830552
3.8927036443630603
3.8619312835380395
4.686630553648152
5.609801378398282
3.652679229928013
3.800386561888025
4.034256504158063
4.040410976323072
3.9296304773530633
3.1726304010579467
2.483329518577854
3.7757686732280415
3.9542483660130467
3.7942320897230433
3.9234760051880535
3.9973296711680604
3.9296304773530633
3.9357849495180455
3.781923145393024
3.9911751990030497
3.948093893848065
3.9357849495180455
3.7757686732280415
4.003484143333068
3.9173215330230438
3.948093893848065
3.6834515907530063
3.9050125886930522
3.9788662546730578
3.9173215330230438
3.8188499783830263
3.9419394216830552
4.015793087663061
4.8651102464331855
4.902037079423188
3.6834515907530063
4.157345947458091
3.9973296711680604
4.557386638183142
4.181963836118102
4.089646753643067
3.0680043742529195
2.631036850537866
3.6896060629180156
3.9727117825080476
3.9973296711680604
3.9357849495180455
3.8496223392080475
3.9050125886930522
4.101955697973087
3.8803947000330408
3.855776811373057
3.357264566007961
3.640370285598021
3.9234760051880535
3.948093893848065
3.837313394878028
4.095801225808078
3.9111670608580615
3.8927036443630603
3.831158922713046
3.9911751990030497
3.9727117825080476
3.9234760051880535
3.8803947000330408
4.015793087663061
4.40967930622313
4.305053279418103
3.9542483660130467
3.874240227868059
4.058874392818074
3.9296304773530633
3.9542483660130467
3.9542483660130467
3.9604028381780574
3.9357849495180455
3.948093893848065
3.831158922713046
3.9788662546730578
4.009638615498079
3.61575239693801
3.357264566007961
3.8496223392080475
4.052719920653064
3.9419394216830552
3.9111670608580615
3.855776811373057
4.028102031993082
3.9911751990030497
3.9604028381780574
3.7265328959080186
3.9973296711680604
3.9850207268380675
3.9727117825080476
3.9542483660130467
4.120419114468088
3.9111670608580615
3.8434678670430373
4.138882530963089
3.9234760051880535
3.9973296711680604
3.9727117825080476
3.8619312835380395
3.8619312835380395
4.163500419623101
4.034256504158063
3.855776811373057
3.8927036443630603
3.9788662546730578
3.763459728898022
3.8434678670430373
3.7696142010630322
4.0465654484880815
4.009638615498079
3.9050125886930522
3.825004450548036
3.9111670608580615
4.065028864983084
3.9357849495180455
3.874240227868059
3.8619312835380395
4.0465654484880815
4.280435390758092
4.397370361893111
4.397370361893111
5.302077770148239
4.188118308283084
3.9788662546730578
3.578825563948007
2.372549019607845
3.4741995371429804
3.9604028381780574
3.855776811373057
3.8126955062180454
4.015793087663061
3.948093893848065
3.6649881742580046
3.301874316522957
3.8619312835380395
3.9357849495180455
3.874240227868059
3.800386561888025
4.034256504158063
3.9357849495180455
3.9788662546730578
3.831158922713046
3.9604028381780574
4.028102031993082
3.9357849495180455
3.7696142010630322
4.028102031993082
4.2681264464281
3.9850207268380675
3.874240227868059
3.8188499783830263
4.028102031993082
3.9727117825080476
3.9111670608580615
3.8065410340530352
4.0465654484880815
3.9788662546730578
3.9111670608580615
3.6896060629180156
3.9911751990030497
3.9850207268380675
3.7449963124030208
3.738841840238039
3.8619312835380395
4.034256504158063
3.886549172198051
3.8619312835380395
3.788077617558033
4.034256504158063
3.9604028381780574
3.9665573103430654
3.8065410340530352
4.0465654484880815
3.9727117825080476
3.9234760051880535
3.8065410340530352
3.8803947000330408
4.009638615498079
3.9234760051880535
3.855776811373057
3.8188499783830263
4.040410976323072
3.9357849495180455
3.800386561888025
3.5665166196180156
4.3173622237481215
4.003484143333068
3.8680857557030492
3.9973296711680604
4.649703720658149
4.077337809313075
3.9604028381780574
3.831158922713046
3.9542483660130467
4.169654891788083
3.9911751990030497
3.9788662546730578
3.874240227868059
4.065028864983084
3.9604028381780574
3.9173215330230438
3.788077617558033
3.9173215330230438
3.0126141247679152
3.6219068691030203
3.652679229928013
3.9357849495180455
4.028102031993082
3.9357849495180455
3.8496223392080475
3.8927036443630603
4.021947559828071
3.9911751990030497
3.825004450548036
3.800386561888025
3.9542483660130467
3.9973296711680604
4.329671168078114
3.9234760051880535
3.9788662546730578
4.028102031993082
3.825004450548036
3.7757686732280415
4.034256504158063
3.9173215330230438
3.9973296711680604
3.831158922713046
3.9111670608580615
4.058874392818074
3.8188499783830263
3.9296304773530633
3.831158922713046
3.9111670608580615
3.874240227868059
3.8927036443630603
3.8065410340530352
4.12657358663307
3.886549172198051
3.9234760051880535
3.7696142010630322
3.9788662546730578
3.9850207268380675
4.465069555708134
5.0497444113832
2.9387604587879093
3.671142646423015
4.157345947458091
3.8496223392080475
3.8803947000330408
4.065028864983084
4.003484143333068
3.9542483660130467
3.9296304773530633
3.9542483660130467
3.9973296711680604
3.9234760051880535
3.8065410340530352
3.9850207268380675
3.9665573103430654
3.221866178377941
3.437272704152977
3.738841840238039
3.9788662546730578
3.9419394216830552
3.8434678670430373
3.825004450548036
4.0465654484880815
3.9973296711680604
3.9542483660130467
3.6896060629180156
3.9973296711680604
3.9788662546730578
3.9788662546730578
4.280435390758092
4.212736196943095
4.040410976323072
4.065028864983084
3.7696142010630322
3.9727117825080476
4.058874392818074
3.9604028381780574
3.9419394216830552
3.8803947000330408
4.138882530963089
4.040410976323072
3.874240227868059
3.831158922713046
4.077337809313075
3.9788662546730578
3.9357849495180455
3.8065410340530352
4.034256504158063
4.077337809313075
3.9665573103430654
3.8619312835380395
3.948093893848065
4.028102031993082
3.8988581165280416
3.8927036443630603
3.8988581165280416
4.052719920653064
3.948093893848065
3.9234760051880535
3.788077617558033
4.040410976323072
3.8619312835380395
3.6896060629180156
4.138882530963089
4.108110170138069
3.9173215330230438
3.948093893848065
3.855776811373057
3.8988581165280416
4.009638615498079
3.8927036443630603
3.781923145393024
3.701915007248036
4.003484143333068
3.9911751990030497
3.8619312835380395
3.7696142010630322
4.089646753643067
3.9727117825080476
3.9727117825080476
3.732687368073029
4.009638615498079
3.9911751990030497
3.9111670608580615
3.825004450548036
3.8496223392080475
3.9050125886930522
3.9788662546730578
3.9234760051880535
3.763459728898022
3.9727117825080476
3.948093893848065
3.9419394216830552
3.7942320897230433
4.052719920653064
3.9850207268380675
3.855776811373057
3.7942320897230433
3.9850207268380675
4.077337809313075
3.8619312835380395
3.8126955062180454
3.8927036443630603
4.54507769385315
5.702118460873318
3.560362147453006
3.831158922713046
4.0465654484880815
3.8927036443630603
3.9111670608580615
3.788077617558033
3.548053203123014
2.3540856031128428
3.788077617558033
3.9604028381780574
3.9296304773530633
3.9665573103430654
3.8988581165280416
3.8126955062180454
3.8065410340530352
4.68047608148317
5.615955850563292
3.658833702093023
3.825004450548036
4.083492281478085
3.9973296711680604
3.9050125886930522
3.1233946237379517
2.298695353627811
3.6219068691030203
3.9296304773530633
3.837313394878028
3.9173215330230438
3.9973296711680604
3.9604028381780574
3.8988581165280416
3.8680857557030492
4.009638615498079
3.9788662546730578
3.9419394216830552
3.8188499783830263
4.243508557768089
4.415833778388112
4.095801225808078
3.7757686732280415
4.003484143333068
3.9788662546730578
3.9788662546730578
3.8126955062180454
3.9665573103430654
4.077337809313075
4.077337809313075
3.8496223392080475
3.8988581165280416
4.101955697973087
3.8619312835380395
3.504971897968001
3.7942320897230433
4.021947559828071
4.101955697973087
3.874240227868059
3.7265328959080186
4.0465654484880815
4.009638615498079
3.9727117825080476
3.837313394878028
3.9665573103430654
4.009638615498079
3.7942320897230433
3.886549172198051
3.8988581165280416
3.9973296711680604
3.874240227868059
3.9111670608580615
3.837313394878028
4.058874392818074
3.8065410340530352
3.886549172198051
3.7942320897230433
3.9542483660130467
3.9665573103430654
3.8434678670430373
3.75115078456803
4.0465654484880815
3.855776811373057
4.145037003128072
3.9050125886930522
3.8496223392080475
3.9604028381780574
3.9050125886930522
3.9050125886930522
3.9357849495180455
3.9911751990030497
3.9604028381780574
3.886549172198051
3.7696142010630322
3.9973296711680604
4.0465654484880815
4.489687444368147
3.9665573103430654
3.8188499783830263
3.9973296711680604
3.8803947000330408
3.837313394878028
3.831158922713046
4.034256504158063
4.083492281478085
3.9234760051880535
3.7080694794130173
4.015793087663061
3.9173215330230438
3.8434678670430373
3.0310775412629165
3.640370285598021
3.9173215330230438
4.034256504158063
3.781923145393024
3.8988581165280416
3.9911751990030497
3.9234760051880535
3.837313394878028
3.9296304773530633
4.0465654484880815
4.028102031993082
3.800386561888025
3.8927036443630603
4.754329747463175
4.243508557768089
3.9111670608580615
3.8065410340530352
4.083492281478085
4.065028864983084
3.855776811373057
3.781923145393024
3.9419394216830552
3.9911751990030497
3.8680857557030492
3.855776811373057
3.874240227868059
3.9911751990030497
3.2280206505429514
3.529589786627985
4.305053279418103
5.234378576333243
4.077337809313075
3.9727117825080476
3.48035400930799
2.4156303247628297
3.363419038172971
3.8803947000330408
3.75115078456803
3.9542483660130467
3.9973296711680604
3.8988581165280416
3.9357849495180455
3.874240227868059
3.9296304773530633
3.9665573103430654
3.886549172198051
3.7757686732280415
3.9973296711680604
3.948093893848065
3.9604028381780574
3.8126955062180454
3.9911751990030497
3.9727117825080476
3.9050125886930522
3.8065410340530352
3.9542483660130467
3.9542483660130467
3.9911751990030497
3.8803947000330408
3.8803947000330408
3.9973296711680604
3.9604028381780574
3.874240227868059
3.831158922713046
4.021947559828071
4.034256504158063
3.831158922713046
3.720378423743037
4.108110170138069
4.557386638183142
4.329671168078114
3.855776811373057
3.9727117825080476
4.028102031993082
3.9173215330230438
3.8803947000330408
3.9050125886930522
4.028102031993082
3.948093893848065
3.874240227868059
3.781923145393024
4.009638615498079
4.009638615498079
3.48035400930799
3.277256427862973
3.8803947000330408
4.015793087663061
3.9788662546730578
3.831158922713046
3.874240227868059
4.015793087663061
3.9850207268380675
3.7942320897230433
3.652679229928013
4.37890694539811
3.9727117825080476
3.9050125886930522
4.1327280587980795
4.169654891788083
3.9173215330230438
3.9665573103430654
3.8065410340530352
3.9850207268380675
3.8988581165280416
3.9604028381780574
4.034256504158063
3.9173215330230438
3.9973296711680604
3.8988581165280416
3.8680857557030492
3.9050125886930522
4.021947559828071
3.8988581165280416
3.9973296711680604
3.7449963124030208
4.052719920653064
3.948093893848065
3.8927036443630603
3.800386561888025
4.021947559828071
3.9727117825080476
4.015793087663061
3.7757686732280415
3.9542483660130467
3.9542483660130467
3.8434678670430373
3.7080694794130173
3.8434678670430373
4.040410976323072
4.083492281478085
3.9296304773530633
3.8188499783830263
4.0465654484880815
3.9850207268380675
3.9296304773530633
3.8803947000330408
3.9665573103430654
4.003484143333068
3.8496223392080475
3.9727117825080476
4.083492281478085
4.015793087663061
3.9604028381780574
3.8496223392080475
3.8927036443630603
4.138882530963089
3.874240227868059
3.886549172198051
3.9296304773530633
3.9850207268380675
4.009638615498079
4.588158999008135
5.505175351593283
2.5694921288878514
2.7910531268278973
3.8434678670430373
3.8188499783830263
4.003484143333068
4.015793087663061
3.9788662546730578
3.9665573103430654
4.034256504158063
3.9542483660130467
3.948093893848065
3.9542483660130467
3.8496223392080475
4.003484143333068
4.0711833371480655
4.028102031993082
3.8496223392080475
3.9234760051880535
3.9788662546730578
3.9542483660130467
3.8434678670430373
3.9604028381780574
4.009638615498079
3.9973296711680604
3.948093893848065
3.8188499783830263
3.9973296711680604
3.9419394216830552
4.009638615498079
3.9173215330230438
4.034256504158063
3.9973296711680604
4.065028864983084
3.8496223392080475
4.077337809313075
4.058874392818074
3.9050125886930522
3.8927036443630603
3.9296304773530633
4.083492281478085
4.028102031993082
3.9111670608580615
3.9296304773530633
4.1942727804480935
3.9419394216830552
3.9419394216830552
3.825004450548036
4.145037003128072
4.095801225808078
3.9419394216830552
3.8680857557030492
3.9911751990030497
4.052719920653064
3.9604028381780574
3.9173215330230438
4.108110170138069
5.302077770148239
4.089646753643067
4.354289056738125
3.9604028381780574
4.052719920653064
3.9727117825080476
3.9788662546730578
3.658833702093023
2.501792935072855
3.4434271763179867
3.8188499783830263
3.8680857557030492
3.9727117825080476
3.9665573103430654
4.003484143333068
3.874240227868059
3.9357849495180455
3.9542483660130467
3.9050125886930522
3.8619312835380395
3.8680857557030492
4.034256504158063
3.9727117825080476
3.8927036443630603
3.763459728898022
3.9665573103430654
3.9542483660130467
3.9173215330230438
3.825004450548036
3.9727117825080476
3.9788662546730578
3.9727117825080476
3.825004450548036
3.8927036443630603
3.9973296711680604
3.9234760051880535
3.855776811373057
3.8803947000330408
4.0465654484880815
3.855776811373057
4.052719920653064
3.8988581165280416
4.163500419623101
4.6435492484931675
4.261971974263091
3.886549172198051
3.9973296711680604
4.021947559828071
3.9604028381780574
3.9357849495180455
3.9542483660130467
4.077337809313075
3.9850207268380675
3.9296304773530633
3.8803947000330408
4.034256504158063
4.003484143333068
3.234175122707961
3.48035400930799
4.0465654484880815
3.9788662546730578
3.886549172198051
3.831158922713046
4.385061417563119
4.360443528903107
5.449785102108279
3.609597924773
3.8803947000330408
4.034256504158063
3.9727117825080476
3.9727117825080476
3.8188499783830263
2.975687291777912
3.8065410340530352
3.9665573103430654
3.831158922713046
4.058874392818074
4.021947559828071
3.9850207268380675
3.9727117825080476
3.948093893848065
3.9788662546730578
3.9850207268380675
3.8927036443630603
3.8619312835380395
3.504971897968001
3.628061341268002
3.8680857557030492
3.732687368073029
4.015793087663061
3.9357849495180455
3.9419394216830552
3.825004450548036
4.052719920653064
4.009638615498079
4.028102031993082
3.781923145393024
3.9850207268380675
4.021947559828071
3.9111670608580615
3.788077617558033
3.855776811373057
4.040410976323072
4.138882530963089
3.8680857557030492
3.7757686732280415
4.120419114468088
3.9665573103430654
3.8927036443630603
3.825004450548036
4.028102031993082
4.058874392818074
3.855776811373057
3.9173215330230438
3.9911751990030497
4.040410976323072
3.9234760051880535
3.8126955062180454
3.837313394878028
4.095801225808078
3.8496223392080475
3.9604028381780574
3.825004450548036
4.028102031993082
3.9357849495180455
3.9604028381780574
3.8680857557030492
4.083492281478085
3.7142239515780275
4.249663029933098
3.8619312835380395
3.9850207268380675
4.003484143333068
3.9296304773530633
3.886549172198051
3.9357849495180455
3.9111670608580615
3.9234760051880535
3.8680857557030492
3.837313394878028
4.101955697973087
3.9111670608580615
3.9050125886930522
3.8188499783830263
3.874240227868059
4.003484143333068
3.9665573103430654
3.8988581165280416
3.9911751990030497
4.028102031993082
4.034256504158063
4.058874392818074
3.855776811373057
3.9788662546730578
3.886549172198051
4.0465654484880815
3.8988581165280416
4.052719920653064
3.9911751990030497
3.9788662546730578
3.763459728898022
4.028102031993082
4.028102031993082
3.9050125886930522
3.855776811373057
3.9727117825080476
4.089646753643067
3.874240227868059
3.800386561888025
3.8988581165280416
4.034256504158063
3.9604028381780574
3.886549172198051
3.855776811373057
4.058874392818074
3.9850207268380675
3.8680857557030492
3.788077617558033
4.009638615498079
3.9850207268380675
3.9727117825080476
3.831158922713046
3.9850207268380675
4.077337809313075
3.9234760051880535
3.8803947000330408
4.575850054678144
5.726736349533301
3.677297118588024
3.8927036443630603
3.5665166196180156
2.4894839907428636
3.4557361206479786
3.9050125886930522
3.874240227868059
4.003484143333068
4.052719920653064
3.9973296711680604
3.9419394216830552
3.9357849495180455
4.003484143333068
3.9234760051880535
3.9111670608580615
3.9050125886930522
4.058874392818074
3.9973296711680604
3.9111670608580615
3.7080694794130173
3.9850207268380675
3.9173215330230438
3.9050125886930522
3.7942320897230433
4.083492281478085
3.9911751990030497
3.9911751990030497
3.8988581165280416
3.9419394216830552
4.095801225808078
3.9665573103430654
3.8496223392080475
3.8496223392080475
4.034256504158063
4.0711833371480655
3.9665573103430654
3.788077617558033
4.065028864983084
4.1327280587980795
3.9419394216830552
3.874240227868059
3.9665573103430654
3.9604028381780574
3.9050125886930522
3.8496223392080475
3.9850207268380675
4.0465654484880815
3.9111670608580615
3.886549172198051
3.8803947000330408
4.058874392818074
4.009638615498079
3.677297118588024
3.738841840238039
4.028102031993082
3.9050125886930522
3.9173215330230438
3.788077617558033
4.809719996948181
3.6219068691030203
3.609597924773
3.671142646423015
3.6896060629180156
4.348134584573115
4.003484143333068
3.9727117825080476
4.458915083543125
4.249663029933098
4.003484143333068
3.9357849495180455
3.7942320897230433
4.077337809313075
4.003484143333068
3.9727117825080476
3.9357849495180455
3.9296304773530633
4.0465654484880815
3.9665573103430654
3.8680857557030492
3.9357849495180455
3.591134508277999
3.8126955062180454
3.9050125886930522
3.7265328959080186
3.9788662546730578
3.9111670608580615
3.9173215330230438
3.831158922713046
4.058874392818074
3.9173215330230438
3.9973296711680604
3.800386561888025
3.9665573103430654
4.003484143333068
3.825004450548036
3.763459728898022
3.9727117825080476
4.021947559828071
4.058874392818074
3.825004450548036
3.855776811373057
4.077337809313075
4.009638615498079
3.948093893848065
3.8803947000330408
4.101955697973087
4.0465654484880815
3.788077617558033
4.1327280587980795
4.077337809313075
4.028102031993082
3.9727117825080476
3.874240227868059
3.9357849495180455
4.231199613438097
3.8927036443630603
3.8927036443630603
3.8680857557030492
4.12657358663307
3.9542483660130467
4.483532972203136
5.123598077363234
2.871061264972913
2.83413443198291
3.8496223392080475
3.855776811373057
4.015793087663061
3.9604028381780574
4.003484143333068
3.8803947000330408
4.902037079423188
4.329671168078114
4.606622415503137
3.9788662546730578
3.8188499783830263
4.12657358663307
4.120419114468088
3.9050125886930522
2.4587116299178424
3.154166984562945
3.9542483660130467
3.9234760051880535
3.8680857557030492
3.9973296711680604
4.003484143333068
3.9850207268380675
3.9173215330230438
3.781923145393024
3.9973296711680604
3.9788662546730578
3.8434678670430373
3.732687368073029
4.052719920653064
3.9911751990030497
4.015793087663061
3.831158922713046
4.009638615498079
3.9234760051880535
3.9727117825080476
3.800386561888025
3.9542483660130467
4.034256504158063
3.9665573103430654
3.8434678670430373
3.9419394216830552
3.9604028381780574
3.9419394216830552
3.9050125886930522
3.8803947000330408
4.058874392818074
3.9727117825080476
3.8803947000330408
3.8065410340530352
4.077337809313075
3.9727117825080476
3.8803947000330408
3.788077617558033
4.028102031993082
4.2865898629231
3.9604028381780574
3.8188499783830263
3.8680857557030492
4.015793087663061
3.9173215330230438
3.8619312835380395
3.8126955062180454
4.028102031993082
3.9234760051880535
3.9604028381780574
3.8126955062180454
3.9850207268380675
3.8988581165280416
4.2065817247780855
3.9788662546730578
3.9419394216830552
4.2065817247780855
3.9357849495180455
3.855776811373057
3.8680857557030492
4.015793087663061
3.9419394216830552
3.9050125886930522
3.9296304773530633
3.948093893848065
3.886549172198051
3.8434678670430373
3.4988174258029914
3.4434271763179867
3.9111670608580615
3.9357849495180455
3.7265328959080186
3.855776811373057
3.9911751990030497
3.9111670608580615
3.825004450548036
3.855776811373057
3.9850207268380675
3.9173215330230438
3.8496223392080475
3.7696142010630322
4.077337809313075
3.9419394216830552
3.8434678670430373
3.825004450548036
4.021947559828071
3.9727117825080476
3.9296304773530633
3.781923145393024
3.9665573103430654
3.9727117825080476
3.9357849495180455
3.855776811373057
3.837313394878028
3.9296304773530633
4.089646753643067
4.138882530963089
3.9050125886930522
4.052719920653064
3.9173215330230438
3.9850207268380675
3.837313394878028
4.895882607258178
4.292744335088111
5.295923297983257
3.5849800361130173
3.9973296711680604
3.9850207268380675
3.9604028381780574
3.9911751990030497
3.0987767350779407
2.501792935072855
3.8065410340530352
3.9111670608580615
3.874240227868059
4.101955697973087
3.9973296711680604
3.9665573103430654
3.855776811373057
3.9604028381780574
3.9111670608580615
3.9604028381780574
3.825004450548036
4.2065817247780855
4.6435492484931675
4.108110170138069
3.9973296711680604
3.886549172198051
4.058874392818074
3.9665573103430654
3.9727117825080476
3.8619312835380395
4.077337809313075
3.9727117825080476
4.077337809313075
3.732687368073029
3.9665573103430654
3.8434678670430373
3.4126548154929934
3.652679229928013
3.9542483660130467
4.034256504158063
4.034256504158063
3.7942320897230433
3.8065410340530352
4.077337809313075
4.021947559828071
3.855776811373057
3.7942320897230433
4.0465654484880815
3.9850207268380675
3.874240227868059
4.015793087663061
3.9973296711680604
3.9911751990030497
3.948093893848065
3.788077617558033
3.886549172198051
4.0711833371480655
3.800386561888025
3.825004450548036
3.8126955062180454
4.058874392818074
3.9111670608580615
3.8680857557030492
3.788077617558033
3.8803947000330408
3.628061341268002
4.231199613438097
3.855776811373057
3.9296304773530633
3.9604028381780574
3.9296304773530633
3.8927036443630603
4.015793087663061
3.948093893848065
3.8988581165280416
3.874240227868059
3.8126955062180454
4.0711833371480655
3.9173215330230438
3.8803947000330408
3.8496223392080475
3.9788662546730578
3.9788662546730578
3.9850207268380675
3.8126955062180454
4.015793087663061
3.9911751990030497
3.9727117825080476
3.8803947000330408
3.837313394878028
3.9542483660130467
3.9604028381780574
3.886549172198051
3.825004450548036
4.034256504158063
3.9419394216830552
3.8927036443630603
3.695760535083026
3.9850207268380675
3.9665573103430654
3.9357849495180455
3.8126955062180454
4.003484143333068
4.0711833371480655
4.015793087663061
3.825004450548036
3.9234760051880535
3.9727117825080476
3.9419394216830552
3.948093893848065
3.9050125886930522
4.052719920653064
3.9542483660130467
3.886549172198051
3.8496223392080475
4.034256504158063
3.9911751990030497
3.9111670608580615
3.8619312835380395
4.0711833371480655
3.9911751990030497
3.837313394878028
3.7449963124030208
4.649703720658149
5.720581877368319
3.7080694794130173
3.8680857557030492
3.6649881742580046
2.471020574247862
3.4988174258029914
3.8988581165280416
3.781923145393024
3.9542483660130467
3.9727117825080476
4.021947559828071
3.9050125886930522
4.015793087663061
3.9727117825080476
3.9419394216830552
3.8619312835380395
3.9542483660130467
3.9850207268380675
3.9357849495180455
3.8496223392080475
3.855776811373057
3.9727117825080476
3.9604028381780574
3.9727117825080476
4.163500419623101
4.27428091859311
3.9542483660130467
4.028102031993082
3.8496223392080475
3.948093893848065
3.9604028381780574
3.9788662546730578
3.837313394878028
3.9357849495180455
4.0465654484880815
4.021947559828071
3.8680857557030492
3.8188499783830263
3.763459728898022
3.671142646423015
3.886549172198051
3.763459728898022
4.034256504158063
4.003484143333068
3.9911751990030497
3.7696142010630322
3.9850207268380675
4.040410976323072
3.9357849495180455
3.8619312835380395
3.8927036443630603
3.9850207268380675
4.089646753643067
3.8803947000330408
3.8188499783830263
4.040410976323072
3.9665573103430654
3.9727117825080476
3.8126955062180454
4.877419190763177
3.5234353144630024
3.4988174258029914
3.7449963124030208
3.75115078456803
4.348134584573115
3.9788662546730578
3.9542483660130467
4.0711833371480655
3.9973296711680604
3.948093893848065
3.9050125886930522
3.9173215330230438
4.0465654484880815
3.9542483660130467
3.9419394216830552
3.9296304773530633
3.9973296711680604
3.9788662546730578
3.8988581165280416
3.831158922713046
4.015793087663061
4.009638615498079
3.9542483660130467
4.840492357773174
5.345159075303252
3.7942320897230433
4.003484143333068
3.9111670608580615
3.855776811373057
4.095801225808078
3.9604028381780574
3.0372320134279267
2.4402482134228407
3.8803947000330408
3.9665573103430654
3.800386561888025
3.738841840238039
3.9542483660130467
4.0465654484880815
4.065028864983084
3.8434678670430373
3.8496223392080475
4.0465654484880815
3.9727117825080476
3.9111670608580615
3.825004450548036
4.065028864983084
4.1758093639530935
3.9111670608580615
3.8803947000330408
4.065028864983084
4.003484143333068
3.886549172198051
3.8496223392080475
3.9604028381780574
4.1942727804480935
3.825004450548036
3.8434678670430373
3.9111670608580615
4.077337809313075
3.9850207268380675
4.54507769385315
5.535947712418277
2.7171994608478913
2.9633783474479203
3.800386561888025
3.8188499783830263
4.052719920653064
3.9604028381780574
3.948093893848065
3.8126955062180454
3.9911751990030497
3.9911751990030497
3.9296304773530633
3.8065410340530352
3.837313394878028
4.040410976323072
3.837313394878028
3.886549172198051
3.9111670608580615
3.9727117825080476
3.9357849495180455
3.9111670608580615
3.75730525673304
4.009638615498079
3.9850207268380675
3.9973296711680604
3.8619312835380395
3.8680857557030492
4.003484143333068
3.9604028381780574
3.8988581165280416
3.8188499783830263
4.065028864983084
4.015793087663061
3.9234760051880535
3.695760535083026
4.034256504158063
3.9111670608580615
3.9050125886930522
3.7696142010630322
4.034256504158063
4.052719920653064
3.9234760051880535
3.9173215330230438
4.514305333028129
4.108110170138069
4.003484143333068
3.9050125886930522
3.8988581165280416
4.101955697973087
3.9727117825080476
3.8927036443630603
3.763459728898022
4.0711833371480655
3.9788662546730578
3.9357849495180455
3.800386561888025
4.015793087663061
4.003484143333068
3.7757686732280415
3.788077617558033
3.9542483660130467
3.9973296711680604
3.8803947000330408
3.658833702093023
4.2065817247780855
4.077337809313075
3.9234760051880535
3.9357849495180455
3.8988581165280416
4.058874392818074
3.9111670608580615
3.363419038172971
3.677297118588024
4.0711833371480655
4.040410976323072
3.9419394216830552
3.7757686732280415
3.9665573103430654
4.040410976323072
3.9419394216830552
3.9850207268380675
3.9234760051880535
4.052719920653064
3.9111670608580615
4.015793087663061
4.40967930622313
4.298898807253093
4.028102031993082
4.015793087663061
3.837313394878028
4.028102031993082
3.9911751990030497
3.9727117825080476
3.8619312835380395
3.9542483660130467
3.9973296711680604
3.9850207268380675
3.837313394878028
3.788077617558033
3.548053203123014
3.5849800361130173
3.8619312835380395
3.825004450548036
4.052719920653064
3.9234760051880535
3.8803947000330408
3.75115078456803
4.015793087663061
3.9604028381780574
3.9296304773530633
3.855776811373057
3.874240227868059
3.9911751990030497
4.095801225808078
3.9542483660130467
3.8619312835380395
4.028102031993082
3.9357849495180455
3.9111670608580615
3.7757686732280415
4.91434602375318
4.101955697973087
4.68047608148317
3.9419394216830552
4.052719920653064
3.9357849495180455
3.9357849495180455
3.7757686732280415
3.117240151572942
2.5141018794028467
3.695760535083026
3.825004450548036
3.738841840238039
4.12657358663307
3.9604028381780574
3.8988581165280416
3.874240227868059
3.9604028381780574
3.9111670608580615
3.8927036443630603
3.8188499783830263
4.54507769385315
4.341980112408105
3.9234760051880535
3.9173215330230438
3.8434678670430373
4.034256504158063
3.9173215330230438
3.8927036443630603
3.8927036443630603
3.9973296711680604
3.9234760051880535
3.9911751990030497
3.7696142010630322
3.9973296711680604
3.449581648482997
3.400345871162974
3.720378423743037
3.9665573103430654
4.0465654484880815
4.028102031993082
3.7142239515780275
3.9173215330230438
3.9665573103430654
3.948093893848065
3.8680857557030492
3.8434678670430373
4.0465654484880815
4.151191475293081
4.434297194883113
4.428142722718132
4.1327280587980795
4.021947559828071
3.9604028381780574
3.8803947000330408
4.021947559828071
4.12657358663307
3.855776811373057
3.831158922713046
3.9727117825080476
4.040410976323072
3.9111670608580615
3.8619312835380395
3.461890592812989
3.468045064977998
3.5234353144630024
4.138882530963089
3.831158922713046
3.9973296711680604
3.9234760051880535
3.9050125886930522
3.837313394878028
4.040410976323072
3.8927036443630603
3.8803947000330408
3.855776811373057
3.8680857557030492
4.12657358663307
3.9419394216830552
3.855776811373057
3.8680857557030492
3.9788662546730578
3.9911751990030497
3.9050125886930522
3.788077617558033
4.021947559828071
3.9850207268380675
3.9050125886930522
3.7757686732280415
3.9111670608580615
4.009638615498079
4.040410976323072
3.9111670608580615
3.874240227868059
4.015793087663061
3.9665573103430654
3.886549172198051
3.7142239515780275
4.009638615498079
3.9665573103430654
3.9296304773530633
3.7449963124030208
4.009638615498079
4.009638615498079
3.9911751990030497
3.9357849495180455
4.255817502098108
3.9973296711680604
3.9665573103430654
3.8619312835380395
3.9665573103430654
4.0711833371480655
3.9357849495180455
3.8927036443630603
3.8619312835380395
4.034256504158063
3.9234760051880535
3.9419394216830552
3.886549172198051
3.9234760051880535
3.6649881742580046
3.837313394878028
3.763459728898022
4.649703720658149
5.652882683553296
3.671142646423015
3.837313394878028
3.628061341268002
2.4587116299178424
3.461890592812989
3.8988581165280416
3.763459728898022
4.040410976323072
3.9727117825080476
3.800386561888025
3.763459728898022
4.0465654484880815
3.9788662546730578
3.9788662546730578
3.8680857557030492
3.9665573103430654
3.9727117825080476
4.015793087663061
3.9911751990030497
3.9604028381780574
3.9604028381780574
3.948093893848065
3.886549172198051
3.8619312835380395
3.9911751990030497
3.9419394216830552
4.003484143333068
3.8496223392080475
3.9788662546730578
3.9727117825080476
3.9604028381780574
3.8927036443630603
3.9788662546730578
3.9665573103430654
4.495841916533128
5.425167213448267
3.831158922713046
5.031280994888199
4.12657358663307
3.9542483660130467
3.9727117825080476
4.101955697973087
3.4926629536379816
2.3417766587828237
3.5665166196180156
4.065028864983084
4.003484143333068
3.9050125886930522
3.855776811373057
3.9604028381780574
3.9419394216830552
3.437272704152977
3.695760535083026
3.886549172198051
4.052719920653064
4.015793087663061
3.8803947000330408
3.825004450548036
4.92050049591819
3.4741995371429804
3.5665166196180156
3.7942320897230433
4.003484143333068
3.9604028381780574
3.8619312835380395
3.7449963124030208
4.021947559828071
3.9050125886930522
3.8803947000330408
3.9050125886930522
3.8988581165280416
4.065028864983084
3.9296304773530633
3.9234760051880535
3.9050125886930522
3.948093893848065
3.9911751990030497
3.855776811373057
3.7942320897230433
4.052719920653064
3.9604028381780574
3.9234760051880535
3.9296304773530633
3.948093893848065
4.034256504158063
3.9234760051880535
3.8065410340530352
3.886549172198051
4.058874392818074
4.040410976323072
3.9973296711680604
3.7265328959080186
4.114264642303079
4.058874392818074
3.948093893848065
3.855776811373057
4.034256504158063
3.9173215330230438
3.788077617558033
4.114264642303079
4.021947559828071
4.0465654484880815
3.9788662546730578
3.8680857557030492
3.8803947000330408
4.065028864983084
4.040410976323072
3.948093893848065
3.886549172198051
4.0465654484880815
3.9419394216830552
3.948093893848065
3.825004450548036
4.052719920653064
4.095801225808078
3.9234760051880535
3.8803947000330408
4.003484143333068
4.077337809313075
3.9788662546730578
4.37890694539811
5.068207827878203
2.994150708272913
2.9264515144579173
3.8434678670430373
3.874240227868059
4.120419114468088
3.9357849495180455
3.9727117825080476
3.8188499783830263
4.169654891788083
3.9604028381780574
3.9665573103430654
3.825004450548036
3.9973296711680604
4.54507769385315
4.397370361893111
3.9296304773530633
4.003484143333068
3.9604028381780574
3.9911751990030497
3.9050125886930522
3.8496223392080475
4.120419114468088
4.009638615498079
3.9973296711680604
4.009638615498079
3.9850207268380675
4.065028864983084
3.554207675287996
3.461890592812989
3.8496223392080475
4.009638615498079
4.003484143333068
3.9234760051880535
3.9173215330230438
4.065028864983084
3.9604028381780574
3.9296304773530633
3.874240227868059
4.015793087663061
4.003484143333068
3.9911751990030497
3.628061341268002
3.7942320897230433
3.9850207268380675
3.9234760051880535
3.855776811373057
3.837313394878028
4.021947559828071
4.003484143333068
3.8188499783830263
3.781923145393024
4.0465654484880815
3.9665573103430654
3.8680857557030492
3.732687368073029
4.249663029933098
4.114264642303079
3.800386561888025
3.763459728898022
4.028102031993082
3.9727117825080476
3.874240227868059
3.560362147453006
4.261971974263091
4.058874392818074
3.9111670608580615
3.874240227868059
3.825004450548036
4.021947559828071
4.2865898629231
4.40967930622313
3.9419394216830552
4.065028864983084
3.9357849495180455
3.9727117825080476
3.837313394878028
4.021947559828071
3.9850207268380675
3.9357849495180455
3.9111670608580615
3.9542483660130467
4.034256504158063
3.9173215330230438
3.6034434526080172
3.2280206505429514
3.9542483660130467
3.9604028381780574
3.948093893848065
3.8126955062180454
3.9973296711680604
3.9111670608580615
3.9296304773530633
3.7696142010630322
3.9234760051880535
3.9604028381780574
3.9173215330230438
3.8188499783830263
3.9357849495180455
4.151191475293081
3.9357849495180455
3.8496223392080475
3.788077617558033
4.028102031993082
3.948093893848065
3.8927036443630603
3.720378423743037
4.034256504158063
3.948093893848065
3.8619312835380395
3.837313394878028
3.9850207268380675
3.9296304773530633
3.837313394878028
3.8188499783830263
3.8927036443630603
4.009638615498079
3.9604028381780574
3.886549172198051
3.8126955062180454
4.8651102464331855
4.12657358663307
4.81587446911319
3.948093893848065
4.034256504158063
4.003484143333068
3.9173215330230438
3.8188499783830263
3.258793011367972
2.495638462907845
3.6896060629180156
3.8126955062180454
3.886549172198051
3.9604028381780574
3.948093893848065
3.8126955062180454
3.886549172198051
3.831158922713046
3.9111670608580615
3.9050125886930522
3.948093893848065
4.6004679433381535
4.052719920653064
3.9234760051880535
3.8496223392080475
3.781923145393024
3.9665573103430654
3.886549172198051
3.825004450548036
3.9050125886930522
3.9911751990030497
3.8988581165280416
4.015793087663061
3.825004450548036
3.8496223392080475
3.2957198443579747
3.6896060629180156
3.8126955062180454
3.9665573103430654
3.9357849495180455
4.077337809313075
3.825004450548036
3.855776811373057
3.9604028381780574
3.874240227868059
3.825004450548036
3.9111670608580615
3.9911751990030497
4.089646753643067
3.8434678670430373
3.7449963124030208
4.021947559828071
3.8988581165280416
3.9111670608580615
3.738841840238039
3.9973296711680604
4.114264642303079
3.800386561888025
3.7449963124030208
3.9419394216830552
3.9911751990030497
3.9788662546730578
3.9357849495180455
3.9357849495180455
4.065028864983084
3.634215813433012
4.200427252613103
3.8988581165280416
4.058874392818074
3.9419394216830552
3.9050125886930522
3.7942320897230433
4.145037003128072
3.8496223392080475
3.886549172198051
3.75115078456803
3.9234760051880535
4.243508557768089
4.009638615498079
3.8680857557030492
3.948093893848065
3.9419394216830552
3.9234760051880535
3.8434678670430373
3.800386561888025
4.077337809313075
3.9234760051880535
3.9542483660130467
3.9173215330230438
3.8927036443630603
3.9296304773530633
3.6465247577630033
3.652679229928013
3.9173215330230438
4.0465654484880815
3.948093893848065
3.831158922713046
3.8126955062180454
4.083492281478085
3.948093893848065
3.9234760051880535
3.8188499783830263
4.0711833371480655
4.052719920653064
3.9973296711680604
3.9111670608580615
4.028102031993082
4.015793087663061
3.9542483660130467
3.781923145393024
3.9788662546730578
4.237354085603107
5.9975331247933426
3.837313394878028
3.8126955062180454
4.028102031993082
3.9727117825080476
3.8126955062180454
3.825004450548036
4.452760611378115
2.729508405177883
3.3880369268329824
3.738841840238039
4.686630553648152
5.622110322728302
3.7080694794130173
3.8126955062180454
3.720378423743037
2.298695353627811
3.375727982502963
3.855776811373057
3.9050125886930522
3.9850207268380675
3.332646677347978
3.4311182319879947
3.7942320897230433
3.9419394216830552
3.8434678670430373
3.9604028381780574
3.788077617558033
3.9111670608580615
3.9727117825080476
3.9665573103430654
3.8619312835380395
3.9111670608580615
3.9727117825080476
3.9173215330230438
3.9111670608580615
3.8065410340530352
3.9788662546730578
3.886549172198051
3.874240227868059
3.788077617558033
3.9296304773530633
3.9419394216830552
3.9111670608580615
3.7757686732280415
3.9788662546730578
3.9234760051880535
4.021947559828071
3.7696142010630322
4.188118308283084
4.1942727804480935
3.886549172198051
3.8619312835380395
3.8803947000330408
4.040410976323072
3.9850207268380675
3.8803947000330408
3.701915007248036
4.0711833371480655
3.9788662546730578
3.9419394216830552
3.788077617558033
3.9850207268380675
3.825004450548036
3.886549172198051
3.8065410340530352
3.9604028381780574
4.015793087663061
3.9604028381780574
3.8803947000330408
3.75730525673304
4.91434602375318
3.541898730958004
3.504971897968001
3.6465247577630033
3.800386561888025
4.2681264464281
3.9973296711680604
3.7080694794130173
4.052719920653064
3.9419394216830552
3.9173215330230438
3.8065410340530352
3.9111670608580615
4.021947559828071
3.8496223392080475
3.9050125886930522
3.9173215330230438
3.9111670608580615
3.9296304773530633
3.9542483660130467
4.0465654484880815
4.329671168078114
3.9788662546730578
3.9727117825080476
3.9357849495180455
3.9665573103430654
3.9234760051880535
3.9542483660130467
3.8065410340530352
3.9296304773530633
4.065028864983084
3.8927036443630603
3.9111670608580615
3.8126955062180454
3.7942320897230433
3.5665166196180156
3.7696142010630322
3.732687368073029
4.028102031993082
3.9296304773530633
3.9419394216830552
3.695760535083026
3.9234760051880535
3.9173215330230438
3.855776811373057
3.701915007248036
3.8434678670430373
4.028102031993082
4.021947559828071
3.529589786627985
3.7265328959080186
3.9788662546730578
3.9050125886930522
3.9050125886930522
3.695760535083026
3.9173215330230438
3.9973296711680604
3.8188499783830263
3.732687368073029
3.8803947000330408
3.9542483660130467
3.8988581165280416
4.5943134711731455
5.806744487678317
2.471020574247862
2.778744182497905
3.75730525673304
3.7080694794130173
3.9296304773530633
3.8927036443630603
3.831158922713046
3.7265328959080186
4.101955697973087
3.7942320897230433
3.825004450548036
3.7080694794130173
3.831158922713046
3.732687368073029
3.763459728898022
3.7757686732280415
3.8434678670430373
3.837313394878028
3.8188499783830263
3.7449963124030208
3.7449963124030208
3.9911751990030497
3.8803947000330408
3.8619312835380395
3.7080694794130173
3.9111670608580615
4.0465654484880815
4.452760611378115
3.8434678670430373
3.9419394216830552
3.9665573103430654
3.9296304773530633
3.9050125886930522
3.8434678670430373
4.058874392818074
3.831158922713046
3.8496223392080475
3.8188499783830263
3.9911751990030497
3.9050125886930522
3.732687368073029
3.006459652602933
3.7942320897230433
3.855776811373057
3.732687368073029
3.7142239515780275
3.9234760051880535
3.9542483660130467
3.8988581165280416
3.658833702093023
3.800386561888025
3.9296304773530633
3.825004450548036
3.695760535083026
3.9542483660130467
4.877419190763177
4.138882530963089
3.831158922713046
3.7757686732280415
3.9727117825080476
3.9542483660130467
3.738841840238039
3.461890592812989
4.212736196943095
4.015793087663061
3.788077617558033
3.8126955062180454
3.8126955062180454
3.886549172198051
3.215711706212959
3.591134508277999
3.7696142010630322
3.9665573103430654
3.855776811373057
3.8680857557030492
3.738841840238039
3.9296304773530633
3.9357849495180455
3.886549172198051
3.7449963124030208
3.8619312835380395
3.8680857557030492
3.948093893848065
4.446606139213133
4.114264642303079
3.9542483660130467
3.8988581165280416
3.8988581165280416
3.7942320897230433
3.9542483660130467
3.8988581165280416
3.874240227868059
3.7942320897230433
3.9357849495180455
3.9604028381780574
3.9234760051880535
3.7265328959080186
3.1110856794079322
3.591134508277999
3.8496223392080475
3.75115078456803
3.8680857557030492
3.9173215330230438
3.9050125886930522
3.738841840238039
3.7142239515780275
3.9788662546730578
3.8927036443630603
3.8680857557030492
3.7757686732280415
4.015793087663061
4.618931359833156
4.27428091859311
3.8188499783830263
3.9173215330230438
3.9604028381780574
3.9111670608580615
3.800386561888025
3.831158922713046
4.883573662928187
4.1327280587980795
5.068207827878203
3.548053203123014
3.9357849495180455
3.8803947000330408
3.3880369268329824
3.4126548154929934
3.2403295948729705
2.4648661020828517
3.6834515907530063
3.7696142010630322
3.9296304773530633
3.9357849495180455
3.8434678670430373
3.7757686732280415
3.9234760051880535
3.948093893848065
3.8434678670430373
3.8803947000330408
3.8619312835380395
3.948093893848065
3.8988581165280416
3.837313394878028
3.7696142010630322
3.9296304773530633
3.8988581165280416
3.8434678670430373
3.7265328959080186
3.9234760051880535
3.9665573103430654
3.8988581165280416
3.8065410340530352
3.7142239515780275
3.8927036443630603
3.738841840238039
3.8188499783830263
3.75115078456803
3.9357849495180455
3.874240227868059
3.9604028381780574
3.652679229928013
3.9727117825080476
3.8619312835380395
3.7757686732280415
3.7080694794130173
3.9234760051880535
3.9604028381780574
4.138882530963089
3.7265328959080186
3.781923145393024
3.9973296711680604
3.7942320897230433
3.788077617558033
3.720378423743037
3.8988581165280416
3.9973296711680604
3.738841840238039
3.61575239693801
3.8927036443630603
3.8803947000330408
3.825004450548036
3.732687368073029
3.9050125886930522
5.228224104168233
4.354289056738125
3.9727117825080476
3.9234760051880535
3.9727117825080476
3.9173215330230438
3.831158922713046
3.6465247577630033
2.661809211362886
2.932605986622927
3.7942320897230433
3.695760535083026
3.9234760051880535
3.75730525673304
3.8680857557030492
3.8188499783830263
3.8803947000330408
3.8680857557030492
3.800386561888025
3.8434678670430373
3.831158922713046
3.9357849495180455
3.874240227868059
3.8803947000330408
3.8434678670430373
3.948093893848065
3.8680857557030492
3.738841840238039
3.75115078456803
3.9850207268380675
3.8803947000330408
3.831158922713046
3.720378423743037
3.8126955062180454
3.886549172198051
3.8188499783830263
3.8188499783830263
3.831158922713046
3.9357849495180455
3.8927036443630603
3.9604028381780574
3.701915007248036
3.9419394216830552
3.8927036443630603
3.8619312835380395
3.6834515907530063
3.9419394216830552
3.9173215330230438
3.8680857557030492
3.640370285598021
3.8619312835380395
4.003484143333068
3.8803947000330408
3.7942320897230433
3.8680857557030492
4.305053279418103
3.9973296711680604
3.7757686732280415
3.781923145393024
4.6435492484931675
5.535947712418277
3.640370285598021
3.671142646423015
3.677297118588024
2.378703491772827
3.35111009384298
3.738841840238039
3.8496223392080475
3.9234760051880535
3.609597924773
3.695760535083026
3.7449963124030208
3.9973296711680604
3.7449963124030208
3.75730525673304
3.720378423743037
4.009638615498079
3.8680857557030492
3.763459728898022
3.738841840238039
3.9111670608580615
3.855776811373057
3.8434678670430373
3.609597924773
3.7265328959080186
3.9234760051880535
3.837313394878028
3.855776811373057
3.695760535083026
3.886549172198051
3.831158922713046
3.855776811373057
3.732687368073029
3.9296304773530633
3.8188499783830263
3.8803947000330408
3.788077617558033
4.003484143333068
3.9050125886930522
3.8126955062180454
3.7757686732280415
3.8803947000330408
3.9296304773530633
3.8619312835380395
3.8126955062180454
3.781923145393024
4.003484143333068
3.9111670608580615
3.7757686732280415
3.75730525673304
3.9850207268380675
3.8496223392080475
3.8927036443630603
3.6649881742580046
3.9604028381780574
3.9296304773530633
3.8496223392080475
3.7942320897230433
3.8434678670430373
4.077337809313075
3.8188499783830263
3.788077617558033
3.738841840238039
3.7265328959080186
4.237354085603107
4.2681264464281
3.855776811373057
4.052719920653064
3.837313394878028
3.825004450548036
3.732687368073029
3.9111670608580615
3.8927036443630603
3.8496223392080475
3.7942320897230433
3.9604028381780574
3.8927036443630603
3.874240227868059
3.8496223392080475
3.486508481473
3.8434678670430373
3.8065410340530352
3.8188499783830263
3.8496223392080475
3.9604028381780574
3.9050125886930522
3.8680857557030492
3.720378423743037
3.8803947000330408
3.9604028381780574
3.8927036443630603
3.8927036443630603
3.837313394878028
3.948093893848065
3.831158922713046
3.8065410340530352
3.7942320897230433
3.9542483660130467
3.886549172198051
4.003484143333068
3.7080694794130173
3.948093893848065
3.8988581165280416
3.8803947000330408
3.7696142010630322
3.9296304773530633
3.9665573103430654
3.9973296711680604
3.652679229928013
3.763459728898022
3.9911751990030497
3.948093893848065
3.825004450548036
3.7942320897230433
4.003484143333068
3.9727117825080476
3.75115078456803
3.7142239515780275
3.9296304773530633
3.8988581165280416
3.8803947000330408
4.514305333028129
5.529793240253267
2.4648661020828517
2.778744182497905
3.7142239515780275
3.825004450548036
3.9173215330230438
3.8619312835380395
3.7757686732280415
3.7142239515780275
4.028102031993082
3.886549172198051
3.8434678670430373
3.7265328959080186
4.108110170138069
3.9357849495180455
3.8126955062180454
3.732687368073029
4.009638615498079
3.8803947000330408
3.8496223392080475
3.781923145393024
3.855776811373057
3.9911751990030497
3.825004450548036
3.800386561888025
3.7265328959080186
3.855776811373057
3.720378423743037
3.548053203123014
3.701915007248036
3.9173215330230438
3.8988581165280416
3.8803947000330408
3.7080694794130173
3.831158922713046
3.9111670608580615
3.825004450548036
3.738841840238039
3.781923145393024
3.9419394216830552
3.8927036443630603
4.397370361893111
4.218890669108104
4.003484143333068
3.886549172198051
3.855776811373057
3.7142239515780275
3.9911751990030497
4.021947559828071
3.9973296711680604
3.695760535083026
3.9727117825080476
3.9542483660130467
3.8065410340530352
3.781923145393024
3.400345871162974
3.4926629536379816
3.8496223392080475
3.7080694794130173
3.7265328959080186
3.9173215330230438
3.9911751990030497
3.671142646423015
3.486508481473
4.329671168078114
3.8680857557030492
3.855776811373057
3.732687368073029
3.874240227868059
4.101955697973087
4.0465654484880815
3.7757686732280415
3.9050125886930522
3.9357849495180455
3.8619312835380395
3.75730525673304
3.8065410340530352
3.9419394216830552
3.8988581165280416
3.9111670608580615
3.738841840238039
3.9419394216830552
3.874240227868059
3.695760535083026
3.511126370132983
3.763459728898022
3.8988581165280416
3.825004450548036
3.8680857557030492
3.7696142010630322
3.886549172198051
3.8188499783830263
3.837313394878028
3.75730525673304
4.009638615498079
3.8496223392080475
3.825004450548036
3.9911751990030497
4.37890694539811
3.9604028381780574
3.8619312835380395
3.7265328959080186
3.9296304773530633
3.9296304773530633
3.8434678670430373
3.800386561888025
3.763459728898022
4.034256504158063
3.855776811373057
3.781923145393024
3.6896060629180156
3.9911751990030497
3.781923145393024
3.8803947000330408
3.8188499783830263
3.9111670608580615
3.9050125886930522
3.9296304773530633
3.738841840238039
3.855776811373057
4.058874392818074
4.5820045268431535
5.394394852623274
3.609597924773
3.9850207268380675
3.8619312835380395
3.61575239693801
3.701915007248036
3.3203377330179586
2.4279392690928487
3.6896060629180156
3.720378423743037
3.9850207268380675
3.948093893848065
3.8496223392080475
3.8126955062180454
4.7420208031331565
5.166679382518219
3.732687368073029
3.9727117825080476
3.720378423743037
3.9911751990030497
3.9111670608580615
3.8188499783830263
2.8402889041478923
2.704890516517872
3.732687368073029
3.855776811373057
3.7142239515780275
3.9788662546730578
3.886549172198051
3.831158922713046
3.9050125886930522
3.831158922713046
3.9604028381780574
3.8619312835380395
3.75730525673304
3.831158922713046
3.9542483660130467
3.8188499783830263
3.9296304773530633
3.677297118588024
3.9296304773530633
3.8619312835380395
3.8434678670430373
3.7142239515780275
3.9173215330230438
3.9234760051880535
3.9542483660130467
3.701915007248036
3.9111670608580615
3.9234760051880535
3.825004450548036
3.781923145393024
3.8065410340530352
4.015793087663061
4.003484143333068
3.732687368073029
3.695760535083026
4.003484143333068
3.8927036443630603
3.8680857557030492
3.7142239515780275
3.9173215330230438
3.9727117825080476
3.781923145393024
3.763459728898022
3.8680857557030492
3.9542483660130467
3.8496223392080475
3.7449963124030208
3.75730525673304
4.089646753643067
3.8619312835380395
3.7757686732280415
3.7696142010630322
4.575850054678144
4.188118308283084
3.874240227868059
3.634215813433012
3.75115078456803
4.163500419623101
3.9234760051880535
3.800386561888025
3.800386561888025
3.9050125886930522
3.8126955062180454
3.788077617558033
3.831158922713046
3.8065410340530352
3.35111009384298
3.529589786627985
3.652679229928013
4.015793087663061
3.874240227868059
3.825004450548036
3.738841840238039
3.855776811373057
3.9173215330230438
3.8496223392080475
3.831158922713046
3.8496223392080475
3.9111670608580615
3.9173215330230438
3.874240227868059
3.7696142010630322
4.009638615498079
3.9296304773530633
3.8065410340530352
3.7696142010630322
3.9850207268380675
3.9604028381780574
3.9419394216830552
3.6834515907530063
3.8927036443630603
3.9850207268380675
3.8927036443630603
3.75730525673304
3.7696142010630322
3.9542483660130467
3.874240227868059
3.8126955062180454
3.75115078456803
4.477378500038126
5.178988326848239
4.052719920653064
3.7696142010630322
3.738841840238039
2.2740774649678275
3.406500343327984
3.732687368073029
3.9973296711680604
4.618931359833156
4.360443528903107
3.825004450548036
3.9788662546730578
4.052719920653064
3.9296304773530633
3.874240227868059
3.8188499783830263
4.021947559828071
3.9727117825080476
3.8988581165280416
3.8126955062180454
4.015793087663061
3.8927036443630603
3.3203377330179586
3.221866178377941
3.825004450548036
3.9419394216830552
3.9234760051880535
3.8927036443630603
3.8619312835380395
3.9050125886930522
3.8680857557030492
3.8496223392080475
3.825004450548036
3.9604028381780574
3.9173215330230438
3.8927036443630603
4.003484143333068
4.169654891788083
3.9419394216830552
3.874240227868059
3.7696142010630322
3.9296304773530633
4.003484143333068
3.9173215330230438
3.7942320897230433
3.874240227868059
3.9911751990030497
3.8496223392080475
3.8126955062180454
3.7757686732280415
3.75115078456803
3.5172808422979926
3.7942320897230433
3.732687368073029
4.003484143333068
3.8680857557030492
3.8619312835380395
3.677297118588024
3.9173215330230438
3.9911751990030497
3.8434678670430373
3.788077617558033
3.763459728898022
3.671142646423015
4.335825640243124
4.108110170138069
3.800386561888025
4.052719920653064
3.8434678670430373
3.788077617558033
3.75730525673304
3.9973296711680604
3.8496223392080475
3.9665573103430654
3.738841840238039
4.034256504158063
3.8988581165280416
3.831158922713046
4.0711833371480655
4.138882530963089
3.9604028381780574
3.8619312835380395
3.800386561888025
3.825004450548036
3.9173215330230438
3.800386561888025
3.8496223392080475
3.7696142010630322
3.9727117825080476
3.8927036443630603
3.9173215330230438
3.8988581165280416
3.7942320897230433
3.75115078456803
3.781923145393024
3.781923145393024
3.8619312835380395
3.9788662546730578
3.886549172198051
3.9850207268380675
3.738841840238039
4.003484143333068
3.855776811373057
3.8680857557030492
3.788077617558033
3.9234760051880535
3.9296304773530633
3.855776811373057
3.658833702093023
3.886549172198051
3.9234760051880535
3.855776811373057
3.837313394878028
3.7942320897230433
3.9911751990030497
3.9419394216830552
3.8126955062180454
3.677297118588024
3.9973296711680604
3.855776811373057
3.9111670608580615
4.243508557768089
5.135907021693225
2.8095165433228986
2.877215737137895
3.6896060629180156
3.8803947000330408
3.9296304773530633
3.8680857557030492
3.8065410340530352
3.855776811373057
4.114264642303079
3.831158922713046
3.8065410340530352
3.7757686732280415
4.052719920653064
3.8927036443630603
3.831158922713046
3.763459728898022
4.003484143333068
3.8680857557030492
3.874240227868059
3.75115078456803
3.8680857557030492
3.9604028381780574
3.8680857557030492
3.831158922713046
3.763459728898022
4.028102031993082
4.415833778388112
3.9050125886930522
3.720378423743037
4.0711833371480655
3.9296304773530633
3.9419394216830552
3.831158922713046
3.8188499783830263
3.9665573103430654
3.9173215330230438
3.7942320897230433
3.8988581165280416
4.015793087663061
3.855776811373057
3.332646677347978
3.640370285598021
3.9050125886930522
3.9419394216830552
3.8927036443630603
3.7142239515780275
4.003484143333068
3.9604028381780574
3.9234760051880535
3.671142646423015
3.9419394216830552
3.9357849495180455
3.9111670608580615
3.7265328959080186
3.8126955062180454
3.9973296711680604
3.8680857557030492
3.701915007248036
3.738841840238039
3.9850207268380675
3.9542483660130467
3.763459728898022
3.486508481473
4.348134584573115
3.9419394216830552
3.855776811373057
3.6834515907530063
3.9727117825080476
4.114264642303079
3.9111670608580615
3.7942320897230433
3.9419394216830552
4.009638615498079
3.8803947000330408
3.8188499783830263
3.7942320897230433
3.9911751990030497
3.9050125886930522
3.837313394878028
3.831158922713046
3.9788662546730578
3.9234760051880535
3.8619312835380395
3.695760535083026
3.9542483660130467
3.9050125886930522
3.855776811373057
4.249663029933098
5.271305409323245
4.181963836118102
3.886549172198051
3.831158922713046
3.788077617558033
4.089646753643067
3.8988581165280416
3.381882454667973
2.2063782711528033
3.701915007248036
3.825004450548036
3.8803947000330408
3.7449963124030208
3.948093893848065
3.9542483660130467
3.886549172198051
3.781923145393024
3.886549172198051
4.021947559828071
3.8927036443630603
3.837313394878028
3.831158922713046
4.421988250553122
4.108110170138069
3.9604028381780574
3.7696142010630322
4.065028864983084
3.9850207268380675
3.8927036443630603
3.6896060629180156
3.9911751990030497
4.077337809313075
4.489687444368147
5.043589939218219
4.095801225808078
4.083492281478085
3.5357442587929944
3.529589786627985
3.763459728898022
3.3203377330179586
2.501792935072855
3.6896060629180156
3.6896060629180156
4.028102031993082
3.9727117825080476
3.9111670608580615
3.6896060629180156
4.083492281478085
4.009638615498079
3.948093893848065
3.9357849495180455
3.9788662546730578
3.948093893848065
3.9050125886930522
3.825004450548036
3.8434678670430373
3.9542483660130467
3.9111670608580615
3.886549172198051
3.7265328959080186
4.0465654484880815
4.021947559828071
3.9604028381780574
3.8680857557030492
3.9788662546730578
3.9419394216830552
3.8803947000330408
3.781923145393024
3.874240227868059
4.077337809313075
3.9665573103430654
3.8927036443630603
3.7265328959080186
4.0711833371480655
3.9296304773530633
3.9050125886930522
3.7449963124030208
4.040410976323072
4.028102031993082
4.021947559828071
3.738841840238039
3.9357849495180455
4.021947559828071
3.8927036443630603
3.8434678670430373
3.8927036443630603
4.0465654484880815
4.040410976323072
3.8126955062180454
3.738841840238039
4.089646753643067
4.009638615498079
3.9357849495180455
3.720378423743037
4.021947559828071
3.9604028381780574
3.5849800361130173
4.0711833371480655
4.003484143333068
4.028102031993082
3.9234760051880535
3.837313394878028
3.9604028381780574
4.169654891788083
3.831158922713046
3.855776811373057
4.237354085603107
4.655858192823159
4.040410976323072
3.9111670608580615
3.763459728898022
4.034256504158063
3.9050125886930522
3.9296304773530633
3.781923145393024
4.003484143333068
3.9911751990030497
3.8496223392080475
3.8927036443630603
3.8434678670430373
3.6649881742580046
3.35111009384298
3.763459728898022
3.677297118588024
4.021947559828071
3.9357849495180455
3.9050125886930522
3.8126955062180454
3.9173215330230438
3.9111670608580615
3.8988581165280416
3.7449963124030208
3.8619312835380395
3.9234760051880535
3.9357849495180455
3.701915007248036
3.75730525673304
3.9357849495180455
3.8188499783830263
3.831158922713046
3.75115078456803
3.9604028381780574
3.8803947000330408
3.825004450548036
3.6219068691030203
3.9542483660130467
3.837313394878028
3.8126955062180454
3.8496223392080475
3.855776811373057
3.886549172198051
3.9296304773530633
3.763459728898022
3.8496223392080475
4.6435492484931675
5.511329823758264
3.5665166196180156
3.75730525673304
3.7757686732280415
2.391012436102846
3.424963759822985
3.677297118588024
4.108110170138069
4.120419114468088
3.8988581165280416
3.732687368073029
3.9542483660130467
3.9850207268380675
3.8803947000330408
3.8188499783830263
3.8434678670430373
4.083492281478085
3.9234760051880535
3.837313394878028
3.8434678670430373
4.089646753643067
3.948093893848065
3.75115078456803
3.75730525673304
4.065028864983084
3.9604028381780574
3.8988581165280416
3.886549172198051
3.9111670608580615
3.9419394216830552
3.9542483660130467
3.8927036443630603
3.8619312835380395
4.034256504158063
3.9419394216830552
3.8988581165280416
3.6834515907530063
3.9542483660130467
3.9727117825080476
3.948093893848065
3.7696142010630322
4.040410976323072
4.040410976323072
3.9050125886930522
3.825004450548036
4.021947559828071
3.9911751990030497
3.9111670608580615
3.825004450548036
3.9665573103430654
4.754329747463175
4.108110170138069
3.8619312835380395
3.8434678670430373
4.083492281478085
4.009638615498079
3.9727117825080476
3.781923145393024
4.065028864983084
4.077337809313075
3.837313394878028
3.7696142010630322
3.8680857557030492
3.677297118588024
3.7265328959080186
3.8126955062180454
3.825004450548036
4.120419114468088
3.9050125886930522
3.8434678670430373
3.800386561888025
3.9788662546730578
3.9234760051880535
3.886549172198051
3.8188499783830263
4.108110170138069
3.8680857557030492
3.9542483660130467
4.37890694539811
4.120419114468088
4.015793087663061
3.9111670608580615
3.8496223392080475
4.003484143333068
4.0465654484880815
4.009638615498079
3.886549172198051
3.7942320897230433
4.077337809313075
3.9542483660130467
3.9111670608580615
3.8619312835380395
3.4741995371429804
3.677297118588024
3.9296304773530633
3.8065410340530352
3.9173215330230438
4.040410976323072
3.9665573103430654
3.9604028381780574
3.720378423743037
4.028102031993082
3.9727117825080476
3.948093893848065
3.7449963124030208
4.058874392818074
4.083492281478085
4.034256504158063
3.7142239515780275
3.9911751990030497
3.8803947000330408
3.948093893848065
3.7696142010630322
3.9050125886930522
4.065028864983084
4.003484143333068
3.732687368073029
3.8188499783830263
3.9850207268380675
3.9173215330230438
3.8619312835380395
4.2865898629231
5.258996464993254
2.9141425701278982
2.858752320642893
3.6219068691030203
3.9234760051880535
3.9604028381780574
3.9050125886930522
3.75730525673304
3.8680857557030492
4.015793087663061
3.825004450548036
3.8126955062180454
3.7449963124030208
3.9234760051880535
3.8988581165280416
3.8680857557030492
3.720378423743037
4.108110170138069
3.8188499783830263
3.886549172198051
3.7142239515780275
3.9234760051880535
4.015793087663061
3.8988581165280416
3.8496223392080475
4.040410976323072
4.040410976323072
3.831158922713046
3.7696142010630322
3.763459728898022
4.077337809313075
3.9050125886930522
3.8680857557030492
3.8434678670430373
3.9604028381780574
3.8803947000330408
3.886549172198051
3.701915007248036
3.9542483660130467
4.009638615498079
4.058874392818074
5.560565601078289
3.695760535083026
4.2065817247780855
3.9911751990030497
3.874240227868059
3.8065410340530352
4.003484143333068
3.788077617558033
2.286386409297819
3.1295490959029335
3.9973296711680604
3.9111670608580615
3.9604028381780574
3.781923145393024
3.8434678670430373
3.9234760051880535
3.8065410340530352
3.7942320897230433
3.9419394216830552
4.034256504158063
3.886549172198051
3.855776811373057
3.8434678670430373
4.058874392818074
3.8988581165280416
3.831158922713046
3.7265328959080186
4.1758093639530935
3.874240227868059
3.825004450548036
3.763459728898022
4.009638615498079
3.9788662546730578
3.8680857557030492
3.7696142010630322
3.8496223392080475
4.040410976323072
3.9788662546730578
3.8126955062180454
3.7942320897230433
4.003484143333068
4.348134584573115
4.54507769385315
3.837313394878028
3.9788662546730578
3.9973296711680604
3.9419394216830552
3.8496223392080475
3.9911751990030497
3.9542483660130467
4.009638615498079
3.781923145393024
3.8803947000330408
4.015793087663061
3.9911751990030497
3.6465247577630033
3.221866178377941
3.8680857557030492
4.065028864983084
3.9665573103430654
3.75730525673304
4.101955697973087
3.9542483660130467
3.6649881742580046
4.028102031993082
4.2681264464281
4.157345947458091
3.9357849495180455
3.825004450548036
4.040410976323072
4.108110170138069
3.9850207268380675
3.9788662546730578
3.9111670608580615
4.1327280587980795
4.108110170138069
4.114264642303079
3.9542483660130467
4.298898807253093
4.2865898629231
4.723557386638155
5.591337961903281
3.8065410340530352
4.120419114468088
4.003484143333068
3.9419394216830552
4.021947559828071
3.4741995371429804
2.6002644897128726
3.781923145393024
3.8434678670430373
4.089646753643067
3.9850207268380675
3.9357849495180455
3.831158922713046
4.169654891788083
3.948093893848065
4.1327280587980795
4.5820045268431535
4.083492281478085
4.065028864983084
4.009638615498079
3.8988581165280416
3.9604028381780574
4.034256504158063
3.9604028381780574
3.8988581165280416
3.8126955062180454
4.015793087663061
3.9357849495180455
3.9173215330230438
3.732687368073029
3.1972482897179573
3.720378423743037
3.9973296711680604
3.732687368073029
3.8619312835380395
3.9973296711680604
3.9419394216830552
3.9419394216830552
3.732687368073029
3.9419394216830552
3.8988581165280416
3.8988581165280416
3.7696142010630322
4.077337809313075
4.114264642303079
3.9727117825080476
3.6034434526080172
3.9727117825080476
3.9788662546730578
3.8988581165280416
3.763459728898022
3.9604028381780574
4.034256504158063
4.0465654484880815
3.6896060629180156
3.7942320897230433
4.052719920653064
3.9111670608580615
3.529589786627985
3.634215813433012
4.065028864983084
3.9727117825080476
3.5849800361130173
3.9911751990030497
3.9911751990030497
3.9542483660130467
3.8803947000330408
3.75730525673304
3.9419394216830552
4.028102031993082
3.8496223392080475
3.8065410340530352
3.8434678670430373
3.9665573103430654
3.9234760051880535
3.8065410340530352
3.7449963124030208
4.083492281478085
3.886549172198051
3.8434678670430373
3.720378423743037
3.9604028381780574
3.9604028381780574
3.8988581165280416
3.7757686732280415
4.101955697973087
4.5327687495231315
4.212736196943095
3.9111670608580615
3.855776811373057
4.114264642303079
3.8988581165280416
3.9173215330230438
3.738841840238039
3.948093893848065
3.9788662546730578
3.9419394216830552
3.7696142010630322
3.9850207268380675
3.9850207268380675
3.560362147453006
3.5234353144630024
3.8496223392080475
3.9727117825080476
3.8988581165280416
3.8065410340530352
3.781923145393024
4.077337809313075
3.9604028381780574
3.9111670608580615
3.701915007248036
4.028102031993082
3.948093893848065
3.9542483660130467
3.6834515907530063
3.9173215330230438
4.009638615498079
3.8927036443630603
3.695760535083026
3.855776811373057
4.501996388698137
5.19129727117823
4.108110170138069
3.8619312835380395
3.855776811373057
2.4279392690928487
3.424963759822985
3.8434678670430373
4.212736196943095
4.021947559828071
3.9173215330230438
3.763459728898022
4.1327280587980795
4.089646753643067
3.8680857557030492
3.7696142010630322
3.9111670608580615
3.9911751990030497
3.9173215330230438
3.886549172198051
3.8803947000330408
4.1327280587980795
4.225045141273086
4.2865898629231
3.831158922713046
4.0711833371480655
3.9973296711680604
3.9234760051880535
3.7757686732280415
3.9911751990030497
3.9850207268380675
3.9665573103430654
3.825004450548036
3.9050125886930522
4.021947559828071
3.9296304773530633
3.5357442587929944
3.3203377330179586
3.886549172198051
3.8803947000330408
3.7942320897230433
3.732687368073029
4.034256504158063
4.015793087663061
3.8188499783830263
3.701915007248036
3.9234760051880535
3.9788662546730578
3.9050125886930522
3.6834515907530063
4.028102031993082
4.255817502098108
3.9111670608580615
3.9173215330230438
3.7696142010630322
4.0465654484880815
4.003484143333068
3.8680857557030492
3.75730525673304
4.065028864983084
5.917524986648326
2.96953281961293
2.901833625797906
3.7942320897230433
3.8927036443630603
4.520459805193139
3.9050125886930522
3.9111670608580615
4.12657358663307
3.8188499783830263
3.831158922713046
3.781923145393024
4.101955697973087
3.948093893848065
3.9542483660130467
3.75115078456803
4.151191475293081
3.8988581165280416
3.486508481473
2.9633783474479203
3.8803947000330408
3.9911751990030497
3.9050125886930522
3.8188499783830263
3.948093893848065
4.003484143333068
3.8988581165280416
3.874240227868059
3.8434678670430373
4.021947559828071
3.9296304773530633
3.8496223392080475
3.9727117825080476
4.083492281478085
3.831158922713046
3.8496223392080475
3.7265328959080186
3.9357849495180455
4.034256504158063
3.9111670608580615
3.8988581165280416
3.738841840238039
3.9911751990030497
3.9542483660130467
3.8619312835380395
3.8188499783830263
4.077337809313075
4.003484143333068
3.9050125886930522
3.7080694794130173
3.9727117825080476
3.9111670608580615
3.9727117825080476
3.800386561888025
3.9296304773530633
4.015793087663061
5.086671244373231
4.7912565804531795
3.800386561888025
4.040410976323072
4.083492281478085
3.9665573103430654
4.163500419623101
4.108110170138069
2.0217441062027888
2.83413443198291
3.6896060629180156
4.015793087663061
3.9973296711680604
3.8803947000330408
3.7696142010630322
3.9973296711680604
4.095801225808078
3.855776811373057
3.8434678670430373
3.9111670608580615
3.9727117825080476
3.9111670608580615
3.9173215330230438
3.825004450548036
4.089646753643067
3.8927036443630603
3.9419394216830552
3.825004450548036
4.101955697973087
3.8927036443630603
3.9542483660130467
3.788077617558033
4.052719920653064
4.3173622237481215
3.9911751990030497
3.8434678670430373
3.825004450548036
4.015793087663061
3.9788662546730578
3.874240227868059
3.781923145393024
3.9788662546730578
3.9296304773530633
3.9173215330230438
3.7696142010630322
3.9788662546730578
3.9973296711680604
4.181963836118102
3.9050125886930522
3.8619312835380395
3.9357849495180455
3.9542483660130467
3.8126955062180454
3.7942320897230433
3.8988581165280416
3.8126955062180454
3.732687368073029
3.529589786627985
3.886549172198051
3.7942320897230433
3.738841840238039
2.9387604587879093
3.591134508277999
3.8434678670430373
3.837313394878028
3.695760535083026
3.8680857557030492
3.9357849495180455
3.8680857557030492
3.701915007248036
3.5665166196180156
4.3112077515831135
3.9788662546730578
3.7757686732280415
3.825004450548036
4.237354085603107
3.9234760051880535
3.9296304773530633
3.738841840238039
4.009638615498079
3.948093893848065
3.874240227868059
3.6896060629180156
3.8803947000330408
3.9050125886930522
3.831158922713046
3.788077617558033
3.8496223392080475
3.9973296711680604
3.800386561888025
3.7757686732280415
3.7696142010630322
3.9911751990030497
3.8927036443630603
3.8434678670430373
3.7142239515780275
3.9050125886930522
3.831158922713046
3.7942320897230433
3.6896060629180156
3.800386561888025
3.8927036443630603
3.8803947000330408
3.8065410340530352
3.720378423743037
3.8988581165280416
3.7942320897230433
3.6834515907530063
3.640370285598021
3.8927036443630603
3.7696142010630322
3.720378423743037
3.541898730958004
3.763459728898022
3.7449963124030208
3.720378423743037
3.634215813433012
3.541898730958004
3.504971897968001
3.541898730958004
3.5234353144630024
3.449581648482997
3.640370285598021
3.591134508277999
3.5234353144630024
3.4557361206479786
3.7449963124030208
4.465069555708134
3.7757686732280415
4.778947636123188
3.449581648482997
3.9665573103430654
3.8680857557030492
3.572671091782997
3.7080694794130173
3.0987767350779407
2.1571424938328088
3.424963759822985
3.609597924773
3.831158922713046
3.825004450548036
3.7449963124030208
3.6896060629180156
4.0465654484880815
3.7696142010630322
3.781923145393024
3.6834515907530063
3.9973296711680604
3.9727117825080476
3.800386561888025
3.763459728898022
4.015793087663061
3.8927036443630603
3.831158922713046
3.8619312835380395
3.6834515907530063
3.9234760051880535
3.8988581165280416
3.8434678670430373
3.9665573103430654
4.034256504158063
3.855776811373057
3.8496223392080475
3.695760535083026
3.9419394216830552
3.948093893848065
3.874240227868059
3.9234760051880535
3.7142239515780275
3.886549172198051
3.9234760051880535
3.800386561888025
3.763459728898022
3.9357849495180455
3.732687368073029
3.9542483660130467
3.628061341268002
3.9419394216830552
3.8927036443630603
3.8927036443630603
3.7942320897230433
4.015793087663061
3.9234760051880535
3.9850207268380675
3.75730525673304
3.9111670608580615
4.015793087663061
4.200427252613103
4.305053279418103
3.874240227868059
4.089646753643067
3.9296304773530633
3.548053203123014
4.095801225808078
4.0711833371480655
3.9911751990030497
3.9173215330230438
3.7449963124030208
3.9973296711680604
4.108110170138069
3.874240227868059
3.4741995371429804
3.234175122707961
3.9788662546730578
3.8680857557030492
3.8496223392080475
3.825004450548036
4.083492281478085
3.8434678670430373
3.9050125886930522
3.695760535083026
4.003484143333068
3.9665573103430654
3.825004450548036
3.7449963124030208
4.089646753643067
4.015793087663061
3.8988581165280416
3.7696142010630322
3.8680857557030492
3.9296304773530633
3.9050125886930522
3.9111670608580615
3.8680857557030492
4.003484143333068
3.8680857557030492
3.9050125886930522
3.781923145393024
3.9357849495180455
3.9173215330230438
3.9727117825080476
3.732687368073029
3.8619312835380395
3.9665573103430654
3.8927036443630603
3.7142239515780275
3.855776811373057
3.9419394216830552
3.874240227868059
3.8434678670430373
3.652679229928013
3.9542483660130467
3.855776811373057
3.8680857557030492
3.6896060629180156
4.015793087663061
3.9604028381780574
3.8680857557030492
3.6465247577630033
3.9604028381780574
4.6004679433381535
5.566720073243298
3.529589786627985
3.7757686732280415
3.7757686732280415
2.3110042979578305
3.3141832608529764
3.75730525673304
4.009638615498079
3.886549172198051
3.9111670608580615
3.8496223392080475
4.052719920653064
3.9604028381780574
3.8434678670430373
3.7942320897230433
3.9296304773530633
3.9788662546730578
3.9050125886930522
3.7696142010630322
3.9173215330230438
4.083492281478085
3.9234760051880535
3.75730525673304
3.788077617558033
4.0465654484880815
3.9173215330230438
3.886549172198051
3.8126955062180454
3.9542483660130467
3.8803947000330408
3.8434678670430373
3.788077617558033
4.021947559828071
4.009638615498079
4.083492281478085
4.557386638183142
4.028102031993082
4.034256504158063
3.9173215330230438
3.8496223392080475
3.825004450548036
4.021947559828071
3.9173215330230438
3.8680857557030492
3.7757686732280415
3.9973296711680604
3.9234760051880535
3.8927036443630603
3.75115078456803
3.4126548154929934
3.6834515907530063
3.7942320897230433
3.8619312835380395
3.837313394878028
3.9542483660130467
3.886549172198051
3.837313394878028
3.75730525673304
3.948093893848065
5.775972126853325
2.772589710332896
2.83413443198291
3.8065410340530352
3.8065410340530352
4.157345947458091
3.75730525673304
3.8496223392080475
4.778947636123188
5.431321685613277
3.511126370132983
3.825004450548036
3.9665573103430654
3.8680857557030492
3.8065410340530352
3.75115078456803
3.1972482897179573
2.4587116299178424
3.548053203123014
3.634215813433012
3.9419394216830552
3.8988581165280416
3.8496223392080475
3.7265328959080186
4.052719920653064
3.9419394216830552
3.831158922713046
3.7080694794130173
3.825004450548036
3.9850207268380675
3.837313394878028
3.837313394878028
4.2681264464281
4.089646753643067
3.886549172198051
3.855776811373057
3.695760535083026
3.8927036443630603
3.9604028381780574
3.9050125886930522
3.855776811373057
3.8496223392080475
3.9296304773530633
3.8927036443630603
3.831158922713046
3.8496223392080475
3.6219068691030203
3.701915007248036
3.9727117825080476
3.7265328959080186
3.9665573103430654
3.874240227868059
3.8988581165280416
3.732687368073029
4.021947559828071
3.9665573103430654
4.009638615498079
3.634215813433012
3.9296304773530633
3.9727117825080476
3.9173215330230438
3.7449963124030208
4.323516695913104
5.19745174334324
2.8464433763129016
2.9202970422929075
3.677297118588024
3.9973296711680604
3.9850207268380675
3.886549172198051
3.732687368073029
4.003484143333068
4.009638615498079
3.8496223392080475
4.27428091859311
4.415833778388112
4.009638615498079
3.9604028381780574
3.8803947000330408
3.8496223392080475
4.181963836118102
3.9234760051880535
3.837313394878028
3.781923145393024
4.058874392818074
3.9788662546730578
3.9788662546730578
3.7757686732280415
3.5665166196180156
3.2957198443579747
3.8065410340530352
3.7449963124030208
3.8988581165280416
3.9419394216830552
3.8619312835380395
3.8188499783830263
3.825004450548036
3.9357849495180455
3.948093893848065
3.874240227868059
3.695760535083026
4.0465654484880815
4.440451667048122
4.557386638183142
3.874240227868059
3.9419394216830552
3.9973296711680604
3.9173215330230438
3.788077617558033
3.9542483660130467
3.9727117825080476
3.9665573103430654
3.948093893848065
3.75115078456803
3.9911751990030497
3.9542483660130467
3.511126370132983
3.0372320134279267
3.948093893848065
3.8803947000330408
3.8434678670430373
3.7080694794130173
3.9973296711680604
3.9111670608580615
3.9604028381780574
3.75115078456803
3.634215813433012
4.2681264464281
3.9788662546730578
3.7696142010630322
3.8803947000330408
4.077337809313075
3.886549172198051
3.8619312835380395
3.75730525673304
4.114264642303079
3.9665573103430654
3.837313394878028
3.732687368073029
3.9973296711680604
3.9850207268380675
3.886549172198051
3.7757686732280415
3.948093893848065
4.1942727804480935
4.212736196943095
3.9111670608580615
3.9111670608580615
4.12657358663307
3.9911751990030497
3.8927036443630603
3.825004450548036
4.021947559828071
3.9357849495180455
3.8988581165280416
3.8126955062180454
3.9973296711680604
4.040410976323072
3.8619312835380395
3.5172808422979926
3.788077617558033
3.9911751990030497
3.9665573103430654
3.886549172198051
3.8803947000330408
4.028102031993082
3.9665573103430654
3.8496223392080475
3.763459728898022
4.028102031993082
3.9173215330230438
3.855776811373057
3.7696142010630322
3.9173215330230438
3.9111670608580615
3.7757686732280415
3.8188499783830263
3.8988581165280416
3.9542483660130467
3.8434678670430373
3.8126955062180454
3.75730525673304
3.9850207268380675
4.766638691793168
4.108110170138069
