-0.2246382340225228
-0.2246382340225228
-0.21848376185754081
-0.21848376185754081
-0.21232928969253104
-0.21232928969253104
-0.21232928969253104
-0.21848376185754081
-0.21232928969253104
-0.21232928969253104
-0.21232928969253104
-0.21848376185754081
-0.21232928969253104
-0.21848376185754081
-0.21232928969253104
-0.21232928969253104
-0.21848376185754081
-0.21848376185754081
-0.21232928969253104
-0.21848376185754081
-0.21848376185754081
-0.21848376185754081
-0.21232928969253104
-0.20617481752752131
-0.20617481752752131
-0.20617481752752131
-0.20617481752752131
-0.1938658731975296
-0.18771140103251985
-0.1938658731975296
-0.1938658731975296
-0.20002034536253932
-0.20617481752752131
-0.20617481752752131
-0.20002034536253932
-0.20617481752752131
-0.21848376185754081
-0.2246382340225228
-0.21232928969253104
-0.21232928969253104
-0.2246382340225228
-0.21848376185754081
-0.2246382340225228
-0.23079270618753256
-0.2246382340225228
-0.21848376185754081
-0.21848376185754081
-0.21848376185754081
-0.2246382340225228
-0.2246382340225228
-0.21848376185754081
-0.2246382340225228
-0.2246382340225228
-0.2246382340225228
-0.2246382340225228
-0.2246382340225228
-0.2431016505175243
-0.24925612268253405
-0.2369471783525424
-0.21848376185754081
-0.18155692886753785
-0.10770326288750408
-0.01538618041249662
0.09539431855751236
0.2246382340225228
0.2431016505175243
0.10770326288750408
-0.05231301340249961
-0.20002034536253932
-0.26156506701252585
-0.2431016505175243
-0.23079270618753256
-0.2369471783525424
-0.24925612268253405
-0.24925612268253405
-0.2431016505175243
-0.23079270618753256
-0.2431016505175243
-0.2431016505175243
-0.2431016505175243
-0.2431016505175243
-0.2369471783525424
-0.2369471783525424
-0.2431016505175243
-0.2431016505175243
-0.2369471783525424
-0.2369471783525424
-0.23079270618753256
-0.2246382340225228
-0.2246382340225228
-0.2246382340225228
-0.2246382340225228
-0.2246382340225228
-0.2246382340225228
-0.21848376185754081
-0.2246382340225228
-0.21232928969253104
-0.21232928969253104
-0.2369471783525424
-0.2246382340225228
-0.21848376185754081
-0.21848376185754081
-0.20002034536253932
-0.20617481752752131
-0.20617481752752131
-0.20002034536253932
-0.20002034536253932
-0.20002034536253932
-0.1938658731975296
-0.1938658731975296
-0.1938658731975296
-0.18155692886753785
-0.18155692886753785
-0.17540245670252808
-0.1692479845375183
-0.15693904020752658
-0.14463009587750708
-0.14463009587750708
-0.14463009587750708
-0.15078456804251686
-0.1384756237125251
-0.1261666793825056
-0.12001220721752358
-0.1261666793825056
-0.1261666793825056
-0.12001220721752358
-0.13232115154751534
-0.1384756237125251
-0.14463009587750708
-0.14463009587750708
-0.17540245670252808
-0.1938658731975296
-0.21232928969253104
-0.21232928969253104
-0.21848376185754081
-0.23079270618753256
-0.2431016505175243
-0.23079270618753256
-0.2431016505175243
-0.24925612268253405
-0.24925612268253405
-0.26156506701252585
-0.2554105948475438
-0.24925612268253405
-0.24925612268253405
-0.26156506701252585
-0.26156506701252585
-0.26156506701252585
-0.2431016505175243
-0.2431016505175243
-0.24925612268253405
-0.2554105948475438
-0.2431016505175243
-0.2431016505175243
-0.2554105948475438
-0.2554105948475438
-0.2554105948475438
-0.2554105948475438
-0.24925612268253405
-0.24925612268253405
-0.2554105948475438
-0.24925612268253405
-0.2431016505175243
-0.2554105948475438
-0.2554105948475438
-0.26156506701252585
-0.26156506701252585
-0.2554105948475438
-0.2554105948475438
-0.24925612268253405
-0.2431016505175243
-0.2431016505175243
-0.2431016505175243
-0.2431016505175243
-0.2431016505175243
-0.2369471783525424
-0.2369471783525424
-0.2369471783525424
-0.2369471783525424
-0.23079270618753256
-0.2369471783525424
-0.2431016505175243
-0.23079270618753256
-0.2369471783525424
-0.23079270618753256
-0.23079270618753256
-0.2369471783525424
-0.2369471783525424
-0.23079270618753256
-0.23079270618753256
-0.2246382340225228
-0.23079270618753256
-0.23079270618753256
-0.2369471783525424
-0.23079270618753256
-0.23079270618753256
-0.23079270618753256
-0.2369471783525424
-0.23079270618753256
-0.2369471783525424
-0.2369471783525424
-0.2431016505175243
-0.2431016505175243
-0.2246382340225228
-0.2246382340225228
-0.2369471783525424
-0.2431016505175243
-0.2369471783525424
-0.23079270618753256
-0.23079270618753256
-0.2246382340225228
-0.21848376185754081
-0.2246382340225228
-0.2246382340225228
-0.23079270618753256
-0.2246382340225228
-0.2246382340225228
-0.2246382340225228
-0.2369471783525424
-0.21848376185754081
-0.21232928969253104
-0.20617481752752131
-0.1938658731975296
-0.1938658731975296
-0.21232928969253104
-0.2246382340225228
-0.20617481752752131
-0.20617481752752131
-0.20002034536253932
-0.20617481752752131
-0.21848376185754081
-0.21848376185754081
-0.23079270618753256
-0.2369471783525424
-0.23079270618753256
-0.2246382340225228
-0.23079270618753256
-0.23079270618753256
-0.23079270618753256
-0.2369471783525424
-0.2431016505175243
-0.2369471783525424
-0.23079270618753256
-0.23079270618753256
-0.23079270618753256
-0.2369471783525424
-0.2431016505175243
-0.23079270618753256
-0.2246382340225228
-0.23079270618753256
-0.2369471783525424
-0.23079270618753256
-0.2431016505175243
-0.2554105948475438
-0.2369471783525424
-0.1938658731975296
-0.1261666793825056
-0.02769512474251612
0.1015487907225221
0.2369471783525424
0.30464637216753854
0.18155692886753785
0.003077236082504875
-0.15078456804251686
-0.23079270618753256
-0.2246382340225228
-0.23079270618753256
-0.2431016505175243
-0.2554105948475438
-0.26156506701252585
-0.26771953917753555
-0.26156506701252585
-0.26156506701252585
-0.26771953917753555
-0.26156506701252585
-0.26156506701252585
-0.26156506701252585
-0.24925612268253405
-0.2431016505175243
-0.24925612268253405
-0.24925612268253405
-0.26156506701252585
-0.26156506701252585
-0.2554105948475438
-0.2431016505175243
-0.2431016505175243
-0.2369471783525424
-0.2431016505175243
-0.2431016505175243
-0.2369471783525424
-0.23079270618753256
-0.2246382340225228
-0.2246382340225228
-0.21848376185754081
-0.23079270618753256
-0.21848376185754081
-0.2246382340225228
-0.2246382340225228
-0.21232928969253104
-0.21848376185754081
-0.20617481752752131
-0.20617481752752131
-0.21232928969253104
-0.21232928969253104
-0.20617481752752131
-0.20002034536253932
-0.1938658731975296
-0.18771140103251985
-0.18155692886753785
-0.18155692886753785
-0.1692479845375183
-0.15693904020752658
-0.1692479845375183
-0.15078456804251686
-0.14463009587750708
-0.1384756237125251
-0.1261666793825056
-0.1261666793825056
-0.13232115154751534
-0.1261666793825056
-0.1261666793825056
-0.12001220721752358
-0.1261666793825056
-0.1384756237125251
-0.14463009587750708
-0.16309351237253633
-0.17540245670252808
-0.18155692886753785
-0.20002034536253932
-0.21848376185754081
-0.2246382340225228
-0.23079270618753256
-0.23079270618753256
-0.2431016505175243
-0.24925612268253405
-0.2431016505175243
-0.24925612268253405
-0.2554105948475438
-0.24925612268253405
-0.24925612268253405
-0.24925612268253405
-0.2431016505175243
-0.2431016505175243
-0.2431016505175243
-0.2369471783525424
-0.23079270618753256
-0.23079270618753256
-0.2369471783525424
-0.23079270618753256
-0.23079270618753256
-0.2369471783525424
-0.2431016505175243
-0.2369471783525424
-0.2369471783525424
-0.2246382340225228
-0.21848376185754081
-0.21232928969253104
-0.21848376185754081
-0.23079270618753256
-0.23079270618753256
-0.2246382340225228
-0.2246382340225228
-0.23079270618753256
-0.23079270618753256
-0.21848376185754081
-0.2246382340225228
-0.2246382340225228
-0.23079270618753256
-0.23079270618753256
-0.23079270618753256
-0.2246382340225228
-0.2246382340225228
-0.2246382340225228
-0.2369471783525424
-0.21848376185754081
-0.20617481752752131
-0.21848376185754081
-0.21848376185754081
-0.21848376185754081
-0.21848376185754081
-0.21848376185754081
-0.21232928969253104
-0.21232928969253104
-0.20002034536253932
-0.20617481752752131
-0.21232928969253104
-0.20617481752752131
-0.20617481752752131
-0.21232928969253104
-0.20617481752752131
-0.21848376185754081
-0.21848376185754081
-0.21232928969253104
-0.21232928969253104
-0.20002034536253932
-0.20002034536253932
-0.20002034536253932
-0.20002034536253932
-0.20617481752752131
-0.21848376185754081
-0.21848376185754081
-0.20002034536253932
-0.20002034536253932
-0.20002034536253932
-0.1938658731975296
-0.20002034536253932
-0.1938658731975296
-0.18771140103251985
-0.18771140103251985
-0.20002034536253932
-0.20002034536253932
-0.20002034536253932
-0.21232928969253104
-0.21232928969253104
-0.20617481752752131
-0.20617481752752131
-0.21232928969253104
-0.20617481752752131
-0.20617481752752131
-0.20617481752752131
-0.20002034536253932
-0.20617481752752131
-0.1938658731975296
-0.17540245670252808
-0.17540245670252808
-0.17540245670252808
-0.18155692886753785
-0.18771140103251985
-0.1938658731975296
-0.1938658731975296
-0.1938658731975296
-0.1938658731975296
-0.1938658731975296
-0.20002034536253932
-0.21232928969253104
-0.21848376185754081
-0.21848376185754081
-0.2246382340225228
-0.21848376185754081
-0.2246382340225228
-0.21848376185754081
-0.21232928969253104
-0.21848376185754081
-0.21848376185754081
-0.21848376185754081
-0.2246382340225228
-0.2246382340225228
-0.21848376185754081
-0.21848376185754081
-0.21848376185754081
-0.2246382340225228
-0.21848376185754081
-0.2246382340225228
-0.2431016505175243
-0.2554105948475438
-0.2369471783525424
-0.21232928969253104
-0.17540245670252808
-0.10770326288750408
0.009231708247514623
0.13232115154751534
0.26156506701252585
0.2984919000025288
0.1384756237125251
-0.05231301340249961
-0.20617481752752131
-0.2554105948475438
-0.2431016505175243
-0.2369471783525424
-0.23079270618753256
-0.2431016505175243
-0.24925612268253405
-0.26156506701252585
-0.2554105948475438
-0.24925612268253405
-0.2431016505175243
-0.24925612268253405
-0.2554105948475438
-0.2431016505175243
-0.24925612268253405
-0.2431016505175243
-0.2369471783525424
-0.2369471783525424
-0.2431016505175243
-0.2369471783525424
-0.2369471783525424
-0.23079270618753256
-0.2369471783525424
-0.2369471783525424
-0.23079270618753256
-0.2369471783525424
-0.2369471783525424
-0.23079270618753256
-0.2369471783525424
-0.2369471783525424
-0.21848376185754081
-0.21848376185754081
-0.20617481752752131
-0.21232928969253104
-0.21848376185754081
-0.21848376185754081
-0.21848376185754081
-0.21848376185754081
-0.20617481752752131
-0.20617481752752131
-0.20617481752752131
-0.17540245670252808
-0.17540245670252808
-0.1938658731975296
-0.18155692886753785
-0.18155692886753785
-0.17540245670252808
-0.16309351237253633
-0.15693904020752658
-0.15078456804251686
-0.14463009587750708
-0.1384756237125251
-0.1384756237125251
-0.14463009587750708
-0.1261666793825056
-0.1261666793825056
-0.13232115154751534
-0.12001220721752358
-0.12001220721752358
-0.1261666793825056
-0.14463009587750708
-0.16309351237253633
-0.1692479845375183
-0.17540245670252808
-0.20002034536253932
-0.21232928969253104
-0.21232928969253104
-0.2246382340225228
-0.23079270618753256
-0.2369471783525424
-0.2431016505175243
-0.24925612268253405
-0.24925612268253405
-0.24925612268253405
-0.24925612268253405
-0.2431016505175243
-0.2431016505175243
-0.2554105948475438
-0.24925612268253405
-0.2369471783525424
-0.24925612268253405
-0.2431016505175243
-0.24925612268253405
-0.2431016505175243
-0.24925612268253405
-0.26156506701252585
-0.26771953917753555
-0.2431016505175243
-0.2431016505175243
-0.24925612268253405
-0.2554105948475438
-0.24925612268253405
-0.24925612268253405
-0.2431016505175243
-0.2431016505175243
-0.2369471783525424
-0.2369471783525424
-0.2554105948475438
-0.26156506701252585
-0.2431016505175243
-0.2369471783525424
-0.2369471783525424
-0.2431016505175243
-0.2431016505175243
-0.2431016505175243
-0.2431016505175243
-0.2431016505175243
-0.2431016505175243
-0.2369471783525424
-0.2431016505175243
-0.2431016505175243
-0.2369471783525424
-0.2369471783525424
-0.2369471783525424
-0.23079270618753256
-0.2431016505175243
-0.23079270618753256
-0.21848376185754081
-0.2246382340225228
-0.24925612268253405
-0.24925612268253405
-0.2431016505175243
-0.2369471783525424
-0.23079270618753256
-0.2431016505175243
-0.23079270618753256
-0.2369471783525424
-0.2369471783525424
-0.2246382340225228
-0.21848376185754081
-0.23079270618753256
-0.2246382340225228
-0.2369471783525424
-0.23079270618753256
-0.23079270618753256
-0.2431016505175243
-0.24925612268253405
-0.2369471783525424
-0.23079270618753256
-0.2246382340225228
-0.2369471783525424
-0.2369471783525424
-0.23079270618753256
-0.2246382340225228
-0.23079270618753256
-0.2246382340225228
-0.21232928969253104
-0.20617481752752131
-0.20002034536253932
-0.20002034536253932
-0.1938658731975296
-0.21232928969253104
-0.21232928969253104
-0.21232928969253104
-0.21232928969253104
-0.21848376185754081
-0.2246382340225228
-0.23079270618753256
-0.2369471783525424
-0.23079270618753256
-0.23079270618753256
-0.2369471783525424
-0.23079270618753256
-0.23079270618753256
-0.23079270618753256
-0.2369471783525424
-0.2369471783525424
-0.2369471783525424
-0.23079270618753256
-0.23079270618753256
-0.2369471783525424
-0.2369471783525424
-0.23079270618753256
-0.23079270618753256
-0.23079270618753256
-0.23079270618753256
-0.2369471783525424
-0.2431016505175243
-0.2431016505175243
-0.24925612268253405
-0.2369471783525424
-0.21848376185754081
-0.1692479845375183
-0.08923984639250257
0.009231708247514623
0.15078456804251686
0.2554105948475438
0.21848376185754081
0.05231301340249961
-0.10770326288750408
-0.2246382340225228
-0.2554105948475438
-0.23079270618753256
-0.2369471783525424
-0.2369471783525424
-0.23079270618753256
-0.2369471783525424
-0.2369471783525424
-0.2431016505175243
-0.2431016505175243
-0.2369471783525424
-0.2369471783525424
-0.2369471783525424
-0.2246382340225228
-0.2246382340225228
-0.23079270618753256
-0.2246382340225228
-0.21848376185754081
-0.2246382340225228
-0.2246382340225228
-0.21848376185754081
-0.2246382340225228
-0.21848376185754081
-0.20617481752752131
-0.21232928969253104
-0.20617481752752131
-0.20002034536253932
-0.21232928969253104
-0.21232928969253104
-0.21232928969253104
-0.20617481752752131
-0.21232928969253104
-0.20617481752752131
-0.20002034536253932
-0.18771140103251985
-0.1938658731975296
-0.18771140103251985
-0.18155692886753785
-0.17540245670252808
-0.17540245670252808
-0.18155692886753785
-0.17540245670252808
-0.17540245670252808
-0.1692479845375183
-0.16309351237253633
-0.15078456804251686
-0.15078456804251686
-0.1384756237125251
-0.14463009587750708
-0.14463009587750708
-0.13232115154751534
-0.1261666793825056
-0.12001220721752358
-0.10770326288750408
-0.10770326288750408
-0.1015487907225221
-0.1015487907225221
-0.10770326288750408
-0.11385773505251384
-0.12001220721752358
-0.13232115154751534
-0.15078456804251686
-0.16309351237253633
-0.17540245670252808
-0.1938658731975296
-0.20002034536253932
-0.20617481752752131
-0.21848376185754081
-0.21848376185754081
-0.23079270618753256
-0.2369471783525424
-0.23079270618753256
-0.23079270618753256
-0.23079270618753256
-0.2369471783525424
-0.23079270618753256
-0.2369471783525424
-0.23079270618753256
-0.2369471783525424
-0.2369471783525424
-0.2369471783525424
-0.23079270618753256
-0.23079270618753256
-0.2369471783525424
-0.23079270618753256
-0.23079270618753256
-0.2246382340225228
-0.2246382340225228
-0.2246382340225228
-0.2246382340225228
-0.23079270618753256
-0.2246382340225228
-0.2246382340225228
-0.2246382340225228
-0.23079270618753256
-0.23079270618753256
-0.2246382340225228
-0.23079270618753256
-0.23079270618753256
-0.2246382340225228
-0.2246382340225228
-0.2246382340225228
-0.2246382340225228
-0.2246382340225228
-0.2246382340225228
-0.2246382340225228
-0.21848376185754081
-0.21848376185754081
-0.2246382340225228
-0.2246382340225228
-0.23079270618753256
-0.21848376185754081
-0.21232928969253104
-0.2246382340225228
-0.2246382340225228
-0.2246382340225228
-0.21848376185754081
-0.21848376185754081
-0.21848376185754081
-0.21232928969253104
-0.21232928969253104
-0.21232928969253104
-0.21232928969253104
-0.21232928969253104
-0.21232928969253104
-0.21232928969253104
-0.21232928969253104
-0.21848376185754081
-0.21232928969253104
-0.21232928969253104
-0.21848376185754081
-0.21848376185754081
-0.21848376185754081
-0.21232928969253104
-0.21848376185754081
-0.21848376185754081
-0.21848376185754081
-0.21232928969253104
-0.21848376185754081
-0.2246382340225228
-0.21848376185754081
-0.21848376185754081
-0.2246382340225228
-0.2246382340225228
-0.2246382340225228
-0.21232928969253104
-0.21232928969253104
-0.21232928969253104
-0.21232928969253104
-0.20617481752752131
-0.1938658731975296
-0.1938658731975296
-0.1938658731975296
-0.20002034536253932
-0.20617481752752131
-0.20617481752752131
-0.20002034536253932
-0.20617481752752131
-0.20617481752752131
-0.20617481752752131
-0.21232928969253104
-0.2246382340225228
-0.21848376185754081
-0.21848376185754081
-0.2246382340225228
-0.2246382340225228
-0.21848376185754081
-0.23079270618753256
-0.2246382340225228
-0.23079270618753256
-0.21848376185754081
-0.21848376185754081
-0.21848376185754081
-0.2246382340225228
-0.2246382340225228
-0.23079270618753256
-0.2369471783525424
-0.2369471783525424
-0.2246382340225228
-0.23079270618753256
-0.2431016505175243
-0.2431016505175243
-0.2431016505175243
-0.21848376185754081
-0.17540245670252808
-0.1015487907225221
0.003077236082504875
0.13232115154751534
0.2738740113425453
0.3108008443325483
0.1692479845375183
-0.009231708247514623
-0.1692479845375183
-0.2246382340225228
-0.21848376185754081
-0.2246382340225228
-0.2246382340225228
-0.23079270618753256
-0.2431016505175243
-0.24925612268253405
-0.24925612268253405
-0.24925612268253405
-0.2431016505175243
-0.2431016505175243
-0.2431016505175243
-0.2369471783525424
-0.2431016505175243
-0.2431016505175243
-0.24925612268253405
-0.2431016505175243
-0.23079270618753256
-0.2369471783525424
-0.23079270618753256
-0.23079270618753256
-0.2246382340225228
-0.23079270618753256
-0.23079270618753256
-0.23079270618753256
-0.21848376185754081
-0.21848376185754081
-0.21848376185754081
-0.21848376185754081
-0.21848376185754081
-0.21232928969253104
-0.21232928969253104
-0.20617481752752131
-0.20617481752752131
-0.20617481752752131
-0.20617481752752131
-0.20002034536253932
-0.20002034536253932
-0.20002034536253932
-0.20002034536253932
-0.18771140103251985
-0.18155692886753785
-0.17540245670252808
-0.17540245670252808
-0.1692479845375183
-0.16309351237253633
-0.15078456804251686
-0.15078456804251686
-0.15078456804251686
-0.14463009587750708
-0.13232115154751534
-0.1261666793825056
-0.12001220721752358
-0.11385773505251384
-0.11385773505251384
-0.10770326288750408
-0.11385773505251384
-0.11385773505251384
-0.12001220721752358
-0.13232115154751534
-0.15078456804251686
-0.1692479845375183
-0.18155692886753785
-0.18771140103251985
-0.1938658731975296
-0.20617481752752131
-0.21232928969253104
-0.21848376185754081
-0.23079270618753256
-0.23079270618753256
-0.2431016505175243
-0.26156506701252585
-0.2431016505175243
-0.24925612268253405
-0.2431016505175243
-0.24925612268253405
-0.2431016505175243
-0.2431016505175243
-0.24925612268253405
-0.2431016505175243
-0.23079270618753256
-0.23079270618753256
-0.23079270618753256
-0.23079270618753256
-0.2369471783525424
-0.2369471783525424
-0.2369471783525424
-0.2369471783525424
-0.23079270618753256
-0.2369471783525424
-0.2369471783525424
-0.23079270618753256
-0.23079270618753256
-0.23079270618753256
-0.23079270618753256
-0.23079270618753256
-0.2369471783525424
-0.2431016505175243
-0.23079270618753256
-0.2246382340225228
-0.2246382340225228
-0.23079270618753256
-0.24925612268253405
-0.24925612268253405
-0.24925612268253405
-0.2369471783525424
-0.23079270618753256
-0.23079270618753256
-0.2369471783525424
-0.23079270618753256
-0.2369471783525424
-0.23079270618753256
-0.2246382340225228
-0.2369471783525424
-0.2369471783525424
-0.2369471783525424
-0.23079270618753256
-0.2369471783525424
-0.23079270618753256
-0.2246382340225228
-0.23079270618753256
-0.2246382340225228
-0.2246382340225228
-0.2246382340225228
-0.21848376185754081
-0.2246382340225228
-0.2246382340225228
-0.2246382340225228
-0.21848376185754081
-0.23079270618753256
-0.2246382340225228
-0.21848376185754081
-0.2246382340225228
-0.23079270618753256
-0.23079270618753256
-0.2246382340225228
-0.21848376185754081
-0.2246382340225228
-0.21848376185754081
-0.2246382340225228
-0.21848376185754081
-0.21848376185754081
-0.21848376185754081
-0.2246382340225228
-0.23079270618753256
-0.23079270618753256
-0.21848376185754081
-0.21848376185754081
-0.21232928969253104
-0.21848376185754081
-0.21848376185754081
-0.20002034536253932
-0.18771140103251985
-0.18155692886753785
-0.18771140103251985
-0.20002034536253932
-0.20617481752752131
-0.20002034536253932
-0.1938658731975296
-0.20617481752752131
-0.20617481752752131
-0.21232928969253104
-0.20617481752752131
-0.21232928969253104
-0.21232928969253104
-0.20617481752752131
-0.21232928969253104
-0.21232928969253104
-0.20617481752752131
-0.21232928969253104
-0.21232928969253104
-0.21232928969253104
-0.21848376185754081
-0.21232928969253104
-0.21232928969253104
-0.21232928969253104
-0.21232928969253104
-0.21232928969253104
-0.21232928969253104
-0.21848376185754081
-0.21232928969253104
-0.2246382340225228
-0.2369471783525424
-0.2369471783525424
-0.21232928969253104
-0.18155692886753785
-0.10770326288750408
-0.02154065257750637
0.1015487907225221
0.2431016505175243
0.31695531649755804
0.20617481752752131
0.01538618041249662
-0.13232115154751534
-0.21848376185754081
-0.21848376185754081
-0.21232928969253104
-0.21848376185754081
-0.2246382340225228
-0.2246382340225228
-0.2246382340225228
-0.2369471783525424
-0.2369471783525424
-0.2369471783525424
-0.2246382340225228
-0.23079270618753256
-0.2369471783525424
-0.23079270618753256
-0.2246382340225228
-0.2246382340225228
-0.21848376185754081
-0.2246382340225228
-0.21848376185754081
-0.21232928969253104
-0.21232928969253104
-0.21232928969253104
-0.21232928969253104
-0.20617481752752131
-0.20617481752752131
-0.20002034536253932
-0.21232928969253104
-0.18771140103251985
-0.20617481752752131
-0.20617481752752131
-0.20617481752752131
-0.20002034536253932
-0.20002034536253932
-0.1938658731975296
-0.1938658731975296
-0.18771140103251985
-0.1938658731975296
-0.18771140103251985
-0.18155692886753785
-0.18155692886753785
-0.17540245670252808
-0.1692479845375183
-0.16309351237253633
-0.15693904020752658
-0.15693904020752658
-0.14463009587750708
-0.1384756237125251
-0.13232115154751534
-0.13232115154751534
-0.1261666793825056
-0.11385773505251384
-0.11385773505251384
-0.10770326288750408
-0.1015487907225221
-0.09539431855751236
-0.09539431855751236
-0.1015487907225221
-0.10770326288750408
-0.10770326288750408
-0.12001220721752358
-0.13232115154751534
-0.14463009587750708
-0.1692479845375183
-0.17540245670252808
-0.18155692886753785
-0.20002034536253932
-0.20617481752752131
-0.20617481752752131
-0.21232928969253104
-0.21848376185754081
-0.2246382340225228
-0.2369471783525424
-0.2369471783525424
-0.2369471783525424
-0.2369471783525424
-0.2369471783525424
-0.2369471783525424
-0.23079270618753256
-0.2369471783525424
-0.23079270618753256
-0.23079270618753256
-0.2246382340225228
-0.2246382340225228
-0.2246382340225228
-0.23079270618753256
-0.23079270618753256
-0.2246382340225228
-0.23079270618753256
-0.2246382340225228
-0.21848376185754081
-0.21232928969253104
-0.21232928969253104
-0.2246382340225228
-0.2246382340225228
-0.2246382340225228
-0.21848376185754081
-0.2246382340225228
-0.21848376185754081
-0.21848376185754081
-0.2246382340225228
-0.21848376185754081
-0.2246382340225228
-0.2246382340225228
-0.21848376185754081
-0.21848376185754081
-0.21848376185754081
-0.21232928969253104
-0.21232928969253104
-0.21232928969253104
-0.21232928969253104
-0.21232928969253104
-0.21232928969253104
-0.20617481752752131
-0.21232928969253104
-0.21232928969253104
-0.21232928969253104
-0.21232928969253104
-0.20617481752752131
-0.20002034536253932
-0.20617481752752131
-0.20617481752752131
-0.20617481752752131
-0.20617481752752131
-0.20002034536253932
-0.21232928969253104
-0.21232928969253104
-0.20002034536253932
-0.20617481752752131
-0.20617481752752131
-0.20002034536253932
-0.20617481752752131
-0.1938658731975296
-0.1938658731975296
-0.20002034536253932
-0.20617481752752131
-0.20617481752752131
-0.20002034536253932
-0.20617481752752131
-0.20617481752752131
-0.20002034536253932
-0.1938658731975296
-0.20002034536253932
-0.20002034536253932
-0.18771140103251985
-0.18771140103251985
-0.17540245670252808
-0.17540245670252808
-0.1938658731975296
-0.20002034536253932
-0.1938658731975296
-0.1938658731975296
-0.1938658731975296
-0.20617481752752131
-0.21848376185754081
-0.21848376185754081
-0.23079270618753256
-0.23079270618753256
-0.20617481752752131
-0.20002034536253932
-0.20617481752752131
-0.20617481752752131
-0.20617481752752131
-0.20617481752752131
-0.21848376185754081
-0.21232928969253104
-0.21848376185754081
-0.21232928969253104
-0.20617481752752131
-0.20617481752752131
-0.21848376185754081
-0.21848376185754081
-0.21848376185754081
-0.21848376185754081
-0.20617481752752131
-0.2246382340225228
-0.2369471783525424
-0.23079270618753256
-0.21848376185754081
-0.17540245670252808
-0.11385773505251384
-0.02154065257750637
0.09539431855751236
0.2246382340225228
0.26156506701252585
0.1261666793825056
-0.05231301340249961
-0.18155692886753785
-0.26771953917753555
-0.24925612268253405
-0.2246382340225228
-0.2246382340225228
-0.23079270618753256
-0.23079270618753256
-0.2246382340225228
-0.2369471783525424
-0.2554105948475438
-0.2554105948475438
-0.2431016505175243
-0.24925612268253405
-0.2431016505175243
-0.2431016505175243
-0.2431016505175243
-0.2431016505175243
-0.2246382340225228
-0.2369471783525424
-0.2369471783525424
-0.2369471783525424
-0.23079270618753256
-0.2246382340225228
-0.23079270618753256
-0.23079270618753256
-0.2246382340225228
-0.2246382340225228
-0.21232928969253104
-0.21848376185754081
-0.21232928969253104
-0.21232928969253104
-0.20002034536253932
-0.21232928969253104
-0.21848376185754081
-0.20617481752752131
-0.20002034536253932
-0.21232928969253104
-0.1938658731975296
-0.20002034536253932
-0.20002034536253932
-0.1938658731975296
-0.1938658731975296
-0.1938658731975296
-0.18155692886753785
-0.18155692886753785
-0.17540245670252808
-0.17540245670252808
-0.1692479845375183
-0.15078456804251686
-0.14463009587750708
-0.1384756237125251
-0.14463009587750708
-0.13232115154751534
-0.13232115154751534
-0.13232115154751534
-0.1261666793825056
-0.1261666793825056
-0.1261666793825056
-0.13232115154751534
-0.13232115154751534
-0.1384756237125251
-0.15693904020752658
-0.1692479845375183
-0.20002034536253932
-0.21848376185754081
-0.21848376185754081
-0.2246382340225228
-0.21848376185754081
-0.23079270618753256
-0.2369471783525424
-0.24925612268253405
-0.2554105948475438
-0.24925612268253405
-0.24925612268253405
-0.24925612268253405
-0.2431016505175243
-0.24925612268253405
-0.24925612268253405
-0.24925612268253405
-0.2431016505175243
-0.2431016505175243
-0.26156506701252585
-0.26771953917753555
-0.26156506701252585
-0.2800284835075273
-0.2984919000025288
-0.2800284835075273
-0.24925612268253405
-0.2431016505175243
-0.2431016505175243
-0.2431016505175243
-0.2369471783525424
-0.2369471783525424
-0.2554105948475438
-0.24925612268253405
-0.24925612268253405
-0.24925612268253405
-0.24925612268253405
-0.2554105948475438
-0.2554105948475438
-0.24925612268253405
-0.2431016505175243
-0.24925612268253405
-0.2431016505175243
-0.2431016505175243
-0.2554105948475438
-0.2554105948475438
-0.2431016505175243
-0.2369471783525424
-0.23079270618753256
-0.2369471783525424
-0.2246382340225228
-0.23079270618753256
-0.23079270618753256
-0.2369471783525424
-0.2431016505175243
-0.2431016505175243
-0.23079270618753256
-0.23079270618753256
-0.2246382340225228
-0.23079270618753256
-0.2431016505175243
-0.2431016505175243
-0.23079270618753256
-0.2369471783525424
-0.2369471783525424
-0.23079270618753256
-0.2431016505175243
-0.2369471783525424
-0.24925612268253405
-0.2369471783525424
-0.2246382340225228
-0.23079270618753256
-0.2369471783525424
-0.21848376185754081
-0.20002034536253932
-0.21232928969253104
-0.2246382340225228
-0.23079270618753256
-0.2246382340225228
-0.2246382340225228
-0.23079270618753256
-0.23079270618753256
-0.23079270618753256
-0.23079270618753256
-0.2246382340225228
-0.2246382340225228
-0.2246382340225228
-0.21848376185754081
-0.23079270618753256
-0.2369471783525424
-0.1938658731975296
-0.1938658731975296
-0.1938658731975296
-0.20617481752752131
-0.21848376185754081
-0.2246382340225228
-0.2246382340225228
-0.21848376185754081
-0.21232928969253104
-0.21848376185754081
-0.2246382340225228
-0.2369471783525424
-0.2431016505175243
-0.23079270618753256
-0.2369471783525424
-0.24925612268253405
-0.2369471783525424
-0.2431016505175243
-0.23079270618753256
-0.2246382340225228
-0.23079270618753256
-0.2246382340225228
-0.2246382340225228
-0.2369471783525424
-0.2246382340225228
-0.2369471783525424
-0.23079270618753256
-0.2369471783525424
-0.2246382340225228
-0.2246382340225228
-0.2431016505175243
-0.2431016505175243
-0.2431016505175243
-0.21232928969253104
-0.15693904020752658
-0.05846748556750937
0.06462195773251911
0.20617481752752131
0.30464637216753854
0.2431016505175243
0.06462195773251911
-0.12001220721752358
-0.26156506701252585
-0.2554105948475438
-0.21848376185754081
-0.23079270618753256
-0.2431016505175243
-0.2369471783525424
-0.23079270618753256
-0.2431016505175243
-0.24925612268253405
-0.2554105948475438
-0.26771953917753555
-0.26771953917753555
-0.2554105948475438
-0.26156506701252585
-0.24925612268253405
-0.24925612268253405
-0.26771953917753555
-0.26771953917753555
-0.26156506701252585
-0.2554105948475438
-0.2554105948475438
-0.2738740113425453
-0.2431016505175243
-0.2246382340225228
-0.23079270618753256
-0.2431016505175243
-0.2369471783525424
-0.23079270618753256
-0.23079270618753256
-0.23079270618753256
-0.23079270618753256
-0.23079270618753256
-0.23079270618753256
-0.2246382340225228
-0.2246382340225228
-0.21232928969253104
-0.21232928969253104
-0.21232928969253104
-0.20617481752752131
-0.21848376185754081
-0.21232928969253104
-0.20617481752752131
-0.20002034536253932
-0.18771140103251985
-0.17540245670252808
-0.17540245670252808
-0.17540245670252808
-0.1692479845375183
-0.16309351237253633
-0.15693904020752658
-0.15078456804251686
-0.1384756237125251
-0.13232115154751534
-0.12001220721752358
-0.1261666793825056
-0.13232115154751534
-0.13232115154751534
-0.1261666793825056
-0.14463009587750708
-0.15078456804251686
-0.15078456804251686
-0.16309351237253633
-0.18155692886753785
-0.1938658731975296
-0.21232928969253104
-0.2431016505175243
-0.2369471783525424
-0.2246382340225228
-0.2369471783525424
-0.24925612268253405
-0.24925612268253405
-0.2554105948475438
-0.2554105948475438
-0.2431016505175243
-0.24925612268253405
-0.2431016505175243
-0.2431016505175243
-0.24925612268253405
-0.24925612268253405
-0.2554105948475438
-0.24925612268253405
-0.2554105948475438
-0.26156506701252585
-0.2554105948475438
-0.2431016505175243
-0.2431016505175243
-0.2431016505175243
-0.2369471783525424
-0.2431016505175243
-0.2369471783525424
-0.2431016505175243
-0.2369471783525424
-0.2369471783525424
-0.2431016505175243
-0.24925612268253405
-0.2431016505175243
-0.2431016505175243
-0.2431016505175243
-0.2369471783525424
-0.2369471783525424
-0.2369471783525424
-0.2369471783525424
-0.2431016505175243
-0.2431016505175243
-0.2431016505175243
-0.2369471783525424
-0.2431016505175243
-0.2369471783525424
-0.2431016505175243
-0.2369471783525424
-0.2431016505175243
-0.24925612268253405
-0.2431016505175243
-0.23079270618753256
-0.23079270618753256
-0.23079270618753256
-0.23079270618753256
-0.2431016505175243
-0.24925612268253405
-0.2369471783525424
-0.23079270618753256
-0.23079270618753256
-0.23079270618753256
-0.2369471783525424
-0.23079270618753256
-0.2369471783525424
-0.2431016505175243
-0.2431016505175243
-0.23079270618753256
-0.2369471783525424
-0.2369471783525424
-0.2369471783525424
-0.2369471783525424
-0.23079270618753256
-0.2431016505175243
-0.26771953917753555
-0.23079270618753256
-0.21848376185754081
-0.2246382340225228
-0.23079270618753256
-0.2369471783525424
-0.24925612268253405
-0.2431016505175243
-0.24925612268253405
-0.2431016505175243
-0.23079270618753256
-0.2246382340225228
-0.2246382340225228
-0.2369471783525424
-0.23079270618753256
-0.23079270618753256
-0.2246382340225228
-0.20617481752752131
-0.20002034536253932
-0.20617481752752131
-0.21848376185754081
-0.21232928969253104
-0.21848376185754081
-0.21848376185754081
-0.2246382340225228
-0.2369471783525424
-0.2431016505175243
-0.2431016505175243
-0.23079270618753256
-0.23079270618753256
-0.2369471783525424
-0.2369471783525424
-0.2431016505175243
-0.2431016505175243
-0.2431016505175243
-0.2369471783525424
-0.2369471783525424
-0.2431016505175243
-0.23079270618753256
-0.2369471783525424
-0.2431016505175243
-0.2431016505175243
-0.23079270618753256
-0.2369471783525424
-0.2431016505175243
-0.2369471783525424
-0.2369471783525424
-0.24925612268253405
-0.26156506701252585
-0.2431016505175243
-0.21848376185754081
-0.15078456804251686
-0.07693090206251085
0.02769512474251612
0.16309351237253633
0.24925612268253405
0.16309351237253633
-0.02154065257750637
-0.15693904020752658
-0.26156506701252585
-0.28618295567253704
-0.26771953917753555
-0.24925612268253405
-0.24925612268253405
-0.2431016505175243
-0.24925612268253405
-0.2431016505175243
-0.24925612268253405
-0.2431016505175243
-0.24925612268253405
-0.2554105948475438
-0.2431016505175243
-0.2431016505175243
-0.2554105948475438
-0.2431016505175243
-0.24925612268253405
-0.2431016505175243
-0.2369471783525424
-0.2431016505175243
-0.2431016505175243
-0.23079270618753256
-0.2369471783525424
-0.24925612268253405
-0.24925612268253405
-0.2369471783525424
-0.2369471783525424
-0.2369471783525424
-0.23079270618753256
-0.23079270618753256
-0.21848376185754081
-0.21848376185754081
-0.2246382340225228
-0.21848376185754081
-0.2246382340225228
-0.21232928969253104
-0.20617481752752131
-0.20002034536253932
-0.20002034536253932
-0.20002034536253932
-0.20002034536253932
-0.20617481752752131
-0.18771140103251985
-0.16309351237253633
-0.15693904020752658
-0.15693904020752658
-0.15693904020752658
-0.14463009587750708
-0.1384756237125251
-0.14463009587750708
-0.13232115154751534
-0.12001220721752358
-0.12001220721752358
-0.11385773505251384
-0.10770326288750408
-0.11385773505251384
-0.11385773505251384
-0.1261666793825056
-0.12001220721752358
-0.13232115154751534
-0.14463009587750708
-0.16309351237253633
-0.17540245670252808
-0.20002034536253932
-0.1938658731975296
-0.20617481752752131
-0.21848376185754081
-0.2246382340225228
-0.2554105948475438
-0.2554105948475438
-0.2369471783525424
-0.2369471783525424
-0.2369471783525424
-0.2431016505175243
-0.24925612268253405
-0.2431016505175243
-0.2554105948475438
-0.2431016505175243
-0.23079270618753256
-0.2431016505175243
-0.2431016505175243
-0.2431016505175243
-0.2431016505175243
-0.2369471783525424
-0.2369471783525424
-0.2369471783525424
-0.2369471783525424
-0.23079270618753256
-0.2369471783525424
-0.2369471783525424
-0.2369471783525424
-0.2431016505175243
-0.2431016505175243
-0.2369471783525424
-0.2369471783525424
-0.2369471783525424
-0.2369471783525424
-0.2246382340225228
-0.2369471783525424
-0.2369471783525424
-0.2369471783525424
-0.23079270618753256
-0.2369471783525424
-0.23079270618753256
-0.23079270618753256
-0.2246382340225228
-0.2246382340225228
-0.2246382340225228
-0.23079270618753256
-0.23079270618753256
-0.2246382340225228
-0.21848376185754081
-0.2246382340225228
-0.23079270618753256
-0.2246382340225228
-0.2246382340225228
-0.2246382340225228
-0.21848376185754081
-0.2246382340225228
-0.2246382340225228
-0.21848376185754081
-0.2246382340225228
-0.21848376185754081
-0.21848376185754081
-0.21848376185754081
-0.23079270618753256
-0.23079270618753256
-0.21848376185754081
-0.21848376185754081
-0.21232928969253104
-0.21848376185754081
-0.21848376185754081
-0.21232928969253104
-0.21848376185754081
-0.21848376185754081
-0.21232928969253104
-0.21848376185754081
-0.21232928969253104
-0.21232928969253104
-0.21848376185754081
-0.2246382340225228
-0.2246382340225228
-0.21848376185754081
-0.2246382340225228
-0.2246382340225228
-0.21848376185754081
-0.20617481752752131
-0.21232928969253104
-0.20617481752752131
-0.20002034536253932
-0.20617481752752131
-0.1938658731975296
-0.18771140103251985
-0.18771140103251985
-0.1938658731975296
-0.1938658731975296
-0.20617481752752131
-0.20617481752752131
-0.20002034536253932
-0.20002034536253932
-0.20002034536253932
-0.20617481752752131
-0.21232928969253104
-0.20002034536253932
-0.21232928969253104
-0.2369471783525424
-0.2246382340225228
-0.2369471783525424
-0.2369471783525424
-0.23079270618753256
-0.23079270618753256
-0.2369471783525424
-0.2369471783525424
-0.2369471783525424
-0.2431016505175243
-0.2431016505175243
-0.2369471783525424
-0.2246382340225228
-0.23079270618753256
-0.2369471783525424
-0.2369471783525424
-0.2369471783525424
-0.24925612268253405
-0.2554105948475438
-0.2431016505175243
-0.21232928969253104
-0.14463009587750708
-0.06462195773251911
0.02154065257750637
0.15693904020752658
0.2800284835075273
0.24925612268253405
0.06462195773251911
-0.08923984639250257
-0.2246382340225228
-0.2369471783525424
-0.2369471783525424
-0.23079270618753256
-0.2369471783525424
-0.24925612268253405
-0.2554105948475438
-0.24925612268253405
-0.26156506701252585
-0.26156506701252585
-0.26156506701252585
-0.2554105948475438
-0.26156506701252585
-0.2554105948475438
-0.2554105948475438
-0.24925612268253405
-0.2554105948475438
-0.2431016505175243
-0.24925612268253405
-0.24925612268253405
-0.2431016505175243
-0.2431016505175243
-0.2369471783525424
-0.2369471783525424
-0.2369471783525424
-0.2369471783525424
-0.2369471783525424
-0.2369471783525424
-0.23079270618753256
-0.2369471783525424
-0.2246382340225228
-0.23079270618753256
-0.2246382340225228
-0.2246382340225228
-0.23079270618753256
-0.21848376185754081
-0.21232928969253104
-0.21232928969253104
-0.21232928969253104
-0.21232928969253104
-0.21232928969253104
-0.20002034536253932
-0.20002034536253932
-0.1938658731975296
-0.20002034536253932
-0.18771140103251985
-0.18155692886753785
-0.1692479845375183
-0.1692479845375183
-0.15693904020752658
-0.15078456804251686
-0.15078456804251686
-0.1384756237125251
-0.1384756237125251
-0.13232115154751534
-0.13232115154751534
-0.13232115154751534
-0.14463009587750708
-0.14463009587750708
-0.14463009587750708
-0.15693904020752658
-0.1692479845375183
-0.18771140103251985
-0.20002034536253932
-0.21848376185754081
-0.23079270618753256
-0.2554105948475438
-0.2554105948475438
-0.24925612268253405
-0.2554105948475438
-0.26156506701252585
-0.2554105948475438
-0.26156506701252585
-0.2554105948475438
-0.26156506701252585
-0.2554105948475438
-0.26156506701252585
-0.26771953917753555
-0.26771953917753555
-0.2554105948475438
-0.2554105948475438
-0.2554105948475438
-0.2554105948475438
-0.2554105948475438
-0.26156506701252585
-0.26156506701252585
-0.26156506701252585
-0.2554105948475438
-0.24925612268253405
-0.24925612268253405
-0.2554105948475438
-0.24925612268253405
-0.2554105948475438
-0.24925612268253405
-0.24925612268253405
-0.2554105948475438
-0.2554105948475438
-0.26156506701252585
-0.26156506701252585
-0.2554105948475438
-0.26156506701252585
-0.2554105948475438
-0.24925612268253405
-0.24925612268253405
-0.24925612268253405
-0.2554105948475438
-0.24925612268253405
-0.24925612268253405
-0.24925612268253405
-0.2554105948475438
-0.2554105948475438
-0.26156506701252585
-0.2554105948475438
-0.26156506701252585
-0.2431016505175243
-0.24925612268253405
-0.24925612268253405
-0.24925612268253405
-0.24925612268253405
-0.2554105948475438
-0.2431016505175243
-0.26771953917753555
-0.26156506701252585
-0.26156506701252585
-0.26156506701252585
-0.24925612268253405
-0.2431016505175243
-0.2431016505175243
-0.2431016505175243
-0.24925612268253405
-0.2431016505175243
-0.2431016505175243
-0.2369471783525424
-0.2431016505175243
-0.2431016505175243
-0.24925612268253405
-0.2431016505175243
-0.24925612268253405
-0.2431016505175243
-0.2369471783525424
-0.2369471783525424
-0.2369471783525424
-0.23079270618753256
-0.2431016505175243
-0.23079270618753256
-0.23079270618753256
-0.2369471783525424
-0.2369471783525424
-0.23079270618753256
-0.2369471783525424
-0.2369471783525424
-0.2369471783525424
-0.2431016505175243
-0.2431016505175243
-0.2369471783525424
-0.2369471783525424
-0.23079270618753256
-0.2246382340225228
-0.2246382340225228
-0.2246382340225228
-0.21848376185754081
-0.21848376185754081
-0.21232928969253104
-0.20617481752752131
-0.20002034536253932
-0.21232928969253104
-0.21848376185754081
-0.2246382340225228
-0.2246382340225228
-0.23079270618753256
-0.2246382340225228
-0.23079270618753256
-0.23079270618753256
-0.2431016505175243
-0.2369471783525424
-0.2369471783525424
-0.2554105948475438
-0.2554105948475438
-0.26156506701252585
-0.2554105948475438
-0.2431016505175243
-0.23079270618753256
-0.23079270618753256
-0.23079270618753256
-0.2369471783525424
-0.24925612268253405
-0.2431016505175243
-0.24925612268253405
-0.24925612268253405
-0.24925612268253405
-0.24925612268253405
-0.2554105948475438
-0.2554105948475438
-0.26156506701252585
-0.26156506701252585
-0.2431016505175243
-0.21232928969253104
-0.1384756237125251
-0.04615854123751762
0.0707764298975011
0.20002034536253932
0.28618295567253704
0.20002034536253932
0.009231708247514623
-0.16309351237253633
-0.26156506701252585
-0.2554105948475438
-0.2554105948475438
-0.26771953917753555
-0.2554105948475438
-0.24925612268253405
-0.26156506701252585
-0.2738740113425453
-0.2738740113425453
-0.2800284835075273
-0.2738740113425453
-0.26771953917753555
-0.2738740113425453
-0.2800284835075273
-0.2738740113425453
-0.2738740113425453
-0.2800284835075273
-0.2800284835075273
-0.26771953917753555
-0.26771953917753555
-0.26771953917753555
-0.26156506701252585
-0.26156506701252585
-0.2554105948475438
-0.2554105948475438
-0.2554105948475438
-0.2554105948475438
-0.24925612268253405
-0.2554105948475438
-0.24925612268253405
-0.24925612268253405
-0.2369471783525424
-0.2369471783525424
-0.23079270618753256
-0.2369471783525424
-0.2369471783525424
-0.26156506701252585
-0.2431016505175243
-0.2369471783525424
-0.2246382340225228
-0.21848376185754081
-0.2246382340225228
-0.21232928969253104
-0.21848376185754081
-0.1938658731975296
-0.17540245670252808
-0.18155692886753785
-0.18155692886753785
-0.17540245670252808
-0.1692479845375183
-0.17540245670252808
-0.1692479845375183
-0.15693904020752658
-0.15078456804251686
-0.14463009587750708
-0.14463009587750708
-0.1384756237125251
-0.15693904020752658
-0.16309351237253633
-0.1692479845375183
-0.18155692886753785
-0.20617481752752131
-0.20002034536253932
-0.21232928969253104
-0.23079270618753256
-0.2431016505175243
-0.2554105948475438
-0.26156506701252585
-0.26156506701252585
-0.2738740113425453
-0.26771953917753555
-0.2800284835075273
-0.28618295567253704
-0.2800284835075273
-0.2738740113425453
-0.2800284835075273
-0.2738740113425453
-0.2800284835075273
-0.28618295567253704
-0.2800284835075273
-0.26771953917753555
-0.28618295567253704
-0.2800284835075273
-0.2800284835075273
-0.2800284835075273
-0.26771953917753555
-0.26156506701252585
-0.26771953917753555
-0.2800284835075273
-0.28618295567253704
-0.2738740113425453
-0.26156506701252585
-0.2554105948475438
-0.26771953917753555
-0.26771953917753555
-0.26156506701252585
-0.26771953917753555
-0.2738740113425453
-0.2738740113425453
-0.2738740113425453
-0.26156506701252585
-0.26156506701252585
-0.26156506701252585
-0.26771953917753555
-0.24925612268253405
-0.24925612268253405
-0.26156506701252585
-0.2554105948475438
-0.2738740113425453
-0.2554105948475438
-0.24925612268253405
-0.2431016505175243
-0.24925612268253405
-0.24925612268253405
-0.2431016505175243
-0.2554105948475438
-0.2431016505175243
-0.24925612268253405
-0.2431016505175243
-0.24925612268253405
-0.24925612268253405
-0.2554105948475438
-0.2554105948475438
-0.2554105948475438
-0.24925612268253405
-0.2431016505175243
-0.23079270618753256
-0.2246382340225228
-0.23079270618753256
-0.2369471783525424
-0.2431016505175243
-0.21848376185754081
-0.23079270618753256
-0.2369471783525424
-0.2431016505175243
-0.2431016505175243
-0.2369471783525424
-0.2369471783525424
-0.2431016505175243
-0.24925612268253405
-0.23079270618753256
-0.2369471783525424
-0.23079270618753256
-0.2246382340225228
-0.23079270618753256
-0.2369471783525424
-0.2431016505175243
-0.24925612268253405
-0.24925612268253405
-0.23079270618753256
-0.23079270618753256
-0.23079270618753256
-0.21232928969253104
-0.2246382340225228
-0.2246382340225228
-0.2431016505175243
-0.2431016505175243
-0.2369471783525424
-0.2246382340225228
-0.20617481752752131
-0.20617481752752131
-0.20617481752752131
-0.21848376185754081
-0.21848376185754081
-0.2246382340225228
-0.2369471783525424
-0.2431016505175243
-0.2431016505175243
-0.2369471783525424
-0.2246382340225228
-0.23079270618753256
-0.2431016505175243
-0.2431016505175243
-0.2369471783525424
-0.21848376185754081
-0.23079270618753256
-0.2369471783525424
-0.2369471783525424
-0.2369471783525424
-0.2431016505175243
-0.2431016505175243
-0.24925612268253405
-0.2431016505175243
-0.2369471783525424
-0.2369471783525424
-0.2431016505175243
-0.2431016505175243
-0.2431016505175243
-0.24925612268253405
-0.26771953917753555
-0.2800284835075273
-0.2738740113425453
-0.21848376185754081
-0.15078456804251686
-0.08923984639250257
0.009231708247514623
0.13232115154751534
0.2369471783525424
0.21848376185754081
0.04615854123751762
-0.11385773505251384
-0.2369471783525424
-0.26771953917753555
-0.26156506701252585
-0.2554105948475438
-0.24925612268253405
-0.24925612268253405
-0.26156506701252585
-0.2738740113425453
-0.2554105948475438
-0.2554105948475438
-0.26156506701252585
-0.24925612268253405
-0.2431016505175243
-0.24925612268253405
-0.24925612268253405
-0.2554105948475438
-0.2431016505175243
-0.24925612268253405
-0.2554105948475438
-0.24925612268253405
-0.2369471783525424
-0.2369471783525424
-0.2369471783525424
-0.2369471783525424
-0.23079270618753256
-0.2246382340225228
-0.2369471783525424
-0.2369471783525424
-0.23079270618753256
-0.2369471783525424
-0.23079270618753256
-0.21848376185754081
-0.23079270618753256
-0.2246382340225228
-0.21232928969253104
-0.21232928969253104
-0.21232928969253104
-0.21848376185754081
-0.20617481752752131
-0.21232928969253104
-0.20002034536253932
-0.1938658731975296
-0.1938658731975296
-0.20002034536253932
-0.18771140103251985
-0.1938658731975296
-0.18155692886753785
-0.17540245670252808
-0.15693904020752658
-0.15693904020752658
-0.16309351237253633
-0.15078456804251686
-0.14463009587750708
-0.1384756237125251
-0.12001220721752358
-0.1261666793825056
-0.1261666793825056
-0.12001220721752358
-0.1384756237125251
-0.15078456804251686
-0.16309351237253633
-0.16309351237253633
-0.18771140103251985
-0.20617481752752131
-0.20617481752752131
-0.21232928969253104
-0.21848376185754081
-0.23079270618753256
-0.2369471783525424
-0.23079270618753256
-0.2431016505175243
-0.26156506701252585
-0.26771953917753555
-0.2738740113425453
-0.26771953917753555
-0.26771953917753555
-0.2738740113425453
-0.2800284835075273
-0.24925612268253405
-0.26156506701252585
-0.26156506701252585
-0.2554105948475438
-0.24925612268253405
-0.2554105948475438
-0.2554105948475438
-0.26771953917753555
-0.2554105948475438
-0.2554105948475438
-0.26156506701252585
-0.26771953917753555
-0.26771953917753555
-0.26156506701252585
-0.26771953917753555
-0.2738740113425453
-0.2554105948475438
-0.2554105948475438
-0.26156506701252585
-0.24925612268253405
-0.24925612268253405
-0.2554105948475438
-0.24925612268253405
-0.26156506701252585
-0.26156506701252585
-0.2554105948475438
-0.2554105948475438
-0.26771953917753555
-0.26156506701252585
-0.24925612268253405
-0.24925612268253405
-0.2554105948475438
-0.26156506701252585
-0.2431016505175243
-0.23079270618753256
-0.2431016505175243
-0.24925612268253405
-0.24925612268253405
-0.26771953917753555
-0.2738740113425453
-0.26771953917753555
-0.2554105948475438
-0.2554105948475438
-0.23079270618753256
-0.2431016505175243
-0.24925612268253405
-0.2431016505175243
-0.24925612268253405
-0.2431016505175243
-0.2369471783525424
-0.24925612268253405
-0.24925612268253405
-0.24925612268253405
-0.2369471783525424
-0.2431016505175243
-0.2431016505175243
-0.2431016505175243
-0.2431016505175243
-0.2369471783525424
-0.2369471783525424
-0.23079270618753256
-0.23079270618753256
-0.23079270618753256
-0.2369471783525424
-0.2431016505175243
-0.2369471783525424
-0.2431016505175243
-0.24925612268253405
-0.24925612268253405
-0.23079270618753256
-0.2246382340225228
-0.23079270618753256
-0.2369471783525424
-0.23079270618753256
-0.23079270618753256
-0.2431016505175243
-0.23079270618753256
-0.21848376185754081
-0.2246382340225228
-0.23079270618753256
-0.23079270618753256
-0.2369471783525424
-0.2246382340225228
-0.1938658731975296
-0.21232928969253104
-0.20617481752752131
-0.1938658731975296
-0.21232928969253104
-0.21232928969253104
-0.21848376185754081
-0.23079270618753256
-0.2369471783525424
-0.2369471783525424
-0.23079270618753256
-0.23079270618753256
-0.23079270618753256
-0.2431016505175243
-0.2431016505175243
-0.24925612268253405
-0.2431016505175243
-0.2431016505175243
-0.24925612268253405
-0.2431016505175243
-0.24925612268253405
-0.23079270618753256
-0.2369471783525424
-0.2369471783525424
-0.23079270618753256
-0.2369471783525424
-0.2246382340225228
-0.2369471783525424
-0.23079270618753256
-0.2431016505175243
-0.24925612268253405
-0.24925612268253405
-0.2431016505175243
-0.20617481752752131
-0.15078456804251686
-0.05231301340249961
0.06462195773251911
0.20002034536253932
0.2984919000025288
0.2246382340225228
0.033849596907498114
-0.10770326288750408
-0.21848376185754081
-0.2369471783525424
-0.24925612268253405
-0.2369471783525424
-0.24925612268253405
-0.24925612268253405
-0.26156506701252585
-0.26771953917753555
-0.26156506701252585
-0.26156506701252585
-0.26156506701252585
-0.2738740113425453
-0.26156506701252585
-0.26771953917753555
-0.26156506701252585
-0.26156506701252585
-0.2554105948475438
-0.26156506701252585
-0.26156506701252585
-0.26156506701252585
-0.24925612268253405
-0.2369471783525424
-0.2369471783525424
-0.23079270618753256
-0.2431016505175243
-0.2369471783525424
-0.2431016505175243
-0.24925612268253405
-0.2369471783525424
-0.2246382340225228
-0.23079270618753256
-0.23079270618753256
-0.2246382340225228
-0.2246382340225228
-0.2246382340225228
-0.21232928969253104
-0.20002034536253932
-0.21232928969253104
-0.21232928969253104
-0.20617481752752131
-0.21848376185754081
-0.21848376185754081
-0.21232928969253104
-0.21232928969253104
-0.20617481752752131
-0.18155692886753785
-0.17540245670252808
-0.18155692886753785
-0.18155692886753785
-0.15078456804251686
-0.1384756237125251
-0.1384756237125251
-0.15078456804251686
-0.15078456804251686
-0.15078456804251686
-0.14463009587750708
-0.1261666793825056
-0.14463009587750708
-0.1261666793825056
-0.15078456804251686
-0.17540245670252808
-0.18155692886753785
-0.18771140103251985
-0.1938658731975296
-0.21232928969253104
-0.2369471783525424
-0.2431016505175243
-0.2431016505175243
-0.24925612268253405
-0.24925612268253405
-0.24925612268253405
-0.2554105948475438
-0.26156506701252585
-0.26771953917753555
-0.26771953917753555
-0.26771953917753555
-0.26156506701252585
-0.26771953917753555
-0.26156506701252585
-0.2738740113425453
-0.28618295567253704
-0.2800284835075273
-0.24925612268253405
-0.24925612268253405
-0.24925612268253405
-0.26156506701252585
-0.26771953917753555
-0.2554105948475438
-0.26156506701252585
-0.2554105948475438
-0.26156506701252585
-0.26156506701252585
-0.26156506701252585
-0.2738740113425453
-0.28618295567253704
-0.26771953917753555
-0.26771953917753555
-0.26771953917753555
-0.26771953917753555
-0.2738740113425453
-0.2738740113425453
-0.2738740113425453
-0.2738740113425453
-0.29233742783754685
-0.2800284835075273
-0.26771953917753555
-0.2554105948475438
-0.26156506701252585
-0.26156506701252585
-0.2738740113425453
-0.24925612268253405
-0.2554105948475438
-0.26156506701252585
-0.26156506701252585
-0.26156506701252585
-0.24925612268253405
-0.26156506701252585
-0.26771953917753555
-0.2738740113425453
-0.26771953917753555
-0.2554105948475438
-0.2554105948475438
-0.2554105948475438
-0.2554105948475438
-0.24925612268253405
