-2.9264515144579173
-2.9264515144579173
-2.901833625797906
-2.8649067928079033
-2.9264515144579173
-2.877215737137895
-2.8341344319829105
-2.871061264972913
-2.9202970422929075
-2.9264515144579173
-2.858752320642893
-2.858752320642893
-2.907988097962916
-2.9202970422929075
-2.9141425701278982
-2.9387604587879093
-2.9141425701278982
-2.9572238752829105
-2.9202970422929075
-2.9387604587879093
-2.96953281961293
-2.994150708272913
-3.018768596932925
-2.981841763942921
-2.895679153632896
-2.877215737137895
-2.9572238752829105
-3.0126141247679152
-2.994150708272913
-2.932605986622927
-2.883370209302905
-2.7418173495078744
-2.347931130947833
-3.560362147453033
-3.3141832608529764
-3.074158846417929
-2.981841763942921
-2.907988097962916
-2.883370209302905
-2.883370209302905
-2.877215737137895
-2.9510694031179288
-2.932605986622927
-2.944914930952919
-2.96953281961293
-2.9510694031179288
-3.043386485592936
-3.0003051804379233
-3.037232013427927
-3.043386485592936
-3.0126141247679152
-3.006459652602933
-2.994150708272913
-2.9879962361079313
-2.9879962361079313
-2.981841763942921
-3.006459652602933
-3.006459652602933
-2.96953281961293
-2.944914930952919
-3.037232013427927
-3.006459652602933
-3.018768596932925
-3.0126141247679152
-2.9387604587879093
-3.0249230690979347
-3.0680043742529195
-3.0680043742529195
-3.049540957757918
-3.043386485592936
-3.037232013427927
-3.006459652602933
-2.96953281961293
-2.9572238752829105
-3.018768596932925
-3.0249230690979347
-3.0003051804379233
-3.0310775412629165
-3.049540957757918
-3.043386485592936
-3.0249230690979347
-3.0310775412629165
-3.049540957757918
-3.049540957757918
-3.037232013427927
-3.0680043742529195
-3.043386485592936
-3.080313318582939
-3.117240151572942
-3.080313318582939
-3.037232013427927
-3.0249230690979347
-3.006459652602933
-3.006459652602933
-3.0003051804379233
-2.8095165433228986
-2.994150708272913
-3.178784873222984
-3.0618499020879373
-3.043386485592936
-2.975687291777912
-2.8895246814679143
-3.043386485592936
-3.037232013427927
-3.049540957757918
-3.0249230690979347
-3.043386485592936
-3.0618499020879373
-3.006459652602933
-3.0126141247679152
-3.055695429922928
-3.1049312072429505
-3.049540957757918
-3.018768596932925
-3.006459652602933
-2.96953281961293
-3.055695429922928
-3.037232013427927
-3.006459652602933
-3.0003051804379233
-3.018768596932925
-2.981841763942921
-2.901833625797906
-2.944914930952919
-3.0126141247679152
-3.006459652602933
-3.006459652602933
-3.0249230690979347
-3.0680043742529195
-3.0310775412629165
-3.080313318582939
-3.049540957757918
-3.0249230690979347
-3.0249230690979347
-3.018768596932925
-3.0126141247679152
-3.006459652602933
-3.0003051804379233
-3.0249230690979347
-3.006459652602933
-3.018768596932925
-3.037232013427927
-3.0249230690979347
-2.9572238752829105
-2.944914930952919
-3.0003051804379233
-2.9572238752829105
-2.9202970422929075
-2.8402889041478923
-2.754126293837894
-2.6987360443528896
-2.7171994608478913
-2.821825487652891
-2.729508405177883
-2.224841687647805
-2.9202970422929075
-2.9264515144579173
-2.907988097962916
-3.055695429922928
-3.6896060629180436
-3.277256427862973
-3.0680043742529195
-3.0249230690979347
-2.9879962361079313
-2.9633783474479203
-2.975687291777912
-2.9572238752829105
-2.895679153632896
-2.877215737137895
-2.944914930952919
-2.9387604587879093
-2.8402889041478923
-2.821825487652891
-2.901833625797906
-2.8402889041478923
-2.8649067928079033
-2.907988097962916
-2.858752320642893
-2.8402889041478923
-2.821825487652891
-2.7910531268278973
-2.8095165433228986
-2.8525978484779113
-2.9510694031179288
-2.895679153632896
-2.821825487652891
-2.8279799598179
-2.944914930952919
-2.932605986622927
-2.9510694031179288
-2.932605986622927
-3.018768596932925
-3.006459652602933
-2.9633783474479203
-2.981841763942921
-2.96953281961293
-2.883370209302905
-2.8464433763129016
-2.8402889041478923
-2.815671015487909
-2.8033620711578893
-2.877215737137895
-2.8279799598179
-2.821825487652891
-2.815671015487909
-2.815671015487909
-2.8033620711578893
-2.815671015487909
-2.7910531268278973
-2.7910531268278973
-2.7848986546628876
-2.815671015487909
-2.858752320642893
-2.8279799598179
-2.797207598992907
-2.9572238752829105
-2.932605986622927
-2.723353933012873
-2.9633783474479203
-3.1049312072429505
-2.994150708272913
-2.9633783474479203
-2.8895246814679143
-2.871061264972913
-2.871061264972913
-2.8895246814679143
-2.883370209302905
-2.8402889041478923
-2.8279799598179
-2.9387604587879093
-2.858752320642893
-2.8649067928079033
-2.8525978484779113
-2.871061264972913
-2.944914930952919
-2.932605986622927
-2.883370209302905
-2.821825487652891
-2.871061264972913
-2.8525978484779113
-2.8402889041478923
-2.877215737137895
-2.8341344319829105
-2.901833625797906
-2.8525978484779113
-2.4587116299178424
-2.1632969659978185
-2.8095165433228986
-2.797207598992907
-2.8341344319829105
-2.8464433763129016
-2.815671015487909
-2.815671015487909
-3.357264566007989
-3.468045064977998
-3.0864677907479487
-2.9387604587879093
-2.772589710332896
-2.9387604587879093
-2.9633783474479203
-2.9510694031179288
-2.975687291777912
-3.006459652602933
-3.0003051804379233
-2.994150708272913
-3.0126141247679152
-3.0310775412629165
-3.006459652602933
-3.0003051804379233
-2.981841763942921
-3.043386485592936
-3.264947483532982
-3.037232013427927
-2.9264515144579173
-2.8895246814679143
-2.6925815721878803
-2.391012436102846
-3.3326466773480057
-3.0864677907479487
-2.9141425701278982
-2.9202970422929075
-2.901833625797906
-2.877215737137895
-2.877215737137895
-2.8402889041478923
-2.821825487652891
-2.871061264972913
-2.8525978484779113
-2.901833625797906
-2.895679153632896
-2.8895246814679143
-2.877215737137895
-2.871061264972913
-2.9264515144579173
-2.9633783474479203
-2.981841763942921
-2.9879962361079313
-2.9387604587879093
-2.907988097962916
-2.907988097962916
-2.975687291777912
-2.944914930952919
-2.9387604587879093
-2.895679153632896
-2.901833625797906
-2.8402889041478923
-2.8341344319829105
-2.895679153632896
-2.9387604587879093
-2.9633783474479203
-2.895679153632896
-2.8649067928079033
-2.8279799598179
-2.778744182497905
-2.8895246814679143
-2.883370209302905
-2.8525978484779113
-2.8402889041478923
-2.821825487652891
-2.8279799598179
-2.821825487652891
-2.8095165433228986
-2.821825487652891
-2.8649067928079033
-2.8649067928079033
-2.8649067928079033
-2.815671015487909
-2.766435238167886
-2.8525978484779113
-2.8464433763129016
-2.815671015487909
-2.7910531268278973
-2.8464433763129016
-2.8402889041478923
-2.772589710332896
-2.772589710332896
-2.6987360443528896
-2.6987360443528896
-2.754126293837894
-2.680272627857888
-3.0126141247679152
-3.160321456727955
-3.1049312072429505
-3.043386485592936
-3.037232013427927
-3.0126141247679152
-2.981841763942921
-2.994150708272913
-2.9633783474479203
-2.975687291777912
-2.975687291777912
-2.9510694031179288
-2.907988097962916
-2.9141425701278982
-2.8895246814679143
-2.858752320642893
-3.0003051804379233
-2.981841763942921
-2.981841763942921
-2.9572238752829105
-2.9879962361079313
-2.9633783474479203
-2.9141425701278982
-2.8279799598179
-2.883370209302905
-2.9264515144579173
-2.9264515144579173
-2.9141425701278982
-2.907988097962916
-2.8895246814679143
-3.0003051804379233
-2.9633783474479203
-2.944914930952919
-2.9264515144579173
-2.9264515144579173
-2.9572238752829105
-2.96953281961293
-2.96953281961293
-2.9572238752829105
-2.932605986622927
-2.9879962361079313
-2.9387604587879093
-2.9572238752829105
-2.8649067928079033
-2.711044988682881
-2.871061264972913
-2.9202970422929075
-2.901833625797906
-2.883370209302905
-2.877215737137895
-2.877215737137895
-2.8895246814679143
-2.9202970422929075
-2.907988097962916
-2.907988097962916
-2.9202970422929075
-2.9141425701278982
-2.6925815721878803
-2.2679229928028177
-2.932605986622927
-2.9141425701278982
-2.9202970422929075
-3.092622262912931
-3.652679229928041
-3.258793011367972
-3.074158846417929
-3.0310775412629165
-3.0618499020879373
-3.0618499020879373
-3.018768596932925
-3.0249230690979347
-3.0618499020879373
-3.1295490959029335
-3.1049312072429505
-3.080313318582939
-3.055695429922928
-3.0126141247679152
-2.9141425701278982
-2.871061264972913
-2.901833625797906
-2.895679153632896
-2.895679153632896
-2.883370209302905
-2.895679153632896
-2.907988097962916
-2.8279799598179
-2.4402482134228407
-2.6925815721878803
-2.8279799598179
-2.8649067928079033
-2.8895246814679143
-2.907988097962916
-2.9387604587879093
-2.9264515144579173
-2.932605986622927
-2.944914930952919
-2.981841763942921
-2.9879962361079313
-2.9510694031179288
-2.981841763942921
-3.3511100938430074
-3.2280206505429785
-2.9879962361079313
-2.907988097962916
-2.877215737137895
-2.871061264972913
-2.8464433763129016
-2.8279799598179
-2.883370209302905
-2.871061264972913
-2.8525978484779113
-2.895679153632896
-2.932605986622927
-2.9572238752829105
-2.9879962361079313
-2.994150708272913
-2.975687291777912
-2.9879962361079313
-2.981841763942921
-2.9572238752829105
-2.895679153632896
-2.7418173495078744
-2.96953281961293
-3.0987767350779407
-2.96953281961293
-2.975687291777912
-2.9572238752829105
-2.932605986622927
-2.9202970422929075
-2.96953281961293
-2.96953281961293
-2.932605986622927
-2.858752320642893
-2.8095165433228986
-2.907988097962916
-2.9202970422929075
-2.907988097962916
-2.9264515144579173
-2.9264515144579173
-2.9141425701278982
-2.9264515144579173
-2.932605986622927
-2.901833625797906
-2.975687291777912
-2.9264515144579173
-2.901833625797906
-2.9387604587879093
-2.9202970422929075
-2.901833625797906
-2.907988097962916
-2.96953281961293
-2.96953281961293
-2.981841763942921
-2.9510694031179288
-2.932605986622927
-2.9633783474479203
-2.944914930952919
-3.018768596932925
-3.0126141247679152
-3.0310775412629165
-3.006459652602933
-2.981841763942921
-2.96953281961293
-2.96953281961293
-2.9633783474479203
-2.944914930952919
-2.9572238752829105
-2.9633783474479203
-2.9572238752829105
-2.895679153632896
-2.9387604587879093
-3.049540957757918
-3.0249230690979347
-2.994150708272913
-2.9510694031179288
-2.877215737137895
-2.907988097962916
-2.9510694031179288
-2.975687291777912
-2.7848986546628876
-2.6064189618778553
-3.461890592813016
-3.1664759288929645
-2.994150708272913
-2.9264515144579173
-2.871061264972913
-2.877215737137895
-2.8464433763129016
-2.797207598992907
-2.7418173495078744
-2.6433457948678853
-2.6618092113628857
-2.7910531268278973
-2.9264515144579173
-3.0003051804379233
-2.96953281961293
-2.944914930952919
-2.96953281961293
-2.9202970422929075
-2.944914930952919
-3.006459652602933
-2.9879962361079313
-2.9510694031179288
-2.9387604587879093
-2.975687291777912
-2.994150708272913
-2.975687291777912
-2.994150708272913
-3.006459652602933
-2.994150708272913
-2.9879962361079313
-2.96953281961293
-2.932605986622927
-3.0126141247679152
-3.0310775412629165
-2.994150708272913
-2.96953281961293
-2.9510694031179288
-2.994150708272913
-2.9572238752829105
-2.2309961598128147
-2.507947407237865
-2.9879962361079313
-3.0618499020879373
-2.9633783474479203
-2.96953281961293
-2.9387604587879093
-2.981841763942921
-3.6465247577630313
-3.308028788687994
-3.080313318582939
-3.018768596932925
-2.994150708272913
-2.9879962361079313
-2.981841763942921
-2.944914930952919
-2.981841763942921
-3.0003051804379233
-2.96953281961293
-2.975687291777912
-2.944914930952919
-2.907988097962916
-3.0249230690979347
-2.981841763942921
-2.9264515144579173
-2.9264515144579173
-2.9202970422929075
-2.901833625797906
-2.907988097962916
-2.883370209302905
-2.9202970422929075
-2.907988097962916
-2.9202970422929075
-2.9141425701278982
-2.8895246814679143
-2.821825487652891
-2.9633783474479203
-2.9264515144579173
-2.944914930952919
-2.932605986622927
-2.9202970422929075
-2.932605986622927
-2.96953281961293
-2.981841763942921
-2.96953281961293
-2.9510694031179288
-2.9510694031179288
-2.975687291777912
-3.0003051804379233
-2.907988097962916
-3.0126141247679152
-3.006459652602933
-2.981841763942921
-2.994150708272913
-2.944914930952919
-2.9879962361079313
-3.0126141247679152
-2.994150708272913
-2.981841763942921
-3.0003051804379233
-2.994150708272913
-2.9879962361079313
-2.9633783474479203
-2.821825487652891
-2.877215737137895
-3.178784873222984
-3.055695429922928
-3.0126141247679152
-3.006459652602933
-3.0003051804379233
-2.9572238752829105
-3.018768596932925
-3.037232013427927
-3.0310775412629165
-3.006459652602933
-3.018768596932925
-3.0310775412629165
-2.907988097962916
-2.877215737137895
-2.981841763942921
-2.9879962361079313
-2.766435238167886
-2.212532743317813
-2.9141425701278982
-2.9387604587879093
-2.975687291777912
-3.258793011367972
-3.664988174258033
-3.2034027618829675
-3.0987767350779407
-3.074158846417929
-3.1110856794079322
-3.2711019556979917
-3.1664759288929645
-3.055695429922928
-3.0126141247679152
-3.018768596932925
-3.043386485592936
-3.0249230690979347
-3.0003051804379233
-3.006459652602933
-3.018768596932925
-2.981841763942921
-3.0618499020879373
-3.0249230690979347
-2.96953281961293
-2.981841763942921
-3.0310775412629165
-2.981841763942921
-2.96953281961293
-2.981841763942921
-3.0003051804379233
-2.9879962361079313
-2.981841763942921
-2.994150708272913
-2.9879962361079313
-2.981841763942921
-2.981841763942921
-3.0003051804379233
-2.96953281961293
-3.0003051804379233
-3.043386485592936
-3.018768596932925
-2.9879962361079313
-2.975687291777912
-2.9879962361079313
-2.96953281961293
-3.018768596932925
-2.994150708272913
-2.9510694031179288
-2.9879962361079313
-2.994150708272913
-2.944914930952919
-2.9141425701278982
-2.96953281961293
-3.043386485592936
-3.006459652602933
-2.96953281961293
-2.981841763942921
-3.006459652602933
-3.0126141247679152
-3.018768596932925
-3.006459652602933
-2.994150708272913
-2.9633783474479203
-2.8464433763129016
-2.96953281961293
-3.160321456727955
-2.96953281961293
-3.0126141247679152
-3.0249230690979347
-3.0126141247679152
-3.018768596932925
-3.006459652602933
-3.006459652602933
-3.0126141247679152
-3.006459652602933
-2.9572238752829105
-3.043386485592936
-3.0249230690979347
-2.994150708272913
-3.0003051804379233
-2.9572238752829105
-3.0249230690979347
-2.96953281961293
-2.8649067928079033
-2.8649067928079033
-2.754126293837894
-2.704890516517872
-2.7910531268278973
-2.907988097962916
-2.981841763942921
-3.0618499020879373
-3.043386485592936
-3.018768596932925
-3.0003051804379233
-2.96953281961293
-3.037232013427927
-3.006459652602933
-3.0249230690979347
-3.0310775412629165
-3.0249230690979347
-3.018768596932925
-3.043386485592936
-3.043386485592936
-3.0310775412629165
-3.037232013427927
-3.018768596932925
-3.0126141247679152
-3.0249230690979347
-2.994150708272913
-3.1049312072429505
-3.043386485592936
-3.0249230690979347
-3.055695429922928
-3.037232013427927
-3.006459652602933
-3.0003051804379233
-2.981841763942921
-2.96953281961293
-2.9510694031179288
-2.975687291777912
-2.96953281961293
-2.760280766002876
-2.587955545382853
-3.3203377330179857
-3.0618499020879373
-2.9879962361079313
-2.932605986622927
-2.9387604587879093
-2.975687291777912
-2.9879962361079313
-2.944914930952919
-2.975687291777912
-2.9879962361079313
-2.9879962361079313
-2.9879962361079313
-2.975687291777912
-2.9572238752829105
-3.049540957757918
-2.9633783474479203
-2.9510694031179288
-2.9141425701278982
-2.9264515144579173
-2.9141425701278982
-2.907988097962916
-2.895679153632896
-2.907988097962916
-2.883370209302905
-2.9141425701278982
-2.8895246814679143
-2.871061264972913
-2.8464433763129016
-2.883370209302905
-2.9387604587879093
-2.8895246814679143
-2.883370209302905
-2.895679153632896
-2.9141425701278982
-2.932605986622927
-2.944914930952919
-2.9141425701278982
-2.9202970422929075
-2.932605986622927
-2.944914930952919
-2.9264515144579173
-2.895679153632896
-2.9202970422929075
-2.975687291777912
-2.9510694031179288
-2.9387604587879093
-2.944914930952919
-3.006459652602933
-3.043386485592936
-2.994150708272913
-2.9510694031179288
-2.9141425701278982
-2.944914930952919
-2.9510694031179288
-2.96953281961293
-2.9141425701278982
-2.8895246814679143
-2.975687291777912
-2.944914930952919
-2.9387604587879093
-2.9387604587879093
-2.9141425701278982
-2.6987360443528896
-2.944914930952919
-3.1049312072429505
-2.9572238752829105
-2.9264515144579173
-2.9264515144579173
-2.9264515144579173
-2.9202970422929075
-2.8464433763129016
-2.944914930952919
-2.9510694031179288
-2.9141425701278982
-2.9141425701278982
-2.9202970422929075
-2.9202970422929075
-2.895679153632896
-2.907988097962916
-2.9572238752829105
-2.9572238752829105
-2.9633783474479203
-2.975687291777912
-2.981841763942921
-3.006459652602933
-3.049540957757918
-2.9879962361079313
-3.018768596932925
-3.0249230690979347
-3.018768596932925
-3.037232013427927
-3.0310775412629165
-3.018768596932925
-3.018768596932925
-3.006459652602933
-3.049540957757918
-3.018768596932925
-3.0126141247679152
-2.9633783474479203
-3.049540957757918
-3.049540957757918
-3.0126141247679152
-3.049540957757918
-3.0310775412629165
-3.018768596932925
-3.0249230690979347
-3.0126141247679152
-3.0249230690979347
-3.0310775412629165
-2.858752320642893
-2.4279392690928487
-2.723353933012873
-2.877215737137895
-2.9633783474479203
-2.975687291777912
-2.944914930952919
-2.9264515144579173
-3.184939345387966
-3.6465247577630313
-3.172630401057975
-2.797207598992907
-2.200223798987821
-2.9202970422929075
-2.9202970422929075
-2.9264515144579173
-3.308028788687994
-3.5418987309580316
-3.160321456727955
-3.0618499020879373
-3.037232013427927
-3.0618499020879373
-3.018768596932925
-3.018768596932925
-3.006459652602933
-3.037232013427927
-3.0618499020879373
-3.043386485592936
-3.0310775412629165
-3.0249230690979347
-3.043386485592936
-2.994150708272913
-3.049540957757918
-3.0864677907479487
-3.074158846417929
-3.055695429922928
-3.043386485592936
-3.0310775412629165
-3.0126141247679152
-2.9633783474479203
-2.8895246814679143
-2.8402889041478923
-2.772589710332896
-2.7418173495078744
-2.8095165433228986
-2.877215737137895
-3.0126141247679152
-3.1357035680679433
-3.0618499020879373
-3.055695429922928
-3.0680043742529195
-3.043386485592936
-3.0618499020879373
-3.092622262912931
-3.0987767350779407
-3.055695429922928
-3.049540957757918
-3.074158846417929
-3.0310775412629165
-2.9879962361079313
-3.0003051804379233
-3.055695429922928
-3.0249230690979347
-3.006459652602933
-3.006459652602933
-2.975687291777912
-3.006459652602933
-2.981841763942921
-2.975687291777912
-2.96953281961293
-2.9879962361079313
-2.9572238752829105
-2.9510694031179288
-2.895679153632896
-2.883370209302905
-2.8033620711578893
-2.994150708272913
-3.1295490959029335
-3.0003051804379233
-2.9510694031179288
-2.9633783474479203
-2.981841763942921
-2.96953281961293
-2.96953281961293
-2.96953281961293
-2.9387604587879093
-2.9633783474479203
-2.895679153632896
-2.8525978484779113
-2.9879962361079313
-2.8895246814679143
-2.9264515144579173
-2.96953281961293
-2.9633783474479203
-2.9264515144579173
-2.9202970422929075
-2.9510694031179288
-2.932605986622927
-2.9141425701278982
-2.944914930952919
-2.9633783474479203
-2.9264515144579173
-2.907988097962916
-3.006459652602933
-3.0003051804379233
-2.994150708272913
-2.9879962361079313
-2.981841763942921
-3.018768596932925
-3.018768596932925
-3.0126141247679152
-3.006459652602933
-3.037232013427927
-3.0310775412629165
-3.037232013427927
-3.0126141247679152
-2.8402889041478923
-2.901833625797906
-3.0310775412629165
-3.0310775412629165
-3.0126141247679152
-3.049540957757918
-3.043386485592936
-3.018768596932925
-3.037232013427927
-3.043386485592936
-3.0249230690979347
-3.055695429922928
-3.043386485592936
-3.018768596932925
-3.1233946237379517
-3.215711706212987
-3.092622262912931
-2.907988097962916
-2.8649067928079033
-3.4557361206480066
-3.1049312072429505
-3.0680043742529195
-3.0680043742529195
-3.037232013427927
-3.0310775412629165
-3.0249230690979347
-3.006459652602933
-3.074158846417929
-3.0249230690979347
-3.1233946237379517
-3.0680043742529195
-3.043386485592936
-3.0249230690979347
-3.0310775412629165
-3.0310775412629165
-3.0618499020879373
-3.055695429922928
-3.049540957757918
-3.049540957757918
-3.0618499020879373
-3.0680043742529195
-3.0310775412629165
-2.901833625797906
-2.6987360443528896
-2.9202970422929075
-2.9633783474479203
-2.981841763942921
-2.994150708272913
-2.994150708272913
-3.0126141247679152
-2.975687291777912
-2.9510694031179288
-2.9387604587879093
-2.932605986622927
-2.96953281961293
-3.0126141247679152
-3.0987767350779407
-3.363419038172999
-3.1357035680679433
-2.9879962361079313
-2.9387604587879093
-2.9141425701278982
-2.901833625797906
-2.901833625797906
-2.901833625797906
-2.9202970422929075
-2.877215737137895
-2.8895246814679143
-2.901833625797906
-2.877215737137895
-2.8464433763129016
-2.895679153632896
-2.932605986622927
-2.8895246814679143
-2.858752320642893
-2.8525978484779113
-2.871061264972913
-2.858752320642893
-2.8525978484779113
-2.895679153632896
-2.907988097962916
-2.711044988682881
-2.975687291777912
-3.0987767350779407
-2.9572238752829105
-2.9264515144579173
-3.037232013427927
-3.0003051804379233
-3.006459652602933
-2.96953281961293
-3.0310775412629165
-3.018768596932925
-2.994150708272913
-3.006459652602933
-3.018768596932925
-3.006459652602933
-2.96953281961293
-2.96953281961293
-2.981841763942921
-2.9879962361079313
-3.0680043742529195
-3.0249230690979347
-2.9879962361079313
-2.975687291777912
-2.9879962361079313
-3.0003051804379233
-3.049540957757918
-3.0310775412629165
-2.981841763942921
-3.0249230690979347
-3.037232013427927
-3.0126141247679152
-2.932605986622927
-2.8525978484779113
-2.9572238752829105
-2.821825487652891
-2.723353933012873
-2.680272627857888
-2.766435238167886
-2.901833625797906
-2.994150708272913
-3.0249230690979347
-3.0310775412629165
-2.994150708272913
-2.994150708272913
-3.0126141247679152
-3.018768596932925
-2.96953281961293
-3.018768596932925
-3.0126141247679152
-3.0249230690979347
-2.9879962361079313
-2.994150708272913
-3.0249230690979347
-3.037232013427927
-3.0310775412629165
-2.96953281961293
-2.9879962361079313
-3.006459652602933
-2.766435238167886
-2.187914854657802
-2.877215737137895
-2.994150708272913
-2.975687291777912
-3.38803692683301
-3.5665166196180156
-3.1357035680679433
-3.049540957757918
-2.9879962361079313
-3.0003051804379233
-2.96953281961293
-2.975687291777912
-2.981841763942921
-2.994150708272913
-2.994150708272913
-2.9510694031179288
-3.049540957757918
-3.0003051804379233
-2.96953281961293
-2.9879962361079313
-3.006459652602933
-3.0249230690979347
-2.9879962361079313
-2.9879962361079313
-2.9879962361079313
-3.0003051804379233
-2.9879962361079313
-2.994150708272913
-2.975687291777912
-2.8895246814679143
-2.723353933012873
-2.8649067928079033
-2.932605986622927
-2.9510694031179288
-2.9510694031179288
-2.932605986622927
-2.9510694031179288
-2.9387604587879093
-2.895679153632896
-2.9141425701278982
-2.932605986622927
-2.9510694031179288
-2.9510694031179288
-3.0003051804379233
-3.1233946237379517
-3.049540957757918
-3.006459652602933
-2.975687291777912
-3.0126141247679152
-3.018768596932925
-3.0249230690979347
-2.981841763942921
-3.0310775412629165
-3.055695429922928
-3.043386485592936
-3.0310775412629165
-3.037232013427927
-3.049540957757918
-3.1295490959029335
-2.7848986546628876
-2.409475852597848
-2.711044988682881
-3.1357035680679433
-3.043386485592936
-3.018768596932925
-3.018768596932925
-3.049540957757918
-3.535744258793022
-3.615752396938038
-3.2280206505429785
-3.154166984562973
-3.074158846417929
-2.711044988682881
-2.883370209302905
-3.018768596932925
-3.0003051804379233
-3.0249230690979347
-3.0126141247679152
-3.018768596932925
-3.043386485592936
-3.037232013427927
-3.0003051804379233
-3.018768596932925
-3.0310775412629165
-3.0249230690979347
-3.0310775412629165
-3.277256427862973
-3.2280206505429785
-3.043386485592936
-3.037232013427927
-3.055695429922928
-3.0618499020879373
-3.037232013427927
-3.0310775412629165
-3.043386485592936
-3.0618499020879373
-3.049540957757918
-3.0310775412629165
-3.0310775412629165
-3.055695429922928
-3.0864677907479487
-3.141858040232953
-3.0864677907479487
-3.092622262912931
-3.092622262912931
-3.080313318582939
-3.0618499020879373
-3.037232013427927
-3.018768596932925
-3.0310775412629165
-3.0249230690979347
-3.018768596932925
-3.018768596932925
-3.006459652602933
-3.0618499020879373
-3.1664759288929645
-3.0864677907479487
-3.055695429922928
-3.049540957757918
-3.055695429922928
-3.0310775412629165
-2.871061264972913
-2.446402685587851
-2.8525978484779113
-2.981841763942921
-3.0126141247679152
-2.9879962361079313
-2.975687291777912
-2.7848986546628876
-2.821825487652891
-3.492662953638009
-3.492662953638009
-3.1295490959029335
-3.049540957757918
-3.0126141247679152
-3.018768596932925
-3.0249230690979347
-3.0249230690979347
-3.037232013427927
-3.0249230690979347
-3.0249230690979347
-3.018768596932925
-3.0618499020879373
-3.1664759288929645
-3.043386485592936
-3.018768596932925
-2.981841763942921
-3.0126141247679152
-2.9879962361079313
-3.0003051804379233
-2.9879962361079313
-2.975687291777912
-2.9572238752829105
-2.9510694031179288
-2.9879962361079313
-2.981841763942921
-2.8033620711578893
-2.631036850537866
-2.8895246814679143
-2.9510694031179288
-2.9572238752829105
-3.018768596932925
-3.0310775412629165
-2.9572238752829105
-2.932605986622927
-2.907988097962916
-2.8895246814679143
-2.815671015487909
-2.735662877342893
-2.6987360443528896
-2.9141425701278982
-3.326492205182996
-3.172630401057975
-3.0987767350779407
-3.0618499020879373
-3.055695429922928
-3.0249230690979347
-2.994150708272913
-3.0680043742529195
-3.043386485592936
-3.006459652602933
-2.9879962361079313
-3.0003051804379233
-3.0249230690979347
-2.9633783474479203
-2.747971821672884
-3.0126141247679152
-3.191093817552976
-3.037232013427927
-2.981841763942921
-2.9633783474479203
-3.018768596932925
-2.994150708272913
-2.9633783474479203
-3.0126141247679152
-2.981841763942921
-2.981841763942921
-2.981841763942921
-2.932605986622927
-2.9141425701278982
-3.006459652602933
-2.96953281961293
-3.006459652602933
-2.9633783474479203
-2.9633783474479203
-2.9572238752829105
-2.9264515144579173
-2.9510694031179288
-2.9633783474479203
-2.9572238752829105
-2.9572238752829105
-2.9387604587879093
-2.9572238752829105
-2.9264515144579173
-2.994150708272913
-2.96953281961293
-2.9633783474479203
-2.96953281961293
-2.9572238752829105
-2.9510694031179288
-2.9633783474479203
-2.96953281961293
-2.9510694031179288
-2.932605986622927
-2.674118155692878
-2.994150708272913
-3.055695429922928
-2.8525978484779113
-2.9510694031179288
-2.9264515144579173
-2.9202970422929075
-2.9141425701278982
-2.747971821672884
-3.0126141247679152
-2.994150708272913
-2.9510694031179288
-2.9387604587879093
-2.944914930952919
-2.9510694031179288
-2.932605986622927
-2.8895246814679143
-2.981841763942921
-3.1480125123979352
-2.8402889041478923
-2.403321380432838
-2.7910531268278973
-2.895679153632896
-2.9387604587879093
-3.4434271763180146
-3.4865084814730274
-3.117240151572942
-3.043386485592936
-3.0003051804379233
-3.018768596932925
-2.981841763942921
-2.871061264972913
-2.9264515144579173
-2.975687291777912
-2.975687291777912
-2.932605986622927
-2.944914930952919
-2.9264515144579173
-2.9633783474479203
-2.9572238752829105
-2.907988097962916
-2.975687291777912
-2.96953281961293
-2.994150708272913
-2.9572238752829105
-2.901833625797906
-3.006459652602933
-2.96953281961293
-2.9572238752829105
-2.9633783474479203
-2.944914930952919
-2.9510694031179288
-2.944914930952919
-2.9387604587879093
-2.9572238752829105
-3.0003051804379233
-2.9633783474479203
-2.9510694031179288
-2.932605986622927
-2.895679153632896
-2.8095165433228986
-2.932605986622927
-2.9510694031179288
-2.9572238752829105
-2.9879962361079313
-2.975687291777912
-2.981841763942921
-3.0003051804379233
-3.0126141247679152
-2.9879962361079313
-2.9633783474479203
-2.9633783474479203
-2.994150708272913
-3.0310775412629165
-3.178784873222984
-3.074158846417929
-3.055695429922928
-3.0249230690979347
-2.994150708272913
-3.006459652602933
-3.0249230690979347
-3.0126141247679152
-2.975687291777912
-2.7910531268278973
-3.018768596932925
-3.160321456727955
-3.0126141247679152
-2.975687291777912
-3.037232013427927
-3.0249230690979347
-2.994150708272913
-2.9572238752829105
-2.994150708272913
-3.006459652602933
-2.975687291777912
-2.9572238752829105
-2.981841763942921
-2.9633783474479203
-2.9572238752829105
-2.96953281961293
-2.944914930952919
-2.944914930952919
-3.037232013427927
-3.080313318582939
-3.037232013427927
-3.0126141247679152
-2.9879962361079313
-2.9633783474479203
-2.9879962361079313
-2.9879962361079313
-2.9264515144579173
-2.9633783474479203
-2.981841763942921
-2.975687291777912
-2.994150708272913
-2.907988097962916
-2.760280766002876
-2.9572238752829105
-2.68642710002287
-3.0126141247679152
-3.1049312072429505
-3.006459652602933
-2.981841763942921
-2.9633783474479203
-2.9572238752829105
-2.9633783474479203
-2.9572238752829105
-3.0249230690979347
-2.994150708272913
-2.9633783474479203
-2.944914930952919
-2.994150708272913
-2.895679153632896
-2.821825487652891
-2.754126293837894
-2.6925815721878803
-2.667963683527869
-2.766435238167886
-2.8895246814679143
-2.981841763942921
-2.975687291777912
-2.7418173495078744
-2.329467714452832
-2.7910531268278973
-2.821825487652891
-2.96953281961293
-2.9202970422929075
-2.9264515144579173
-2.9387604587879093
-2.9633783474479203
-2.797207598992907
-2.8649067928079033
-3.055695429922928
-3.092622262912931
-2.994150708272913
-2.981841763942921
-2.975687291777912
-3.049540957757918
-3.5849800361130173
-3.406500343328012
-3.117240151572942
-3.049540957757918
-3.0310775412629165
-3.006459652602933
-3.0003051804379233
-2.981841763942921
-2.981841763942921
-3.0310775412629165
-2.9879962361079313
-2.975687291777912
-2.9879962361079313
-2.975687291777912
-2.901833625797906
-3.0249230690979347
-2.994150708272913
-2.975687291777912
-2.9879962361079313
-2.994150708272913
-2.994150708272913
-2.96953281961293
-2.975687291777912
-2.944914930952919
-3.0003051804379233
-2.981841763942921
-2.975687291777912
-2.9510694031179288
-2.735662877342893
-2.5325652958978484
-2.797207598992907
-2.8341344319829105
-2.907988097962916
-2.877215737137895
-2.877215737137895
-2.883370209302905
-2.895679153632896
-2.895679153632896
-2.932605986622927
-2.9141425701278982
-2.895679153632896
-2.895679153632896
-3.018768596932925
-3.381882454668
-3.117240151572942
-2.981841763942921
-2.9879962361079313
-3.0003051804379233
-3.018768596932925
-3.006459652602933
-2.9879962361079313
-3.006459652602933
-3.0003051804379233
-2.975687291777912
-2.9879962361079313
-2.858752320642893
-2.8279799598179
-3.1480125123979352
-3.080313318582939
-3.0126141247679152
-3.0003051804379233
-3.0003051804379233
-2.975687291777912
-3.0126141247679152
-3.018768596932925
-2.975687291777912
-2.981841763942921
-2.994150708272913
-3.018768596932925
-3.0003051804379233
-2.981841763942921
-3.043386485592936
-3.0680043742529195
-3.0249230690979347
-2.9879962361079313
-3.006459652602933
-3.006459652602933
-3.0003051804379233
-2.360240075277825
-3.1295490959029335
-3.406500343328012
-3.0680043742529195
-3.006459652602933
-3.006459652602933
-2.981841763942921
-2.9264515144579173
-3.0126141247679152
-3.0249230690979347
-3.037232013427927
-3.018768596932925
-3.018768596932925
-3.049540957757918
-3.037232013427927
-3.0310775412629165
-3.006459652602933
-3.0864677907479487
-3.074158846417929
-3.055695429922928
-3.0249230690979347
-3.049540957757918
-3.1295490959029335
-3.0618499020879373
-3.037232013427927
-3.080313318582939
-3.018768596932925
-2.8095165433228986
-2.2802319371328093
-2.9633783474479203
-2.96953281961293
-3.018768596932925
-3.5911345082780266
-3.449581648482997
-3.092622262912931
-3.0249230690979347
-3.1357035680679433
-3.080313318582939
-3.080313318582939
-3.049540957757918
-3.055695429922928
-3.0680043742529195
-3.037232013427927
-3.074158846417929
-3.074158846417929
-3.0618499020879373
-3.043386485592936
-3.043386485592936
-3.0249230690979347
-2.994150708272913
-3.0680043742529195
-3.092622262912931
-3.1049312072429505
-3.055695429922928
-3.055695429922928
-3.049540957757918
-3.080313318582939
-3.0864677907479487
-3.080313318582939
-3.092622262912931
-3.0864677907479487
-3.055695429922928
-3.043386485592936
-2.9510694031179288
-2.981841763942921
-3.0680043742529195
-3.055695429922928
-3.055695429922928
-3.0618499020879373
-3.0864677907479487
-3.080313318582939
-3.074158846417929
-3.080313318582939
-3.080313318582939
-3.074158846417929
-3.049540957757918
-3.037232013427927
-3.074158846417929
-3.191093817552976
-3.0987767350779407
-3.043386485592936
-3.037232013427927
-3.043386485592936
-3.018768596932925
-2.975687291777912
-2.9572238752829105
-2.981841763942921
-2.9510694031179288
-2.9633783474479203
-2.9633783474479203
-2.9387604587879093
-2.7171994608478913
-2.895679153632896
-3.1233946237379517
-3.0310775412629165
-3.006459652602933
-3.018768596932925
-3.0126141247679152
-2.9879962361079313
-2.975687291777912
-2.9264515144579173
-2.8402889041478923
-2.778744182497905
-2.729508405177883
-2.6925815721878803
-2.747971821672884
-2.994150708272913
-3.0864677907479487
-3.0003051804379233
-2.9387604587879093
-2.9510694031179288
-3.006459652602933
-3.0003051804379233
-2.994150708272913
-3.006459652602933
-3.0003051804379233
-2.981841763942921
-2.975687291777912
-2.994150708272913
-2.96953281961293
-2.994150708272913
-3.049540957757918
-3.0310775412629165
-3.0249230690979347
-3.0249230690979347
-3.0126141247679152
-2.9879962361079313
-3.037232013427927
-3.0864677907479487
-3.043386485592936
-3.043386485592936
-3.043386485592936
-3.018768596932925
-2.9202970422929075
-2.907988097962916
-2.981841763942921
-2.9202970422929075
-2.8895246814679143
-2.901833625797906
-2.901833625797906
-2.9202970422929075
-2.9510694031179288
-2.9572238752829105
-3.006459652602933
-3.037232013427927
-3.0003051804379233
-2.96953281961293
-2.975687291777912
-2.9633783474479203
-2.9141425701278982
-2.477175046412844
-2.729508405177883
-2.858752320642893
-2.9202970422929075
-2.9202970422929075
-2.932605986622927
-2.9633783474479203
-3.018768596932925
-3.560362147453033
-3.3326466773480057
-3.0680043742529195
-2.9879962361079313
-2.9141425701278982
-3.006459652602933
-3.006459652602933
-2.975687291777912
-2.9572238752829105
-2.981841763942921
-2.975687291777912
-2.9879962361079313
-2.994150708272913
-3.0126141247679152
-3.0126141247679152
-3.0249230690979347
-3.049540957757918
-2.994150708272913
-2.96953281961293
-3.092622262912931
-3.049540957757918
-3.0126141247679152
-3.006459652602933
-3.043386485592936
-3.0680043742529195
-3.043386485592936
-3.0249230690979347
-3.049540957757918
-3.0310775412629165
-3.0003051804379233
-3.006459652602933
-2.981841763942921
-3.0003051804379233
-3.080313318582939
-3.055695429922928
-3.0680043742529195
-3.0618499020879373
-3.049540957757918
-3.049540957757918
-3.0310775412629165
-3.080313318582939
-3.043386485592936
-3.0249230690979347
-3.0126141247679152
-3.0310775412629165
-3.037232013427927
-2.975687291777912
-3.049540957757918
-3.154166984562973
-3.0987767350779407
-3.037232013427927
-3.006459652602933
-3.055695429922928
-3.049540957757918
-3.0003051804379233
-2.821825487652891
-3.043386485592936
-3.2218661783779687
-3.1295490959029335
-3.043386485592936
-3.0310775412629165
-3.1049312072429505
-3.092622262912931
-3.0249230690979347
-3.037232013427927
-3.043386485592936
-3.0249230690979347
-3.0310775412629165
-3.0310775412629165
-3.049540957757918
-2.9202970422929075
-2.434093741257831
-2.766435238167886
-2.9202970422929075
-2.994150708272913
-3.0126141247679152
-3.0126141247679152
-3.0310775412629165
-3.2341751227079882
-3.7142239515780546
-3.2403295948729705
-3.1110856794079322
-3.0864677907479487
-3.074158846417929
-3.074158846417929
-3.074158846417929
-3.0618499020879373
-3.049540957757918
-3.018768596932925
-3.0864677907479487
-3.1110856794079322
-3.074158846417929
-3.0618499020879373
-3.037232013427927
-3.0310775412629165
-3.074158846417929
-3.037232013427927
-3.0310775412629165
-3.055695429922928
-3.0618499020879373
-3.049540957757918
-3.018768596932925
-2.96953281961293
-3.0680043742529195
-3.074158846417929
-3.018768596932925
-3.043386485592936
-3.0680043742529195
-3.037232013427927
-3.037232013427927
-3.043386485592936
-3.0680043742529195
-3.055695429922928
-2.8341344319829105
-2.4402482134228407
-2.8033620711578893
-2.907988097962916
-2.981841763942921
-3.6957605350830534
-3.4188092876580036
-3.1295490959029335
-3.0618499020879373
-3.043386485592936
-3.049540957757918
-3.055695429922928
-3.037232013427927
-3.037232013427927
-3.0618499020879373
-3.0618499020879373
-3.043386485592936
-3.0126141247679152
-3.0003051804379233
-3.141858040232953
-3.117240151572942
-3.080313318582939
-3.0864677907479487
-3.074158846417929
-3.043386485592936
-3.0126141247679152
-2.944914930952919
-2.895679153632896
-2.797207598992907
-2.760280766002876
-2.8279799598179
-2.944914930952919
-3.006459652602933
-3.141858040232953
-3.1233946237379517
-3.1049312072429505
-3.0864677907479487
-3.1110856794079322
-3.0680043742529195
-3.074158846417929
-3.055695429922928
-3.0310775412629165
-2.96953281961293
-2.975687291777912
-2.981841763942921
-2.9572238752829105
-2.8402889041478923
-2.994150708272913
-3.0310775412629165
-2.981841763942921
-2.9264515144579173
-2.932605986622927
-2.981841763942921
-3.0126141247679152
-2.9264515144579173
-2.901833625797906
-2.901833625797906
-2.9141425701278982
-2.901833625797906
-2.883370209302905
-2.821825487652891
-2.901833625797906
-2.9633783474479203
-2.9633783474479203
-2.797207598992907
-3.0249230690979347
-3.1480125123979352
-3.0003051804379233
-2.9202970422929075
-2.975687291777912
-3.006459652602933
-2.96953281961293
-3.0003051804379233
-2.994150708272913
-2.96953281961293
-3.006459652602933
-3.006459652602933
-3.0126141247679152
-3.0126141247679152
-3.006459652602933
-2.9572238752829105
-2.9141425701278982
-2.895679153632896
-2.96953281961293
-2.9387604587879093
-2.932605986622927
-2.9202970422929075
-2.895679153632896
-2.901833625797906
-2.9879962361079313
-3.0126141247679152
-2.9510694031179288
-2.9510694031179288
-2.975687291777912
-2.981841763942921
-2.96953281961293
-2.9572238752829105
-2.975687291777912
-3.006459652602933
-2.96953281961293
-3.0249230690979347
-3.006459652602933
-3.006459652602933
-3.037232013427927
-3.049540957757918
-3.043386485592936
-3.037232013427927
-3.006459652602933
-3.043386485592936
-3.037232013427927
-3.0618499020879373
-3.0987767350779407
-3.0618499020879373
-3.0310775412629165
-3.049540957757918
-3.018768596932925
-3.0310775412629165
-2.994150708272913
-3.0680043742529195
-3.0680043742529195
-3.043386485592936
-3.043386485592936
-2.895679153632896
-2.4525571577528327
-2.754126293837894
-2.877215737137895
-2.9387604587879093
-2.981841763942921
-2.994150708272913
-2.981841763942921
-3.092622262912931
-3.6280613412680296
-3.369573510338009
-3.1110856794079322
-3.055695429922928
-3.049540957757918
-3.043386485592936
-3.037232013427927
-3.0310775412629165
-3.043386485592936
-3.0680043742529195
-3.037232013427927
-3.037232013427927
-3.049540957757918
-3.0126141247679152
-2.9633783474479203
-3.0864677907479487
-3.049540957757918
-3.0249230690979347
-3.0310775412629165
-3.0126141247679152
-3.0126141247679152
-3.043386485592936
-3.0003051804379233
-2.9572238752829105
-3.018768596932925
-3.0310775412629165
-3.018768596932925
-2.96953281961293
-2.9387604587879093
-3.0310775412629165
-3.006459652602933
-2.9264515144579173
-3.0126141247679152
-2.994150708272913
-3.0249230690979347
-2.994150708272913
-2.9633783474479203
-3.0126141247679152
-3.0126141247679152
-3.0003051804379233
-2.994150708272913
-2.96953281961293
-2.9510694031179288
-3.0618499020879373
-3.0126141247679152
-2.9879962361079313
-2.975687291777912
-2.907988097962916
-2.9572238752829105
-2.96953281961293
-3.018768596932925
-3.0126141247679152
-2.9879962361079313
-2.96953281961293
-2.96953281961293
-2.7848986546628876
-2.8649067928079033
-3.178784873222984
-3.0864677907479487
-3.0003051804379233
-2.9510694031179288
-2.9510694031179288
-2.96953281961293
-3.006459652602933
-3.0003051804379233
-2.994150708272913
-2.944914930952919
-2.907988097962916
-2.9141425701278982
-2.9202970422929075
-2.8649067928079033
-2.8279799598179
-2.8895246814679143
-2.9202970422929075
-2.944914930952919
-2.9633783474479203
-2.994150708272913
-3.0126141247679152
-2.981841763942921
-3.037232013427927
-3.049540957757918
-3.043386485592936
-3.0310775412629165
-3.018768596932925
-3.049540957757918
-3.160321456727955
-3.037232013427927
-3.043386485592936
-3.055695429922928
-3.043386485592936
-3.0003051804379233
-3.006459652602933
-3.0126141247679152
-2.932605986622927
-2.821825487652891
-2.8095165433228986
-2.747971821672884
-2.655654739197877
-2.735662877342893
-2.8895246814679143
-3.0249230690979347
-3.0310775412629165
-3.0003051804379233
-3.043386485592936
-3.043386485592936
-3.037232013427927
-2.9633783474479203
-2.9510694031179288
-2.9387604587879093
-2.9202970422929075
-2.871061264972913
-2.9264515144579173
-2.9264515144579173
-2.7418173495078744
-2.4156303247628297
-2.704890516517872
-2.8341344319829105
-2.9879962361079313
-3.6280613412680296
-3.3326466773480057
-3.080313318582939
-3.043386485592936
-3.0310775412629165
-3.0249230690979347
-3.0126141247679152
-3.006459652602933
-2.975687291777912
-2.895679153632896
-3.018768596932925
-2.975687291777912
-2.994150708272913
-2.975687291777912
-2.9264515144579173
-2.895679153632896
-2.9141425701278982
-2.9387604587879093
-2.901833625797906
-2.877215737137895
-2.8895246814679143
-2.871061264972913
-2.883370209302905
-2.631036850537866
-2.329467714452832
-2.631036850537866
-3.037232013427927
-2.9633783474479203
-2.9633783474479203
-2.981841763942921
-2.96953281961293
-3.381882454668
-3.548053203123014
-3.1110856794079322
-3.006459652602933
-3.0003051804379233
-2.9387604587879093
-2.96953281961293
-2.9879962361079313
-2.901833625797906
-2.9387604587879093
-2.9387604587879093
-2.907988097962916
-2.9202970422929075
-2.9572238752829105
-2.9633783474479203
-2.9879962361079313
-2.975687291777912
-3.0003051804379233
-2.9879962361079313
-2.96953281961293
-2.895679153632896
-2.9264515144579173
-3.006459652602933
-3.018768596932925
-3.0249230690979347
-2.975687291777912
-2.981841763942921
-3.0310775412629165
-3.043386485592936
-3.037232013427927
-3.037232013427927
-3.043386485592936
-3.049540957757918
-3.0310775412629165
-3.0680043742529195
-3.154166984562973
-3.0310775412629165
-2.994150708272913
-3.018768596932925
-3.049540957757918
-3.0310775412629165
-3.0126141247679152
-2.981841763942921
-3.018768596932925
-3.0126141247679152
-2.9510694031179288
-2.9572238752829105
-2.981841763942921
-2.975687291777912
-2.981841763942921
-3.006459652602933
-2.9879962361079313
-3.0003051804379233
-3.0126141247679152
-3.0003051804379233
-2.975687291777912
-2.883370209302905
-3.277256427862973
-3.3141832608529764
-3.154166984562973
-3.117240151572942
-3.0618499020879373
-3.0680043742529195
-3.0987767350779407
-3.160321456727955
-3.1049312072429505
-3.0618499020879373
-3.0680043742529195
-3.1049312072429505
-3.1110856794079322
-3.1049312072429505
-3.092622262912931
-3.092622262912931
-3.0618499020879373
-3.006459652602933
-3.018768596932925
-3.006459652602933
-3.0864677907479487
-3.0680043742529195
-3.043386485592936
-3.1110856794079322
-3.080313318582939
-3.0310775412629165
-3.0310775412629165
-3.018768596932925
-3.0310775412629165
-2.895679153632896
-2.4217847969278394
-2.6987360443528896
-2.895679153632896
-2.901833625797906
-2.907988097962916
-3.049540957757918
-3.0310775412629165
-3.1664759288929645
-3.6834515907530343
-3.2280206505429785
-3.0680043742529195
-3.055695429922928
-3.006459652602933
-3.0003051804379233
-3.006459652602933
-3.1049312072429505
-3.0003051804379233
-2.895679153632896
-2.9633783474479203
-3.0987767350779407
-3.0864677907479487
-3.049540957757918
-3.043386485592936
-3.055695429922928
-3.0864677907479487
-3.049540957757918
-3.074158846417929
-3.0864677907479487
-3.043386485592936
-3.037232013427927
-3.049540957757918
-3.049540957757918
-3.0310775412629165
-3.092622262912931
-3.080313318582939
-3.0618499020879373
-3.080313318582939
-3.0310775412629165
-3.0126141247679152
-3.0126141247679152
-3.092622262912931
-3.0249230690979347
-3.0003051804379233
-3.0249230690979347
-3.049540957757918
-2.994150708272913
-2.944914930952919
-3.0987767350779407
-3.055695429922928
-3.037232013427927
-3.037232013427927
-3.037232013427927
-3.0680043742529195
-3.0680043742529195
-3.043386485592936
-3.043386485592936
-3.074158846417929
-3.049540957757918
-3.043386485592936
-3.006459652602933
-2.9572238752829105
-3.0310775412629165
-2.9141425701278982
-2.68642710002287
-2.877215737137895
-2.944914930952919
-2.815671015487909
-2.895679153632896
-3.0249230690979347
-3.074158846417929
-3.080313318582939
-3.049540957757918
-3.049540957757918
-3.0003051804379233
-3.018768596932925
-3.074158846417929
-3.0249230690979347
-3.043386485592936
-2.981841763942921
-2.96953281961293
-2.981841763942921
-3.006459652602933
-3.0249230690979347
-2.975687291777912
-3.0003051804379233
-2.994150708272913
-2.981841763942921
-2.994150708272913
-2.9264515144579173
-3.018768596932925
-3.037232013427927
-3.0003051804379233
-2.975687291777912
-2.975687291777912
-2.9202970422929075
-2.975687291777912
-2.975687291777912
-3.0003051804379233
-3.0249230690979347
-3.0003051804379233
-2.9879962361079313
-2.9387604587879093
-2.815671015487909
-2.5325652958978484
-2.711044988682881
-2.8033620711578893
-2.8464433763129016
-2.8279799598179
-2.815671015487909
-2.8279799598179
-2.797207598992907
-2.821825487652891
-2.8095165433228986
-2.7848986546628876
-2.815671015487909
-2.778744182497905
-2.8095165433228986
-3.080313318582939
-2.9202970422929075
-2.821825487652891
-2.7848986546628876
-2.587955545382853
-2.2186872154828228
-2.5694921288878514
-2.655654739197877
-2.8464433763129016
-3.400345871163002
-2.981841763942921
-2.821825487652891
-2.766435238167886
-2.7418173495078744
-2.766435238167886
-2.8095165433228986
-2.4587116299178424
-2.778744182497905
-2.9572238752829105
-2.815671015487909
-2.760280766002876
-2.772589710332896
-2.797207598992907
-2.8033620711578893
-2.754126293837894
-2.8033620711578893
-2.8402889041478923
-2.8464433763129016
-2.483329518577854
-2.575646601052861
-2.754126293837894
-2.8279799598179
-2.8341344319829105
-2.895679153632896
-2.9202970422929075
-2.8895246814679143
-2.8341344319829105
-2.8033620711578893
-2.8095165433228986
-2.8279799598179
-2.815671015487909
-2.8279799598179
-3.3511100938430074
-3.289565372192993
-2.96953281961293
-2.877215737137895
-2.8402889041478923
-2.8402889041478923
-2.8525978484779113
-2.858752320642893
-2.821825487652891
-2.8341344319829105
-2.8402889041478923
-2.815671015487909
-2.8033620711578893
-2.772589710332896
-2.507947407237865
-2.6618092113628857
-2.772589710332896
-2.778744182497905
-2.8095165433228986
-2.797207598992907
-2.760280766002876
-2.729508405177883
-2.754126293837894
-2.766435238167886
-2.760280766002876
-2.729508405177883
-2.55718318455786
-2.766435238167886
-2.901833625797906
-2.907988097962916
-2.821825487652891
-2.7910531268278973
-2.7848986546628876
-2.754126293837894
-2.760280766002876
-2.7910531268278973
-2.766435238167886
-2.754126293837894
-2.7910531268278973
-2.8033620711578893
-2.747971821672884
-2.7171994608478913
-2.6925815721878803
-2.778744182497905
-2.778744182497905
-2.723353933012873
-2.778744182497905
-2.760280766002876
-2.760280766002876
-2.7418173495078744
-2.723353933012873
-2.772589710332896
-2.772589710332896
-2.723353933012873
-2.747971821672884
-2.729508405177883
-2.754126293837894
-2.821825487652891
-2.772589710332896
-2.778744182497905
-2.754126293837894
-2.2371506319778245
-2.3971669082678284
-2.5941100175478624
-2.6987360443528896
-2.7171994608478913
-2.704890516517872
-2.7171994608478913
-2.8095165433228986
-3.357264566007989
-3.0864677907479487
-2.760280766002876
-2.8095165433228986
-2.8095165433228986
-2.754126293837894
-2.766435238167886
-2.766435238167886
-2.7910531268278973
-2.760280766002876
-2.7848986546628876
-2.797207598992907
-2.7910531268278973
-2.778744182497905
-2.754126293837894
-2.680272627857888
-2.187914854657802
-2.3848579639378364
-2.631036850537866
-2.7171994608478913
-2.729508405177883
-2.6925815721878803
-2.631036850537866
-2.624882378372884
-3.301874316522985
-2.871061264972913
-2.563337656722869
-2.612573434042864
-2.704890516517872
-2.797207598992907
-2.9387604587879093
-2.858752320642893
-2.8464433763129016
-2.8095165433228986
-2.7848986546628876
-2.778744182497905
-2.7848986546628876
-2.7848986546628876
-2.772589710332896
-2.6987360443528896
-2.772589710332896
-2.778744182497905
-2.747971821672884
-2.729508405177883
-2.754126293837894
-2.754126293837894
-2.747971821672884
-2.747971821672884
-2.760280766002876
-2.778744182497905
-2.8095165433228986
-2.772589710332896
-2.772589710332896
-2.815671015487909
-2.8402889041478923
-2.8095165433228986
-2.815671015487909
-2.815671015487909
-2.8341344319829105
-2.932605986622927
-2.895679153632896
-2.883370209302905
-2.858752320642893
-2.815671015487909
-2.797207598992907
-2.8525978484779113
-2.877215737137895
-2.8649067928079033
-2.7910531268278973
-2.8033620711578893
-2.815671015487909
-2.797207598992907
-2.821825487652891
-2.944914930952919
-2.9202970422929075
-2.871061264972913
-2.858752320642893
-2.871061264972913
-2.883370209302905
-2.649500267032867
-2.8095165433228986
-2.9633783474479203
-2.8279799598179
-2.8402889041478923
-2.8525978484779113
-2.8095165433228986
-2.7848986546628876
-2.883370209302905
-2.8649067928079033
-2.7910531268278973
-2.815671015487909
-2.8279799598179
-2.772589710332896
-2.772589710332896
-2.729508405177883
-2.8341344319829105
-2.8033620711578893
-2.772589710332896
-2.778744182497905
-2.815671015487909
-2.821825487652891
-2.9141425701278982
-2.858752320642893
-2.9202970422929075
-2.932605986622927
-2.901833625797906
-2.9202970422929075
-2.9633783474479203
-2.981841763942921
-2.9264515144579173
-2.858752320642893
-2.9572238752829105
-2.9510694031179288
-2.871061264972913
-2.815671015487909
-2.9202970422929075
-2.9572238752829105
-2.895679153632896
-2.8095165433228986
-2.901833625797906
-2.9387604587879093
-2.883370209302905
-2.8341344319829105
-2.8649067928079033
-2.9202970422929075
-2.8895246814679143
-2.883370209302905
-2.8341344319829105
-2.815671015487909
-2.8279799598179
-2.8095165433228986
-2.797207598992907
-2.8402889041478923
-2.8033620711578893
-2.8033620711578893
-2.871061264972913
-2.8525978484779113
-2.600264489712873
-2.003280689707787
-2.7171994608478913
-2.747971821672884
-2.735662877342893
-3.375727982502991
-2.674118155692878
-2.674118155692878
-2.778744182497905
-2.778744182497905
-2.747971821672884
-2.778744182497905
-2.797207598992907
-2.797207598992907
-2.7418173495078744
-2.747971821672884
-2.7910531268278973
-2.766435238167886
-2.7171994608478913
-2.8095165433228986
-3.258793011367972
-3.037232013427927
-2.877215737137895
-2.8033620711578893
-2.821825487652891
-2.8464433763129016
-2.8279799598179
-2.8033620711578893
-2.858752320642893
-2.96953281961293
-2.901833625797906
-2.8341344319829105
-2.858752320642893
-2.883370209302905
-2.815671015487909
-2.895679153632896
-2.9264515144579173
-2.9387604587879093
-2.901833625797906
-2.871061264972913
-2.895679153632896
-2.883370209302905
-2.8895246814679143
-2.8895246814679143
-2.901833625797906
-2.932605986622927
-2.9387604587879093
-2.901833625797906
-2.667963683527869
-2.7848986546628876
-2.9202970422929075
-2.9264515144579173
-2.883370209302905
-2.9141425701278982
-2.9264515144579173
-2.9141425701278982
-2.883370209302905
-2.883370209302905
-2.932605986622927
-2.944914930952919
-2.877215737137895
-2.883370209302905
-3.1233946237379517
-3.074158846417929
-2.68642710002287
-2.8895246814679143
-3.1049312072429505
-2.9387604587879093
-2.9572238752829105
-2.9572238752829105
-2.9879962361079313
-2.9879962361079313
-2.901833625797906
-2.8095165433228986
-2.8033620711578893
-2.711044988682881
-2.6371913227028756
-2.7910531268278973
-2.8895246814679143
-3.018768596932925
-3.0310775412629165
-2.944914930952919
-2.9202970422929075
-2.932605986622927
-2.9202970422929075
-2.901833625797906
-2.901833625797906
-2.9387604587879093
-2.9264515144579173
-2.8525978484779113
-2.821825487652891
-3.006459652602933
-3.0310775412629165
-2.975687291777912
-2.9387604587879093
-2.9879962361079313
-3.0003051804379233
-2.9202970422929075
-2.944914930952919
-2.994150708272913
-3.006459652602933
-2.994150708272913
-2.9510694031179288
-2.96953281961293
-2.9572238752829105
-3.0249230690979347
-2.9510694031179288
-2.96953281961293
-3.0249230690979347
-2.981841763942921
-2.9141425701278982
-2.932605986622927
-2.994150708272913
-2.9879962361079313
-2.9202970422929075
-2.8895246814679143
-2.871061264972913
-2.895679153632896
-2.735662877342893
-2.403321380432838
-2.680272627857888
-2.7848986546628876
-2.2309961598128147
-2.249459576307816
-2.760280766002876
-2.7171994608478913
-2.711044988682881
-2.68642710002287
-2.735662877342893
-2.760280766002876
-3.055695429922928
-3.3203377330179857
-3.018768596932925
-3.2711019556979917
-2.9387604587879093
-2.8033620711578893
-2.797207598992907
-2.8033620711578893
-2.729508405177883
-2.754126293837894
-2.735662877342893
-2.778744182497905
-2.772589710332896
-2.7418173495078744
-2.729508405177883
-2.735662877342893
-2.7171994608478913
-2.7418173495078744
-2.7418173495078744
-2.7848986546628876
-2.7848986546628876
-2.7418173495078744
-2.729508405177883
-2.7418173495078744
-2.772589710332896
-2.7910531268278973
-2.760280766002876
-2.766435238167886
-2.797207598992907
-2.760280766002876
-2.7171994608478913
-2.7910531268278973
-2.8464433763129016
-2.8402889041478923
-2.729508405177883
-2.723353933012873
-2.8279799598179
-2.8525978484779113
-2.815671015487909
-2.729508405177883
-2.261768520637808
-2.347931130947833
-2.8095165433228986
-2.821825487652891
-2.815671015487909
-2.8279799598179
-2.858752320642893
-2.9879962361079313
-3.560362147453033
-3.1480125123979352
-2.8895246814679143
-2.772589710332896
-2.778744182497905
-2.821825487652891
-2.8033620711578893
-2.729508405177883
-2.766435238167886
-2.797207598992907
-2.8341344319829105
-2.797207598992907
-2.907988097962916
-2.9141425701278982
-2.8464433763129016
-2.8095165433228986
-2.8095165433228986
-2.797207598992907
-2.8033620711578893
-2.735662877342893
-2.7171994608478913
-2.772589710332896
-2.766435238167886
-2.7418173495078744
-2.704890516517872
-2.667963683527869
-2.8279799598179
-2.778744182497905
-2.704890516517872
-2.7171994608478913
-2.754126293837894
-2.723353933012873
-2.723353933012873
-2.735662877342893
-2.729508405177883
-2.729508405177883
-2.6987360443528896
-2.704890516517872
-2.8095165433228986
-2.8033620711578893
-2.883370209302905
-2.8402889041478923
-2.858752320642893
-2.8649067928079033
-2.8033620711578893
-2.797207598992907
-2.772589710332896
-2.760280766002876
-2.760280766002876
-2.772589710332896
-2.8402889041478923
-2.883370209302905
-2.8402889041478923
-2.747971821672884
-2.895679153632896
-2.8095165433228986
-2.895679153632896
-3.0680043742529195
-2.96953281961293
-3.006459652602933
-2.9879962361079313
-2.944914930952919
-2.9633783474479203
-2.9510694031179288
-2.9572238752829105
-2.932605986622927
-2.735662877342893
-2.3848579639378364
-2.8649067928079033
-2.9202970422929075
-3.2095572340479768
-3.5726710917830253
-3.141858040232953
-3.0003051804379233
-2.9510694031179288
-3.0126141247679152
-3.0249230690979347
-2.975687291777912
-2.907988097962916
-3.018768596932925
-3.0126141247679152
-2.883370209302905
-2.760280766002876
-2.797207598992907
-2.754126293837894
-2.6987360443528896
-2.7418173495078744
-2.901833625797906
-3.006459652602933
-3.0618499020879373
-2.981841763942921
-2.96953281961293
-2.994150708272913
-2.9879962361079313
-2.944914930952919
-2.9141425701278982
-2.96953281961293
-3.043386485592936
-2.9572238752829105
-2.901833625797906
-2.9633783474479203
-2.981841763942921
-2.9141425701278982
-2.8341344319829105
-2.8033620711578893
-2.8649067928079033
-2.858752320642893
-2.821825487652891
-2.7910531268278973
-2.797207598992907
-2.8033620711578893
-2.8033620711578893
-2.8033620711578893
-2.821825487652891
-2.8341344319829105
-2.797207598992907
-2.7848986546628876
-2.8464433763129016
-2.8649067928079033
-2.7910531268278973
-2.7910531268278973
-2.815671015487909
-2.858752320642893
-2.8279799598179
-2.747971821672884
-2.8341344319829105
-2.877215737137895
-2.815671015487909
-2.760280766002876
-2.754126293837894
-2.5941100175478624
-2.797207598992907
-2.877215737137895
-2.754126293837894
-2.797207598992907
-2.772589710332896
-2.723353933012873
-2.704890516517872
-2.674118155692878
-2.7910531268278973
-2.7171994608478913
-2.7171994608478913
-2.8033620711578893
-2.815671015487909
-2.7848986546628876
-2.754126293837894
-2.778744182497905
-2.815671015487909
-2.778744182497905
-2.735662877342893
-2.8341344319829105
-2.877215737137895
-2.797207598992907
-2.9141425701278982
-2.932605986622927
-2.9572238752829105
-2.932605986622927
-2.8895246814679143
-2.932605986622927
-2.994150708272913
-3.0126141247679152
-2.944914930952919
-2.975687291777912
-3.018768596932925
-2.9572238752829105
-2.9387604587879093
-2.9202970422929075
-3.037232013427927
-3.006459652602933
-2.9510694031179288
-2.944914930952919
-2.981841763942921
-2.981841763942921
-2.975687291777912
-2.9387604587879093
-2.981841763942921
-3.0126141247679152
-2.9572238752829105
-2.901833625797906
-2.9264515144579173
-2.735662877342893
-2.581801073217871
-2.8033620711578893
-2.871061264972913
-2.9633783474479203
-2.9633783474479203
-2.907988097962916
-2.9141425701278982
-2.772589710332896
-2.409475852597848
-2.6925815721878803
-2.797207598992907
-2.877215737137895
-2.901833625797906
-2.96953281961293
-2.994150708272913
-3.3511100938430074
-3.5911345082780266
-3.1233946237379517
-2.975687291777912
-2.975687291777912
-2.9510694031179288
-2.8649067928079033
-2.815671015487909
-2.815671015487909
-2.8649067928079033
-2.8341344319829105
-2.778744182497905
-2.883370209302905
-3.1233946237379517
-2.9572238752829105
-2.901833625797906
-2.9387604587879093
-2.994150708272913
-2.994150708272913
-2.944914930952919
-2.932605986622927
-2.9572238752829105
-2.9879962361079313
-2.9572238752829105
-2.9202970422929075
-2.981841763942921
-2.981841763942921
-2.9879962361079313
-2.9510694031179288
-2.9572238752829105
-2.9879962361079313
-2.944914930952919
-2.907988097962916
-2.9387604587879093
-2.994150708272913
-2.981841763942921
-2.9387604587879093
-2.9572238752829105
-2.994150708272913
-2.981841763942921
-2.9141425701278982
-2.932605986622927
-3.037232013427927
-2.994150708272913
-2.932605986622927
-2.907988097962916
-2.96953281961293
-2.9510694031179288
-2.9572238752829105
-2.9510694031179288
-2.981841763942921
-3.0126141247679152
-2.96953281961293
-2.9264515144579173
-2.9264515144579173
-2.9202970422929075
-2.8341344319829105
-2.9572238752829105
-3.117240151572942
-3.043386485592936
-3.037232013427927
-2.9510694031179288
-2.9633783474479203
-3.0126141247679152
-3.0310775412629165
-2.9572238752829105
-2.9510694031179288
-2.981841763942921
-2.9387604587879093
-2.901833625797906
-3.018768596932925
-2.9879962361079313
-3.0310775412629165
-2.9572238752829105
-2.9141425701278982
-2.9264515144579173
-2.907988097962916
-2.7910531268278973
-2.7171994608478913
-2.68642710002287
-2.7171994608478913
-2.766435238167886
-2.797207598992907
-2.871061264972913
-3.0864677907479487
-3.0126141247679152
-2.9202970422929075
-2.9387604587879093
-3.055695429922928
-3.037232013427927
-2.96953281961293
-2.96953281961293
-3.0126141247679152
-3.0310775412629165
-2.9879962361079313
-2.981841763942921
-2.9879962361079313
-2.9633783474479203
-3.049540957757918
-2.975687291777912
-2.9879962361079313
-3.049540957757918
-3.0249230690979347
-2.9510694031179288
-2.975687291777912
-3.049540957757918
-3.0249230690979347
-2.9633783474479203
-2.9633783474479203
-3.006459652602933
-2.760280766002876
-2.3663945474428347
-2.760280766002876
-2.932605986622927
-2.883370209302905
-3.018768596932925
-3.0310775412629165
-2.994150708272913
-3.412654815492993
-3.474199537143008
-3.037232013427927
-3.0310775412629165
-3.006459652602933
-2.96953281961293
-2.9387604587879093
-2.944914930952919
-3.080313318582939
-3.0249230690979347
-2.9202970422929075
-2.9633783474479203
-2.9879962361079313
-2.9387604587879093
-2.9202970422929075
-2.9264515144579173
-2.975687291777912
-2.96953281961293
-2.895679153632896
-2.907988097962916
-2.932605986622927
-2.8095165433228986
-2.729508405177883
-2.8464433763129016
-2.895679153632896
-2.9572238752829105
-2.877215737137895
-2.883370209302905
-2.944914930952919
-2.981841763942921
-2.9510694031179288
-2.9141425701278982
-2.9572238752829105
-3.006459652602933
-2.944914930952919
-2.96953281961293
-3.0249230690979347
-3.037232013427927
-3.0003051804379233
-2.9510694031179288
