-0.29233742783754685
-0.2984919000025288
-0.3108008443325483
-0.30464637216753854
-0.3108008443325483
-0.30464637216753854
-0.3108008443325483
-0.31695531649755804
-0.32310978866254003
-0.3292642608275498
-0.3292642608275498
-0.3354187329925596
-0.35388214948756097
-0.36619109381755277
-0.3723455659825625
-0.3723455659825625
-0.3723455659825625
-0.360036621652543
-0.34772767732255133
-0.34772767732255133
-0.360036621652543
-0.3723455659825625
-0.3846545103125543
-0.3846545103125543
-0.390808982477564
-0.396963454642546
-0.390808982477564
-0.390808982477564
-0.390808982477564
-0.3723455659825625
-0.36619109381755277
-0.35388214948756097
-0.34772767732255133
-0.3415732051575415
-0.34772767732255133
-0.3354187329925596
-0.32310978866254003
-0.32310978866254003
-0.3108008443325483
-0.2984919000025288
-0.2984919000025288
-0.29233742783754685
-0.28618295567253704
-0.2738740113425453
-0.26771953917753555
-0.2738740113425453
-0.26156506701252585
-0.26771953917753555
-0.2800284835075273
-0.2738740113425453
-0.2800284835075273
-0.29233742783754685
-0.29233742783754685
-0.2984919000025288
-0.2984919000025288
-0.31695531649755804
-0.32310978866254003
-0.3415732051575415
-0.3354187329925596
-0.3415732051575415
-0.35388214948756097
-0.36619109381755277
-0.35388214948756097
-0.35388214948756097
-0.360036621652543
-0.360036621652543
-0.35388214948756097
-0.35388214948756097
-0.35388214948756097
-0.34772767732255133
-0.360036621652543
-0.35388214948756097
-0.36619109381755277
-0.396963454642546
-0.37850003814754446
-0.3723455659825625
-0.390808982477564
-0.390808982477564
-0.40311792680755576
-0.396963454642546
-0.396963454642546
-0.4154268711375475
-0.42158134330255725
-0.427735815467567
-0.433890287632549
-0.433890287632549
-0.42158134330255725
-0.433890287632549
-0.433890287632549
-0.433890287632549
-0.427735815467567
-0.4400447597975588
-0.44619923196256844
-0.45850817629256013
-0.4708171206225797
-0.4892805371175811
-0.5138984257775646
-0.5200528979425745
-0.538516314437576
-0.5508252587675677
-0.5569797309325776
-0.5631342030975872
-0.5508252587675677
-0.5631342030975872
-0.5631342030975872
-0.5569797309325776
-0.5569797309325776
-0.5569797309325776
-0.5631342030975872
-0.5815976195925888
-0.538516314437576
-0.538516314437576
-0.5323618422725662
-0.5323618422725662
-0.5323618422725662
-0.5262073701075842
-0.5200528979425745
-0.5138984257775646
-0.5138984257775646
-0.5138984257775646
-0.5077439536125827
-0.49543500928256323
-0.4831260649525715
-0.45850817629256013
-0.42158134330255725
-0.396963454642546
-0.35388214948756097
-0.31695531649755804
-0.29233742783754685
-0.2738740113425453
-0.24925612268253405
-0.23694717835254234
-0.23694717835254234
-0.2431016505175243
-0.2554105948475438
-0.2800284835075273
-0.2984919000025288
-0.3354187329925596
-0.360036621652543
-0.390808982477564
-0.40311792680755576
-0.4154268711375475
-0.4400447597975588
-0.45850817629256013
-0.4831260649525715
-0.49543500928256323
-0.5138984257775646
-0.5138984257775646
-0.5138984257775646
-0.5200528979425745
-0.5200528979425745
-0.5200528979425745
-0.5262073701075842
-0.5262073701075842
-0.5262073701075842
-0.5262073701075842
-0.5262073701075842
-0.5262073701075842
-0.5138984257775646
-0.5138984257775646
-0.5138984257775646
-0.5138984257775646
-0.5015894814475731
-0.49543500928256323
-0.5138984257775646
-0.5323618422725662
-0.538516314437576
-0.5323618422725662
-0.5077439536125827
-0.4523537041275505
-0.390808982477564
-0.32310978866254003
-0.2738740113425453
-0.2738740113425453
-0.32310978866254003
-0.3846545103125543
-0.44619923196256844
-0.47697159278756174
-0.4708171206225797
-0.4523537041275505
-0.427735815467567
-0.40927239897256545
-0.390808982477564
-0.37850003814754446
-0.3723455659825625
-0.3723455659825625
-0.36619109381755277
-0.360036621652543
-0.35388214948756097
-0.35388214948756097
-0.3415732051575415
-0.3354187329925596
-0.3292642608275498
-0.32310978866254003
-0.32310978866254003
-0.32310978866254003
-0.31695531649755804
-0.30464637216753854
-0.2984919000025288
-0.29233742783754685
-0.2800284835075273
-0.2800284835075273
-0.28618295567253704
-0.2800284835075273
-0.26771953917753555
-0.26156506701252585
-0.24925612268253405
-0.24925612268253405
-0.2431016505175243
-0.2431016505175243
-0.23694717835254234
-0.23694717835254234
-0.2246382340225228
-0.2184837618575408
-0.2184837618575408
-0.2061748175275213
-0.2061748175275213
-0.2061748175275213
-0.2061748175275213
-0.2000203453625393
-0.1938658731975296
-0.18771140103251985
-0.18771140103251985
-0.1938658731975296
-0.1938658731975296
-0.1938658731975296
-0.18771140103251985
-0.18771140103251985
-0.18771140103251985
-0.18155692886753785
-0.18155692886753785
-0.21232928969253104
-0.17540245670252808
-0.1938658731975296
-0.23079270618753256
-0.24925612268253405
-0.26771953917753555
-0.2738740113425453
-0.28618295567253704
-0.30464637216753854
-0.30464637216753854
-0.3108008443325483
-0.32310978866254003
-0.3292642608275498
-0.3292642608275498
-0.31695531649755804
-0.31695531649755804
-0.32310978866254003
-0.3354187329925596
-0.34772767732255133
-0.3354187329925596
-0.32310978866254003
-0.3292642608275498
-0.32310978866254003
-0.31695531649755804
-0.3108008443325483
-0.3108008443325483
-0.31695531649755804
-0.30464637216753854
-0.30464637216753854
-0.3108008443325483
-0.31695531649755804
-0.31695531649755804
-0.3108008443325483
-0.2984919000025288
-0.2984919000025288
-0.30464637216753854
-0.2984919000025288
-0.30464637216753854
-0.3108008443325483
-0.2984919000025288
-0.29233742783754685
-0.30464637216753854
-0.3108008443325483
-0.30464637216753854
-0.29233742783754685
-0.29233742783754685
-0.29233742783754685
-0.2984919000025288
-0.29233742783754685
-0.29233742783754685
-0.2984919000025288
-0.2984919000025288
-0.28618295567253704
-0.29233742783754685
-0.28618295567253704
-0.28618295567253704
-0.28618295567253704
-0.29233742783754685
-0.2800284835075273
-0.2800284835075273
-0.29233742783754685
-0.28618295567253704
-0.28618295567253704
-0.2984919000025288
-0.29233742783754685
-0.29233742783754685
-0.29233742783754685
-0.29233742783754685
-0.2984919000025288
-0.29233742783754685
-0.2984919000025288
-0.29233742783754685
-0.28618295567253704
-0.2984919000025288
-0.30464637216753854
-0.3108008443325483
-0.30464637216753854
-0.30464637216753854
-0.2984919000025288
-0.29233742783754685
-0.29233742783754685
-0.30464637216753854
-0.3108008443325483
-0.30464637216753854
-0.3108008443325483
-0.3108008443325483
-0.3108008443325483
-0.3108008443325483
-0.30464637216753854
-0.3108008443325483
-0.2984919000025288
-0.2984919000025288
-0.31695531649755804
-0.31695531649755804
-0.3108008443325483
-0.32310978866254003
-0.32310978866254003
-0.3108008443325483
-0.31695531649755804
-0.3108008443325483
-0.3108008443325483
-0.32310978866254003
-0.3292642608275498
-0.32310978866254003
-0.3108008443325483
-0.3108008443325483
-0.32310978866254003
-0.31695531649755804
-0.31695531649755804
-0.30464637216753854
-0.3108008443325483
-0.3108008443325483
-0.2984919000025288
-0.30464637216753854
-0.30464637216753854
-0.2984919000025288
-0.2984919000025288
-0.3108008443325483
-0.3108008443325483
-0.3108008443325483
-0.30464637216753854
-0.31695531649755804
-0.35388214948756097
-0.32310978866254003
-0.30464637216753854
-0.3108008443325483
-0.3108008443325483
-0.31695531649755804
-0.31695531649755804
-0.31695531649755804
-0.30464637216753854
-0.30464637216753854
-0.30464637216753854
-0.30464637216753854
-0.2984919000025288
-0.2984919000025288
-0.2984919000025288
-0.2984919000025288
-0.3108008443325483
-0.3108008443325483
-0.2984919000025288
-0.2984919000025288
-0.30464637216753854
-0.3108008443325483
-0.30464637216753854
-0.30464637216753854
-0.30464637216753854
-0.3108008443325483
-0.3108008443325483
-0.32310978866254003
-0.31695531649755804
-0.32310978866254003
-0.32310978866254003
-0.3108008443325483
-0.3108008443325483
-0.32310978866254003
-0.3108008443325483
-0.31695531649755804
-0.31695531649755804
-0.31695531649755804
-0.3108008443325483
-0.32310978866254003
-0.32310978866254003
-0.360036621652543
-0.31695531649755804
-0.30464637216753854
-0.2984919000025288
-0.2984919000025288
-0.30464637216753854
-0.3108008443325483
-0.3108008443325483
-0.3292642608275498
-0.3354187329925596
-0.32310978866254003
-0.3292642608275498
-0.31695531649755804
-0.31695531649755804
-0.32310978866254003
-0.32310978866254003
-0.32310978866254003
-0.3292642608275498
-0.32310978866254003
-0.32310978866254003
-0.3292642608275498
-0.3354187329925596
-0.34772767732255133
-0.35388214948756097
-0.360036621652543
-0.3354187329925596
-0.2984919000025288
-0.24925612268253405
-0.1938658731975296
-0.14463009587750708
-0.1384756237125251
-0.17540245670252808
-0.24925612268253405
-0.29233742783754685
-0.3415732051575415
-0.360036621652543
-0.34772767732255133
-0.3415732051575415
-0.32310978866254003
-0.3292642608275498
-0.32310978866254003
-0.32310978866254003
-0.3108008443325483
-0.3108008443325483
-0.2984919000025288
-0.2984919000025288
-0.29233742783754685
-0.29233742783754685
-0.2984919000025288
-0.2984919000025288
-0.29233742783754685
-0.2984919000025288
-0.3108008443325483
-0.2984919000025288
-0.29233742783754685
-0.2984919000025288
-0.2984919000025288
-0.2984919000025288
-0.29233742783754685
-0.2800284835075273
-0.28618295567253704
-0.29233742783754685
-0.29233742783754685
-0.2984919000025288
-0.31695531649755804
-0.3415732051575415
-0.3415732051575415
-0.34772767732255133
-0.34772767732255133
-0.34772767732255133
-0.3415732051575415
-0.3415732051575415
-0.3354187329925596
-0.3415732051575415
-0.3354187329925596
-0.3415732051575415
-0.3354187329925596
-0.3292642608275498
-0.3354187329925596
-0.3354187329925596
-0.3415732051575415
-0.36619109381755277
-0.31695531649755804
-0.3108008443325483
-0.30464637216753854
-0.3108008443325483
-0.3108008443325483
-0.30464637216753854
-0.31695531649755804
-0.31695531649755804
-0.30464637216753854
-0.3108008443325483
-0.31695531649755804
-0.3108008443325483
-0.3108008443325483
-0.3108008443325483
-0.3108008443325483
-0.3108008443325483
-0.31695531649755804
-0.32310978866254003
-0.3292642608275498
-0.3292642608275498
-0.3415732051575415
-0.3415732051575415
-0.35388214948756097
-0.34772767732255133
-0.3415732051575415
-0.3415732051575415
-0.3415732051575415
-0.34772767732255133
-0.3354187329925596
-0.34772767732255133
-0.3415732051575415
-0.3354187329925596
-0.3292642608275498
-0.3354187329925596
-0.3292642608275498
-0.31695531649755804
-0.3108008443325483
-0.30464637216753854
-0.3108008443325483
-0.3108008443325483
-0.30464637216753854
-0.29233742783754685
-0.2984919000025288
-0.28618295567253704
-0.28618295567253704
-0.28618295567253704
-0.28618295567253704
-0.29233742783754685
-0.29233742783754685
-0.28618295567253704
-0.2800284835075273
-0.2738740113425453
-0.2738740113425453
-0.2800284835075273
-0.2800284835075273
-0.2800284835075273
-0.2738740113425453
-0.26771953917753555
-0.2800284835075273
-0.2800284835075273
-0.2800284835075273
-0.26771953917753555
-0.2800284835075273
-0.2738740113425453
-0.2738740113425453
-0.26771953917753555
-0.26771953917753555
-0.26771953917753555
-0.26771953917753555
-0.26771953917753555
-0.2738740113425453
-0.26771953917753555
-0.26771953917753555
-0.26771953917753555
-0.26771953917753555
-0.2738740113425453
-0.26771953917753555
-0.26771953917753555
-0.26156506701252585
-0.26771953917753555
-0.26771953917753555
-0.2738740113425453
-0.2738740113425453
-0.26771953917753555
-0.26771953917753555
-0.26771953917753555
-0.2800284835075273
-0.2738740113425453
-0.2800284835075273
-0.26771953917753555
-0.26771953917753555
-0.2738740113425453
-0.2738740113425453
-0.26771953917753555
-0.26156506701252585
-0.2738740113425453
-0.26771953917753555
-0.2738740113425453
-0.2800284835075273
-0.2738740113425453
-0.2738740113425453
-0.2800284835075273
-0.26771953917753555
-0.2738740113425453
-0.26771953917753555
-0.26771953917753555
-0.26771953917753555
-0.2800284835075273
-0.2800284835075273
-0.28618295567253704
-0.2738740113425453
-0.2800284835075273
-0.2800284835075273
-0.28618295567253704
-0.2800284835075273
-0.2800284835075273
-0.2800284835075273
-0.2800284835075273
-0.28618295567253704
-0.2800284835075273
-0.2984919000025288
-0.31695531649755804
-0.28618295567253704
-0.2800284835075273
-0.2800284835075273
-0.2800284835075273
-0.28618295567253704
-0.2984919000025288
-0.29233742783754685
-0.2984919000025288
-0.29233742783754685
-0.2984919000025288
-0.29233742783754685
-0.30464637216753854
-0.30464637216753854
-0.3108008443325483
-0.2984919000025288
-0.30464637216753854
-0.30464637216753854
-0.2984919000025288
-0.3108008443325483
-0.3108008443325483
-0.31695531649755804
-0.31695531649755804
-0.3108008443325483
-0.31695531649755804
-0.31695531649755804
-0.3108008443325483
-0.31695531649755804
-0.3108008443325483
-0.31695531649755804
-0.31695531649755804
-0.31695531649755804
-0.32310978866254003
-0.32310978866254003
-0.32310978866254003
-0.31695531649755804
-0.31695531649755804
-0.32310978866254003
-0.3292642608275498
-0.32310978866254003
-0.32310978866254003
-0.3292642608275498
-0.3108008443325483
-0.31695531649755804
-0.3108008443325483
-0.3108008443325483
-0.31695531649755804
-0.3292642608275498
-0.32310978866254003
-0.32310978866254003
-0.3292642608275498
-0.31695531649755804
-0.32310978866254003
-0.32310978866254003
-0.32310978866254003
-0.31695531649755804
-0.32310978866254003
-0.32310978866254003
-0.31695531649755804
-0.32310978866254003
-0.32310978866254003
-0.3292642608275498
-0.3415732051575415
-0.34772767732255133
-0.32310978866254003
-0.28618295567253704
-0.2554105948475438
-0.2061748175275213
-0.1938658731975296
-0.2000203453625393
-0.24925612268253405
-0.30464637216753854
-0.34772767732255133
-0.37850003814754446
-0.37850003814754446
-0.3723455659825625
-0.35388214948756097
-0.3354187329925596
-0.3292642608275498
-0.31695531649755804
-0.31695531649755804
-0.3108008443325483
-0.2984919000025288
-0.29233742783754685
-0.29233742783754685
-0.2984919000025288
-0.2984919000025288
-0.2984919000025288
-0.28618295567253704
-0.29233742783754685
-0.29233742783754685
-0.28618295567253704
-0.2800284835075273
-0.29233742783754685
-0.2800284835075273
-0.29233742783754685
-0.28618295567253704
-0.28618295567253704
-0.2800284835075273
-0.2800284835075273
-0.2800284835075273
-0.28618295567253704
-0.2800284835075273
-0.26771953917753555
-0.2800284835075273
-0.2800284835075273
-0.2738740113425453
-0.2738740113425453
-0.2800284835075273
-0.26156506701252585
-0.26156506701252585
-0.2738740113425453
-0.2738740113425453
-0.2738740113425453
-0.2738740113425453
-0.26771953917753555
-0.26156506701252585
-0.26771953917753555
-0.30464637216753854
-0.24925612268253405
-0.24925612268253405
-0.24925612268253405
-0.2984919000025288
-0.26156506701252585
-0.2431016505175243
-0.2431016505175243
-0.24925612268253405
-0.2554105948475438
-0.2431016505175243
-0.2246382340225228
-0.2184837618575408
-0.2184837618575408
-0.21232928969253104
-0.2061748175275213
-0.21232928969253104
-0.2000203453625393
-0.1938658731975296
-0.2000203453625393
-0.1938658731975296
-0.2000203453625393
-0.2000203453625393
-0.21232928969253104
-0.21232928969253104
-0.21232928969253104
-0.2061748175275213
-0.2061748175275213
-0.2061748175275213
-0.1938658731975296
-0.21232928969253104
-0.21232928969253104
-0.21232928969253104
-0.2061748175275213
-0.21232928969253104
-0.2061748175275213
-0.2000203453625393
-0.2000203453625393
-0.1938658731975296
-0.18155692886753785
-0.18155692886753785
-0.18155692886753785
-0.17540245670252808
-0.17540245670252808
-0.17540245670252808
-0.1692479845375183
-0.1692479845375183
-0.18155692886753785
-0.17540245670252808
-0.17540245670252808
-0.16309351237253633
-0.16309351237253633
-0.16309351237253633
-0.16309351237253633
-0.16309351237253633
-0.16309351237253633
-0.15693904020752658
-0.16309351237253633
-0.1692479845375183
-0.1692479845375183
-0.17540245670252808
-0.18155692886753785
-0.1938658731975296
-0.2000203453625393
-0.2061748175275213
-0.2000203453625393
-0.21232928969253104
-0.2246382340225228
-0.2246382340225228
-0.23694717835254234
-0.2431016505175243
-0.24925612268253405
-0.24925612268253405
-0.26156506701252585
-0.2554105948475438
-0.26771953917753555
-0.2800284835075273
-0.28618295567253704
-0.29233742783754685
-0.29233742783754685
-0.2984919000025288
-0.30464637216753854
-0.2984919000025288
-0.3108008443325483
-0.3108008443325483
-0.31695531649755804
-0.3292642608275498
-0.32310978866254003
-0.3354187329925596
-0.3292642608275498
-0.3415732051575415
-0.3415732051575415
-0.3415732051575415
-0.34772767732255133
-0.35388214948756097
-0.35388214948756097
-0.34772767732255133
-0.35388214948756097
-0.360036621652543
-0.36619109381755277
-0.360036621652543
-0.360036621652543
-0.3723455659825625
-0.3723455659825625
-0.3723455659825625
-0.3723455659825625
-0.37850003814754446
-0.37850003814754446
-0.390808982477564
-0.3846545103125543
-0.37850003814754446
-0.3846545103125543
-0.37850003814754446
-0.37850003814754446
-0.3846545103125543
-0.37850003814754446
-0.3846545103125543
-0.3846545103125543
-0.3846545103125543
-0.3723455659825625
-0.37850003814754446
-0.36619109381755277
-0.3723455659825625
-0.36619109381755277
-0.36619109381755277
-0.3723455659825625
-0.390808982477564
-0.360036621652543
-0.360036621652543
-0.360036621652543
-0.360036621652543
-0.34772767732255133
-0.3415732051575415
-0.3415732051575415
-0.3354187329925596
-0.3292642608275498
-0.32310978866254003
-0.3292642608275498
-0.32310978866254003
-0.31695531649755804
-0.3108008443325483
-0.30464637216753854
-0.2984919000025288
-0.28618295567253704
-0.2800284835075273
-0.26771953917753555
-0.26156506701252585
-0.24925612268253405
-0.2431016505175243
-0.23079270618753256
-0.21232928969253104
-0.2000203453625393
-0.18771140103251985
-0.17540245670252808
-0.17540245670252808
-0.1692479845375183
-0.16309351237253633
-0.14463009587750708
-0.1384756237125251
-0.13232115154751534
-0.1261666793825056
-0.1200122072175236
-0.11385773505251384
-0.1200122072175236
-0.1200122072175236
-0.1261666793825056
-0.1200122072175236
-0.1261666793825056
-0.1261666793825056
-0.1261666793825056
-0.10770326288750408
-0.09539431855751236
-0.09539431855751236
-0.08308537422752059
-0.08308537422752059
-0.08308537422752059
-0.08308537422752059
-0.07693090206251085
-0.058467485567509365
-0.05231301340249961
-0.04000406907250786
-0.01538618041249662
-0.01538618041249662
-0.003077236082504875
0.009231708247514623
0.02154065257750637
0.02154065257750637
0.033849596907498114
0.02769512474251612
0.009231708247514623
-0.003077236082504875
-0.003077236082504875
0.003077236082504875
0.033849596907498114
0.08308537422752059
0.1261666793825056
0.16309351237253633
0.17540245670252808
0.13232115154751534
0.0707764298975011
0.02769512474251612
-0.009231708247514623
-0.009231708247514623
-0.02154065257750637
-0.02154065257750637
-0.02154065257750637
-0.02769512474251612
-0.033849596907498114
-0.04000406907250786
-0.033849596907498114
-0.04000406907250786
-0.05231301340249961
-0.0707764298975011
-0.08923984639250258
-0.1015487907225221
-0.10770326288750408
-0.1200122072175236
-0.1261666793825056
-0.14463009587750708
-0.15078456804251686
-0.15693904020752658
-0.17540245670252808
-0.17540245670252808
-0.18771140103251985
-0.2000203453625393
-0.21232928969253104
-0.2184837618575408
-0.2246382340225228
-0.23079270618753256
-0.23694717835254234
-0.24925612268253405
-0.24925612268253405
-0.26771953917753555
-0.2738740113425453
-0.26771953917753555
-0.2800284835075273
-0.2800284835075273
-0.28618295567253704
-0.2984919000025288
-0.2984919000025288
-0.2984919000025288
-0.30464637216753854
-0.30464637216753854
-0.30464637216753854
-0.30464637216753854
-0.3108008443325483
-0.3108008443325483
-0.31695531649755804
-0.3415732051575415
-0.2984919000025288
-0.29233742783754685
-0.29233742783754685
-0.2984919000025288
-0.30464637216753854
-0.30464637216753854
-0.3108008443325483
-0.3108008443325483
-0.31695531649755804
-0.31695531649755804
-0.30464637216753854
-0.2984919000025288
-0.29233742783754685
-0.28618295567253704
-0.28618295567253704
-0.28618295567253704
-0.29233742783754685
-0.2984919000025288
-0.29233742783754685
-0.29233742783754685
-0.30464637216753854
-0.29233742783754685
-0.29233742783754685
-0.30464637216753854
-0.30464637216753854
-0.3108008443325483
-0.2984919000025288
-0.28618295567253704
-0.2738740113425453
-0.26771953917753555
-0.26771953917753555
-0.2738740113425453
-0.28618295567253704
-0.29233742783754685
-0.29233742783754685
-0.2984919000025288
-0.2984919000025288
-0.3108008443325483
-0.30464637216753854
-0.31695531649755804
-0.32310978866254003
-0.32310978866254003
-0.3354187329925596
-0.3354187329925596
-0.3415732051575415
-0.35388214948756097
-0.36619109381755277
-0.36619109381755277
-0.396963454642546
-0.4523537041275505
-0.5077439536125827
-0.5262073701075842
-0.46466264845757
-0.3846545103125543
-0.3723455659825625
-0.42158134330255725
-0.4708171206225797
-0.4523537041275505
-0.3846545103125543
-0.32310978866254003
-0.32310978866254003
-0.3354187329925596
-0.360036621652543
-0.35388214948756097
-0.360036621652543
-0.360036621652543
-0.360036621652543
-0.34772767732255133
-0.3292642608275498
-0.32310978866254003
-0.30464637216753854
-0.3108008443325483
-0.3292642608275498
-0.2738740113425453
-0.26156506701252585
-0.2554105948475438
-0.24925612268253405
-0.2431016505175243
-0.2431016505175243
-0.2431016505175243
-0.26771953917753555
-0.26771953917753555
-0.26156506701252585
-0.2738740113425453
-0.26771953917753555
-0.2800284835075273
-0.28618295567253704
-0.2984919000025288
-0.30464637216753854
-0.31695531649755804
-0.3292642608275498
-0.3415732051575415
-0.360036621652543
-0.37850003814754446
-0.3846545103125543
-0.40927239897256545
-0.4154268711375475
-0.427735815467567
-0.433890287632549
-0.4523537041275505
-0.4523537041275505
-0.46466264845757
-0.46466264845757
-0.47697159278756174
-0.4708171206225797
-0.46466264845757
-0.47697159278756174
-0.4708171206225797
-0.4708171206225797
-0.4831260649525715
-0.4831260649525715
-0.4892805371175811
-0.4892805371175811
-0.4831260649525715
-0.4708171206225797
-0.4708171206225797
-0.46466264845757
-0.44619923196256844
-0.4400447597975588
-0.427735815467567
-0.4154268711375475
-0.42158134330255725
-0.37850003814754446
-0.360036621652543
-0.3415732051575415
-0.3354187329925596
-0.3292642608275498
-0.3292642608275498
-0.3354187329925596
-0.32310978866254003
-0.32310978866254003
-0.32310978866254003
-0.3292642608275498
-0.32310978866254003
-0.3292642608275498
-0.3354187329925596
-0.3415732051575415
-0.35388214948756097
-0.34772767732255133
-0.360036621652543
-0.360036621652543
-0.35388214948756097
-0.35388214948756097
-0.3415732051575415
-0.34772767732255133
-0.360036621652543
-0.35388214948756097
-0.34772767732255133
-0.3415732051575415
-0.34772767732255133
-0.3415732051575415
-0.3415732051575415
-0.3354187329925596
-0.3354187329925596
-0.3292642608275498
-0.3354187329925596
-0.3415732051575415
-0.3415732051575415
-0.3415732051575415
-0.3354187329925596
-0.3354187329925596
-0.3415732051575415
-0.3415732051575415
-0.3354187329925596
-0.3292642608275498
-0.3354187329925596
-0.3292642608275498
-0.3292642608275498
-0.3292642608275498
-0.3354187329925596
-0.3292642608275498
-0.3354187329925596
-0.3292642608275498
-0.3354187329925596
-0.3292642608275498
-0.3354187329925596
-0.3354187329925596
-0.3292642608275498
-0.32310978866254003
-0.32310978866254003
-0.31695531649755804
-0.31695531649755804
-0.31695531649755804
-0.3292642608275498
-0.3354187329925596
-0.3292642608275498
-0.32310978866254003
-0.32310978866254003
-0.32310978866254003
-0.31695531649755804
-0.32310978866254003
-0.32310978866254003
-0.31695531649755804
-0.31695531649755804
-0.32310978866254003
-0.3292642608275498
-0.3292642608275498
-0.3415732051575415
-0.360036621652543
-0.360036621652543
-0.3354187329925596
-0.30464637216753854
-0.2554105948475438
-0.2000203453625393
-0.1692479845375183
-0.1692479845375183
-0.23079270618753256
-0.29233742783754685
-0.35388214948756097
-0.3846545103125543
-0.390808982477564
-0.37850003814754446
-0.36619109381755277
-0.360036621652543
-0.35388214948756097
-0.3415732051575415
-0.34772767732255133
-0.3354187329925596
-0.3292642608275498
-0.3354187329925596
-0.3292642608275498
-0.3354187329925596
-0.3292642608275498
-0.3292642608275498
-0.3354187329925596
-0.3354187329925596
-0.3354187329925596
-0.3354187329925596
-0.3292642608275498
-0.3354187329925596
-0.3354187329925596
-0.3354187329925596
-0.3354187329925596
-0.3354187329925596
-0.3292642608275498
-0.3354187329925596
-0.3354187329925596
-0.3292642608275498
-0.3354187329925596
-0.3354187329925596
-0.3292642608275498
-0.32310978866254003
-0.3415732051575415
-0.360036621652543
-0.31695531649755804
-0.31695531649755804
-0.32310978866254003
-0.31695531649755804
-0.3415732051575415
-0.3415732051575415
-0.3292642608275498
-0.3354187329925596
-0.3354187329925596
-0.32310978866254003
-0.32310978866254003
-0.3292642608275498
-0.3292642608275498
-0.32310978866254003
-0.32310978866254003
-0.31695531649755804
-0.31695531649755804
-0.31695531649755804
-0.31695531649755804
-0.31695531649755804
-0.3108008443325483
-0.3108008443325483
-0.2984919000025288
-0.30464637216753854
-0.2984919000025288
-0.2984919000025288
-0.29233742783754685
-0.29233742783754685
-0.29233742783754685
-0.2984919000025288
-0.29233742783754685
-0.2984919000025288
-0.30464637216753854
-0.30464637216753854
-0.3108008443325483
-0.3108008443325483
-0.3108008443325483
-0.30464637216753854
-0.3108008443325483
-0.30464637216753854
-0.3108008443325483
-0.3108008443325483
-0.31695531649755804
-0.3108008443325483
-0.30464637216753854
-0.30464637216753854
-0.30464637216753854
-0.30464637216753854
-0.3108008443325483
-0.3108008443325483
-0.2984919000025288
-0.2984919000025288
-0.2984919000025288
-0.30464637216753854
-0.2984919000025288
-0.2984919000025288
-0.30464637216753854
-0.30464637216753854
-0.3108008443325483
-0.30464637216753854
-0.3108008443325483
-0.30464637216753854
-0.3108008443325483
-0.3108008443325483
-0.3108008443325483
-0.3108008443325483
-0.30464637216753854
-0.3108008443325483
-0.3108008443325483
-0.30464637216753854
-0.3108008443325483
-0.3108008443325483
-0.3108008443325483
-0.3108008443325483
-0.30464637216753854
-0.30464637216753854
-0.3108008443325483
-0.30464637216753854
-0.30464637216753854
-0.30464637216753854
-0.3108008443325483
-0.30464637216753854
-0.3108008443325483
-0.31695531649755804
-0.3108008443325483
-0.30464637216753854
-0.30464637216753854
-0.3108008443325483
-0.30464637216753854
-0.30464637216753854
-0.30464637216753854
-0.30464637216753854
-0.3108008443325483
-0.30464637216753854
-0.30464637216753854
-0.3108008443325483
-0.30464637216753854
-0.3108008443325483
-0.30464637216753854
-0.3108008443325483
-0.31695531649755804
-0.31695531649755804
-0.3108008443325483
-0.3108008443325483
-0.3108008443325483
-0.30464637216753854
-0.3108008443325483
-0.3108008443325483
-0.31695531649755804
-0.3108008443325483
-0.31695531649755804
-0.31695531649755804
-0.30464637216753854
-0.30464637216753854
-0.3108008443325483
-0.31695531649755804
-0.31695531649755804
-0.3108008443325483
-0.3108008443325483
-0.30464637216753854
-0.31695531649755804
-0.3415732051575415
-0.3108008443325483
-0.2984919000025288
-0.3108008443325483
-0.31695531649755804
-0.31695531649755804
-0.31695531649755804
-0.31695531649755804
-0.31695531649755804
-0.31695531649755804
-0.31695531649755804
-0.31695531649755804
-0.3108008443325483
-0.3108008443325483
-0.3108008443325483
-0.3108008443325483
-0.3108008443325483
-0.31695531649755804
-0.32310978866254003
-0.31695531649755804
-0.3108008443325483
-0.3108008443325483
-0.3108008443325483
-0.3108008443325483
-0.3108008443325483
-0.3108008443325483
-0.3108008443325483
-0.3415732051575415
-0.3354187329925596
-0.2984919000025288
-0.30464637216753854
-0.30464637216753854
-0.3108008443325483
-0.30464637216753854
-0.3108008443325483
-0.31695531649755804
-0.3292642608275498
-0.32310978866254003
-0.32310978866254003
-0.31695531649755804
-0.32310978866254003
-0.31695531649755804
-0.31695531649755804
-0.32310978866254003
-0.31695531649755804
-0.3108008443325483
-0.31695531649755804
-0.32310978866254003
-0.31695531649755804
-0.31695531649755804
-0.31695531649755804
-0.3108008443325483
-0.3108008443325483
-0.31695531649755804
-0.31695531649755804
-0.31695531649755804
-0.3108008443325483
-0.31695531649755804
-0.30464637216753854
-0.3108008443325483
-0.3108008443325483
-0.30464637216753854
-0.2984919000025288
-0.30464637216753854
-0.3108008443325483
-0.30464637216753854
-0.3108008443325483
-0.31695531649755804
-0.31695531649755804
-0.30464637216753854
-0.3108008443325483
-0.3108008443325483
-0.31695531649755804
-0.30464637216753854
-0.30464637216753854
-0.2984919000025288
-0.2984919000025288
-0.30464637216753854
-0.3108008443325483
-0.3108008443325483
-0.3108008443325483
-0.3108008443325483
-0.3108008443325483
-0.3108008443325483
-0.3108008443325483
-0.30464637216753854
-0.3108008443325483
-0.30464637216753854
-0.30464637216753854
-0.3108008443325483
-0.31695531649755804
-0.3354187329925596
-0.3415732051575415
-0.34772767732255133
-0.3354187329925596
-0.3108008443325483
-0.2738740113425453
-0.23079270618753256
-0.2000203453625393
-0.18771140103251985
-0.21232928969253104
-0.26771953917753555
-0.3108008443325483
-0.36619109381755277
-0.390808982477564
-0.37850003814754446
-0.37850003814754446
-0.360036621652543
-0.360036621652543
-0.34772767732255133
-0.3415732051575415
-0.3415732051575415
-0.34772767732255133
-0.34772767732255133
-0.3415732051575415
-0.3415732051575415
-0.3292642608275498
-0.3354187329925596
-0.3292642608275498
-0.3292642608275498
-0.3292642608275498
-0.3415732051575415
-0.360036621652543
-0.3354187329925596
-0.3354187329925596
-0.3354187329925596
-0.3292642608275498
-0.3354187329925596
-0.3415732051575415
-0.3292642608275498
-0.3354187329925596
-0.3292642608275498
-0.3292642608275498
-0.3292642608275498
-0.3292642608275498
-0.32310978866254003
-0.3292642608275498
-0.32310978866254003
-0.32310978866254003
-0.3292642608275498
-0.32310978866254003
-0.3292642608275498
-0.32310978866254003
-0.32310978866254003
-0.3292642608275498
-0.32310978866254003
-0.32310978866254003
-0.32310978866254003
-0.3292642608275498
-0.3292642608275498
-0.31695531649755804
-0.32310978866254003
-0.32310978866254003
-0.32310978866254003
-0.31695531649755804
-0.3292642608275498
-0.31695531649755804
-0.3108008443325483
-0.32310978866254003
-0.31695531649755804
-0.32310978866254003
-0.31695531649755804
-0.3108008443325483
-0.3108008443325483
-0.30464637216753854
-0.3108008443325483
-0.30464637216753854
-0.31695531649755804
-0.31695531649755804
-0.3108008443325483
-0.31695531649755804
-0.32310978866254003
-0.32310978866254003
-0.31695531649755804
-0.3292642608275498
-0.3292642608275498
-0.3354187329925596
-0.3415732051575415
-0.34772767732255133
-0.3415732051575415
-0.3415732051575415
-0.35388214948756097
-0.35388214948756097
-0.35388214948756097
-0.35388214948756097
-0.36619109381755277
-0.35388214948756097
-0.36619109381755277
-0.3723455659825625
-0.360036621652543
-0.360036621652543
-0.360036621652543
-0.36619109381755277
-0.360036621652543
-0.36619109381755277
-0.36619109381755277
-0.360036621652543
-0.360036621652543
-0.35388214948756097
-0.360036621652543
-0.35388214948756097
-0.360036621652543
-0.360036621652543
-0.360036621652543
-0.36619109381755277
-0.35388214948756097
-0.360036621652543
-0.360036621652543
-0.360036621652543
-0.35388214948756097
-0.34772767732255133
-0.34772767732255133
-0.35388214948756097
-0.34772767732255133
-0.3415732051575415
-0.3415732051575415
-0.34772767732255133
-0.34772767732255133
-0.3415732051575415
-0.34772767732255133
-0.34772767732255133
-0.34772767732255133
-0.34772767732255133
-0.3415732051575415
-0.3415732051575415
-0.3415732051575415
-0.3415732051575415
-0.3354187329925596
-0.3354187329925596
-0.3354187329925596
-0.3354187329925596
-0.3415732051575415
-0.3415732051575415
-0.3354187329925596
-0.3354187329925596
-0.3354187329925596
-0.3354187329925596
-0.3415732051575415
-0.3415732051575415
-0.3354187329925596
-0.3292642608275498
-0.3354187329925596
-0.3292642608275498
-0.34772767732255133
-0.37850003814754446
-0.32310978866254003
-0.32310978866254003
-0.3292642608275498
-0.32310978866254003
-0.32310978866254003
-0.32310978866254003
-0.3292642608275498
-0.3415732051575415
-0.3415732051575415
-0.3415732051575415
-0.3415732051575415
-0.3292642608275498
-0.3354187329925596
-0.3292642608275498
-0.3354187329925596
-0.3354187329925596
-0.3354187329925596
-0.3292642608275498
-0.3354187329925596
-0.3292642608275498
-0.3354187329925596
-0.3292642608275498
-0.3354187329925596
-0.3415732051575415
-0.3292642608275498
-0.3292642608275498
-0.3354187329925596
-0.3354187329925596
-0.3292642608275498
-0.3354187329925596
-0.3415732051575415
-0.3415732051575415
-0.3415732051575415
-0.3415732051575415
-0.3354187329925596
-0.3354187329925596
-0.3415732051575415
-0.3415732051575415
-0.3415732051575415
-0.3354187329925596
-0.3354187329925596
-0.3354187329925596
-0.3354187329925596
-0.3354187329925596
-0.3354187329925596
-0.3415732051575415
-0.3415732051575415
-0.3354187329925596
-0.3354187329925596
-0.3415732051575415
-0.3354187329925596
-0.3354187329925596
-0.3354187329925596
-0.3415732051575415
-0.3415732051575415
-0.3415732051575415
-0.3354187329925596
-0.3415732051575415
-0.3415732051575415
-0.34772767732255133
-0.34772767732255133
-0.34772767732255133
-0.3415732051575415
-0.3415732051575415
-0.3415732051575415
-0.3354187329925596
-0.34772767732255133
-0.3415732051575415
-0.34772767732255133
-0.3354187329925596
-0.3415732051575415
-0.3415732051575415
-0.34772767732255133
-0.3415732051575415
-0.34772767732255133
-0.34772767732255133
-0.34772767732255133
-0.360036621652543
-0.35388214948756097
-0.35388214948756097
-0.34772767732255133
-0.34772767732255133
-0.34772767732255133
-0.3415732051575415
-0.34772767732255133
-0.35388214948756097
-0.34772767732255133
-0.35388214948756097
-0.35388214948756097
-0.35388214948756097
-0.35388214948756097
-0.35388214948756097
-0.360036621652543
-0.360036621652543
-0.360036621652543
-0.36619109381755277
-0.35388214948756097
-0.35388214948756097
-0.36619109381755277
-0.3723455659825625
-0.37850003814754446
-0.390808982477564
-0.3846545103125543
-0.390808982477564
-0.3292642608275498
-0.2738740113425453
-0.23694717835254234
-0.2184837618575408
-0.24925612268253405
-0.2984919000025288
-0.34772767732255133
-0.40311792680755576
-0.433890287632549
-0.42158134330255725
-0.40311792680755576
-0.396963454642546
-0.3846545103125543
-0.3846545103125543
-0.3846545103125543
-0.37850003814754446
-0.37850003814754446
-0.396963454642546
-0.36619109381755277
-0.35388214948756097
-0.360036621652543
-0.360036621652543
-0.35388214948756097
-0.37850003814754446
-0.3723455659825625
-0.360036621652543
-0.360036621652543
-0.360036621652543
-0.35388214948756097
-0.35388214948756097
-0.35388214948756097
-0.360036621652543
-0.34772767732255133
-0.3415732051575415
-0.3415732051575415
-0.3415732051575415
-0.34772767732255133
-0.34772767732255133
-0.34772767732255133
-0.34772767732255133
-0.3415732051575415
-0.34772767732255133
-0.3415732051575415
-0.3415732051575415
-0.34772767732255133
-0.34772767732255133
-0.34772767732255133
-0.35388214948756097
-0.34772767732255133
-0.3415732051575415
-0.3354187329925596
-0.3415732051575415
-0.3354187329925596
-0.3354187329925596
-0.3415732051575415
-0.3415732051575415
-0.3415732051575415
-0.3354187329925596
-0.3354187329925596
-0.3354187329925596
-0.3415732051575415
-0.3415732051575415
-0.3354187329925596
-0.3354187329925596
-0.3354187329925596
-0.34772767732255133
-0.34772767732255133
-0.3415732051575415
-0.3354187329925596
-0.3415732051575415
-0.3354187329925596
-0.3415732051575415
-0.3415732051575415
-0.3415732051575415
-0.3415732051575415
-0.3415732051575415
-0.3354187329925596
-0.3354187329925596
-0.3415732051575415
-0.3415732051575415
-0.34772767732255133
-0.3354187329925596
-0.3354187329925596
-0.3415732051575415
-0.34772767732255133
-0.3415732051575415
-0.3415732051575415
-0.34772767732255133
-0.3415732051575415
-0.3415732051575415
-0.3415732051575415
-0.3415732051575415
-0.3415732051575415
-0.34772767732255133
-0.3415732051575415
-0.34772767732255133
-0.34772767732255133
-0.3415732051575415
-0.3415732051575415
-0.3354187329925596
-0.3415732051575415
-0.3354187329925596
-0.3415732051575415
-0.3415732051575415
-0.3415732051575415
-0.3354187329925596
-0.3354187329925596
-0.3415732051575415
-0.3354187329925596
-0.3292642608275498
-0.3354187329925596
-0.3415732051575415
-0.3292642608275498
-0.3354187329925596
-0.3354187329925596
-0.3354187329925596
-0.3292642608275498
-0.3354187329925596
-0.3354187329925596
-0.3354187329925596
-0.3292642608275498
-0.3292642608275498
-0.3292642608275498
-0.3292642608275498
-0.3292642608275498
-0.3354187329925596
-0.3354187329925596
-0.3292642608275498
-0.3292642608275498
-0.3354187329925596
-0.32310978866254003
-0.32310978866254003
-0.32310978866254003
-0.3354187329925596
-0.3292642608275498
-0.3354187329925596
-0.3292642608275498
-0.3354187329925596
-0.3415732051575415
-0.360036621652543
-0.32310978866254003
-0.3108008443325483
-0.31695531649755804
-0.31695531649755804
-0.3354187329925596
-0.3292642608275498
-0.3292642608275498
-0.32310978866254003
-0.32310978866254003
-0.3292642608275498
-0.32310978866254003
-0.3292642608275498
-0.3292642608275498
-0.32310978866254003
-0.32310978866254003
-0.32310978866254003
-0.3354187329925596
-0.3292642608275498
-0.3292642608275498
-0.32310978866254003
-0.3292642608275498
-0.32310978866254003
-0.32310978866254003
-0.32310978866254003
-0.32310978866254003
-0.32310978866254003
-0.32310978866254003
-0.3292642608275498
-0.3292642608275498
-0.32310978866254003
-0.31695531649755804
-0.32310978866254003
-0.31695531649755804
-0.32310978866254003
-0.32310978866254003
-0.31695531649755804
-0.32310978866254003
-0.32310978866254003
-0.32310978866254003
-0.32310978866254003
-0.32310978866254003
-0.31695531649755804
-0.32310978866254003
-0.31695531649755804
-0.32310978866254003
-0.32310978866254003
-0.32310978866254003
-0.32310978866254003
-0.32310978866254003
-0.31695531649755804
-0.3292642608275498
-0.32310978866254003
-0.32310978866254003
-0.32310978866254003
-0.31695531649755804
-0.32310978866254003
-0.32310978866254003
-0.32310978866254003
-0.32310978866254003
-0.3292642608275498
-0.32310978866254003
-0.32310978866254003
-0.3292642608275498
-0.32310978866254003
-0.32310978866254003
-0.32310978866254003
-0.31695531649755804
-0.31695531649755804
-0.3292642608275498
-0.3292642608275498
-0.3292642608275498
-0.3292642608275498
-0.32310978866254003
-0.3292642608275498
-0.32310978866254003
-0.3354187329925596
-0.3292642608275498
-0.3292642608275498
-0.3292642608275498
-0.3354187329925596
-0.3354187329925596
-0.3292642608275498
-0.3354187329925596
-0.3354187329925596
-0.3292642608275498
-0.3292642608275498
-0.32310978866254003
-0.3292642608275498
-0.3292642608275498
-0.3415732051575415
-0.3415732051575415
-0.3354187329925596
-0.3292642608275498
-0.31695531649755804
-0.3108008443325483
-0.3108008443325483
-0.32310978866254003
-0.32310978866254003
-0.31695531649755804
-0.3292642608275498
-0.3292642608275498
-0.32310978866254003
-0.32310978866254003
-0.31695531649755804
-0.31695531649755804
-0.31695531649755804
-0.31695531649755804
-0.2984919000025288
-0.30464637216753854
-0.3292642608275498
-0.31695531649755804
-0.3354187329925596
-0.3415732051575415
-0.34772767732255133
-0.3415732051575415
-0.30464637216753854
-0.2800284835075273
-0.2431016505175243
-0.1938658731975296
-0.15078456804251686
-0.17540245670252808
-0.26771953917753555
-0.28618295567253704
-0.3292642608275498
-0.37850003814754446
-0.37850003814754446
-0.36619109381755277
-0.3415732051575415
-0.3354187329925596
-0.3354187329925596
-0.3292642608275498
-0.32310978866254003
-0.32310978866254003
-0.31695531649755804
-0.32310978866254003
-0.32310978866254003
-0.31695531649755804
-0.3108008443325483
-0.3108008443325483
-0.30464637216753854
-0.31695531649755804
-0.3108008443325483
-0.31695531649755804
-0.31695531649755804
-0.3108008443325483
-0.31695531649755804
-0.3108008443325483
-0.31695531649755804
-0.31695531649755804
-0.3108008443325483
-0.3108008443325483
-0.31695531649755804
-0.31695531649755804
-0.32310978866254003
-0.32310978866254003
-0.32310978866254003
-0.31695531649755804
-0.31695531649755804
-0.3108008443325483
-0.31695531649755804
-0.31695531649755804
-0.31695531649755804
-0.32310978866254003
-0.32310978866254003
-0.32310978866254003
-0.31695531649755804
-0.31695531649755804
-0.32310978866254003
-0.31695531649755804
-0.32310978866254003
-0.32310978866254003
-0.31695531649755804
-0.32310978866254003
-0.31695531649755804
-0.32310978866254003
-0.32310978866254003
-0.31695531649755804
-0.31695531649755804
-0.31695531649755804
-0.32310978866254003
-0.35388214948756097
-0.3108008443325483
-0.30464637216753854
-0.30464637216753854
-0.3108008443325483
-0.30464637216753854
-0.2984919000025288
-0.3108008443325483
-0.32310978866254003
-0.31695531649755804
-0.3108008443325483
-0.31695531649755804
-0.3108008443325483
-0.31695531649755804
-0.31695531649755804
-0.32310978866254003
-0.32310978866254003
-0.32310978866254003
-0.32310978866254003
-0.32310978866254003
-0.31695531649755804
-0.32310978866254003
-0.32310978866254003
-0.3354187329925596
-0.3292642608275498
-0.3354187329925596
-0.3292642608275498
-0.32310978866254003
-0.32310978866254003
-0.3292642608275498
-0.32310978866254003
-0.3292642608275498
-0.3292642608275498
-0.3292642608275498
-0.3292642608275498
-0.32310978866254003
-0.3292642608275498
-0.32310978866254003
-0.3292642608275498
-0.3292642608275498
-0.32310978866254003
-0.3292642608275498
-0.32310978866254003
-0.3292642608275498
-0.32310978866254003
-0.3292642608275498
-0.32310978866254003
-0.31695531649755804
-0.31695531649755804
-0.31695531649755804
-0.32310978866254003
-0.31695531649755804
-0.31695531649755804
-0.32310978866254003
-0.31695531649755804
-0.32310978866254003
-0.31695531649755804
-0.3108008443325483
-0.3108008443325483
-0.31695531649755804
-0.32310978866254003
-0.31695531649755804
-0.32310978866254003
-0.35388214948756097
-0.3354187329925596
-0.32310978866254003
-0.31695531649755804
-0.32310978866254003
-0.32310978866254003
-0.32310978866254003
-0.32310978866254003
-0.31695531649755804
-0.32310978866254003
-0.31695531649755804
-0.31695531649755804
-0.31695531649755804
-0.3108008443325483
-0.3108008443325483
-0.31695531649755804
-0.32310978866254003
-0.32310978866254003
-0.32310978866254003
-0.31695531649755804
-0.3108008443325483
-0.3108008443325483
-0.3108008443325483
-0.3108008443325483
-0.31695531649755804
-0.3108008443325483
-0.3108008443325483
-0.31695531649755804
-0.31695531649755804
-0.31695531649755804
-0.3108008443325483
-0.30464637216753854
-0.3108008443325483
-0.30464637216753854
-0.31695531649755804
-0.31695531649755804
-0.31695531649755804
-0.31695531649755804
-0.31695531649755804
-0.3108008443325483
-0.31695531649755804
-0.3108008443325483
-0.31695531649755804
-0.31695531649755804
-0.31695531649755804
-0.31695531649755804
-0.31695531649755804
-0.32310978866254003
-0.32310978866254003
-0.32310978866254003
-0.31695531649755804
-0.31695531649755804
-0.32310978866254003
-0.31695531649755804
-0.31695531649755804
-0.31695531649755804
-0.3292642608275498
-0.32310978866254003
-0.3292642608275498
-0.32310978866254003
-0.32310978866254003
-0.31695531649755804
-0.3292642608275498
-0.3292642608275498
-0.32310978866254003
-0.3292642608275498
-0.32310978866254003
-0.31695531649755804
-0.3292642608275498
-0.31695531649755804
-0.31695531649755804
-0.31695531649755804
-0.31695531649755804
-0.3292642608275498
-0.3292642608275498
-0.3292642608275498
-0.3354187329925596
-0.32310978866254003
-0.32310978866254003
-0.32310978866254003
-0.32310978866254003
-0.3292642608275498
-0.32310978866254003
-0.3292642608275498
-0.3292642608275498
-0.32310978866254003
-0.3292642608275498
-0.3292642608275498
-0.3354187329925596
-0.3354187329925596
-0.3415732051575415
-0.3415732051575415
-0.3415732051575415
-0.34772767732255133
-0.3415732051575415
-0.3354187329925596
-0.3354187329925596
-0.32310978866254003
-0.32310978866254003
-0.3292642608275498
-0.32310978866254003
-0.32310978866254003
-0.3292642608275498
-0.3292642608275498
-0.32310978866254003
-0.32310978866254003
-0.32310978866254003
-0.3292642608275498
-0.3354187329925596
-0.3354187329925596
-0.3354187329925596
-0.3354187329925596
-0.3354187329925596
-0.3354187329925596
-0.3354187329925596
-0.34772767732255133
-0.35388214948756097
-0.360036621652543
-0.3415732051575415
-0.31695531649755804
-0.2800284835075273
-0.24925612268253405
-0.24925612268253405
-0.23079270618753256
-0.2738740113425453
-0.3292642608275498
-0.37850003814754446
-0.40311792680755576
-0.40927239897256545
-0.396963454642546
-0.390808982477564
-0.36619109381755277
-0.36619109381755277
-0.35388214948756097
-0.3415732051575415
-0.3415732051575415
-0.3354187329925596
-0.3415732051575415
-0.3354187329925596
-0.3354187329925596
-0.3415732051575415
-0.3292642608275498
-0.3292642608275498
-0.3292642608275498
-0.3292642608275498
-0.3354187329925596
-0.32310978866254003
-0.3292642608275498
-0.32310978866254003
-0.3292642608275498
-0.32310978866254003
-0.32310978866254003
-0.3292642608275498
-0.3292642608275498
-0.32310978866254003
-0.3292642608275498
-0.32310978866254003
-0.32310978866254003
-0.32310978866254003
-0.32310978866254003
-0.31695531649755804
-0.32310978866254003
-0.3292642608275498
-0.31695531649755804
-0.32310978866254003
-0.31695531649755804
-0.31695531649755804
-0.32310978866254003
-0.32310978866254003
-0.32310978866254003
-0.32310978866254003
-0.3292642608275498
-0.32310978866254003
-0.3292642608275498
-0.32310978866254003
-0.3292642608275498
-0.32310978866254003
-0.3292642608275498
-0.3292642608275498
-0.32310978866254003
-0.32310978866254003
-0.3292642608275498
-0.3292642608275498
-0.3292642608275498
-0.32310978866254003
-0.3292642608275498
-0.3292642608275498
-0.32310978866254003
-0.32310978866254003
-0.3292642608275498
-0.3292642608275498
-0.32310978866254003
-0.3292642608275498
-0.3292642608275498
-0.3354187329925596
-0.3354187329925596
-0.3354187329925596
-0.3354187329925596
-0.3415732051575415
-0.3415732051575415
-0.3415732051575415
-0.3415732051575415
-0.34772767732255133
-0.3354187329925596
-0.3415732051575415
-0.34772767732255133
-0.34772767732255133
-0.3415732051575415
-0.34772767732255133
-0.3415732051575415
-0.3415732051575415
-0.34772767732255133
-0.34772767732255133
-0.35388214948756097
-0.34772767732255133
-0.34772767732255133
-0.35388214948756097
-0.34772767732255133
-0.34772767732255133
-0.35388214948756097
-0.34772767732255133
-0.35388214948756097
-0.35388214948756097
-0.34772767732255133
-0.34772767732255133
-0.35388214948756097
-0.35388214948756097
-0.34772767732255133
-0.35388214948756097
-0.35388214948756097
-0.35388214948756097
-0.34772767732255133
-0.35388214948756097
-0.35388214948756097
-0.35388214948756097
-0.34772767732255133
-0.34772767732255133
-0.35388214948756097
-0.35388214948756097
-0.35388214948756097
-0.34772767732255133
-0.35388214948756097
-0.35388214948756097
-0.36619109381755277
-0.390808982477564
-0.35388214948756097
-0.3415732051575415
-0.3415732051575415
-0.34772767732255133
-0.360036621652543
-0.36619109381755277
-0.36619109381755277
-0.360036621652543
-0.360036621652543
-0.360036621652543
-0.360036621652543
-0.35388214948756097
-0.3723455659825625
-0.40311792680755576
-0.34772767732255133
-0.34772767732255133
-0.34772767732255133
-0.34772767732255133
-0.34772767732255133
-0.35388214948756097
-0.360036621652543
-0.36619109381755277
-0.36619109381755277
-0.35388214948756097
-0.35388214948756097
-0.360036621652543
-0.35388214948756097
-0.360036621652543
-0.35388214948756097
-0.34772767732255133
-0.35388214948756097
-0.34772767732255133
-0.34772767732255133
-0.35388214948756097
-0.34772767732255133
-0.35388214948756097
-0.35388214948756097
-0.34772767732255133
-0.3415732051575415
-0.34772767732255133
-0.34772767732255133
-0.3415732051575415
-0.3415732051575415
-0.3415732051575415
-0.3415732051575415
-0.34772767732255133
-0.34772767732255133
-0.3415732051575415
-0.3415732051575415
-0.34772767732255133
-0.3354187329925596
-0.3354187329925596
-0.3292642608275498
-0.3292642608275498
-0.3415732051575415
-0.3415732051575415
-0.3354187329925596
-0.3292642608275498
-0.32310978866254003
-0.32310978866254003
-0.32310978866254003
-0.3354187329925596
-0.3354187329925596
-0.3292642608275498
-0.3354187329925596
-0.3292642608275498
-0.3354187329925596
-0.3354187329925596
-0.3292642608275498
-0.3292642608275498
-0.3292642608275498
-0.3292642608275498
-0.3292642608275498
-0.3354187329925596
-0.3354187329925596
-0.3415732051575415
-0.34772767732255133
-0.3415732051575415
-0.3354187329925596
-0.3415732051575415
-0.3415732051575415
-0.3354187329925596
-0.3415732051575415
-0.3354187329925596
-0.3415732051575415
-0.3415732051575415
-0.3415732051575415
-0.3354187329925596
-0.3292642608275498
-0.3354187329925596
-0.3415732051575415
-0.3415732051575415
-0.3415732051575415
-0.3354187329925596
-0.3354187329925596
-0.32310978866254003
-0.32310978866254003
-0.3292642608275498
-0.3292642608275498
-0.3292642608275498
-0.3415732051575415
-0.34772767732255133
-0.3354187329925596
-0.3415732051575415
-0.3415732051575415
-0.3354187329925596
-0.3354187329925596
-0.3354187329925596
-0.3354187329925596
-0.3415732051575415
-0.3415732051575415
-0.3415732051575415
-0.35388214948756097
-0.360036621652543
-0.36619109381755277
-0.35388214948756097
-0.3292642608275498
-0.28618295567253704
-0.2554105948475438
-0.21232928969253104
-0.2061748175275213
-0.26771953917753555
-0.28618295567253704
-0.3354187329925596
-0.3846545103125543
-0.40311792680755576
-0.40311792680755576
-0.37850003814754446
-0.360036621652543
-0.360036621652543
-0.34772767732255133
-0.34772767732255133
-0.3415732051575415
-0.3415732051575415
-0.3354187329925596
-0.3354187329925596
-0.3354187329925596
-0.3354187329925596
-0.3292642608275498
-0.32310978866254003
-0.3292642608275498
-0.32310978866254003
-0.32310978866254003
-0.32310978866254003
-0.3292642608275498
-0.3292642608275498
-0.3354187329925596
-0.3292642608275498
-0.3292642608275498
-0.3354187329925596
-0.32310978866254003
-0.3292642608275498
-0.32310978866254003
-0.3292642608275498
-0.32310978866254003
-0.32310978866254003
-0.3292642608275498
-0.32310978866254003
-0.3292642608275498
-0.32310978866254003
-0.32310978866254003
-0.32310978866254003
-0.32310978866254003
-0.32310978866254003
-0.3292642608275498
-0.32310978866254003
-0.32310978866254003
-0.3292642608275498
-0.32310978866254003
-0.32310978866254003
-0.32310978866254003
-0.3292642608275498
-0.3292642608275498
-0.3292642608275498
-0.31695531649755804
-0.32310978866254003
-0.31695531649755804
-0.32310978866254003
-0.31695531649755804
-0.31695531649755804
-0.31695531649755804
-0.32310978866254003
-0.32310978866254003
-0.32310978866254003
-0.32310978866254003
-0.3108008443325483
-0.31695531649755804
-0.32310978866254003
-0.31695531649755804
-0.32310978866254003
-0.32310978866254003
-0.31695531649755804
-0.3292642608275498
-0.31695531649755804
-0.31695531649755804
-0.32310978866254003
-0.32310978866254003
-0.3292642608275498
-0.31695531649755804
-0.32310978866254003
-0.3292642608275498
-0.32310978866254003
-0.3292642608275498
-0.32310978866254003
-0.32310978866254003
-0.3292642608275498
-0.32310978866254003
-0.3292642608275498
-0.32310978866254003
-0.3292642608275498
-0.3292642608275498
-0.3292642608275498
-0.32310978866254003
-0.3292642608275498
-0.32310978866254003
-0.3292642608275498
-0.3354187329925596
-0.3354187329925596
-0.32310978866254003
-0.3292642608275498
-0.3354187329925596
-0.3292642608275498
-0.3354187329925596
-0.32310978866254003
-0.31695531649755804
-0.32310978866254003
-0.32310978866254003
-0.3292642608275498
-0.3292642608275498
-0.3354187329925596
-0.3292642608275498
-0.3354187329925596
-0.3292642608275498
-0.3354187329925596
-0.3354187329925596
-0.3292642608275498
-0.3354187329925596
-0.3292642608275498
-0.3292642608275498
-0.3292642608275498
-0.3292642608275498
-0.3354187329925596
-0.3415732051575415
-0.3723455659825625
-0.3354187329925596
-0.3415732051575415
-0.3415732051575415
-0.3354187329925596
-0.3354187329925596
-0.3354187329925596
-0.3354187329925596
-0.3354187329925596
-0.3354187329925596
-0.3354187329925596
-0.3292642608275498
-0.3354187329925596
-0.3292642608275498
-0.3354187329925596
-0.32310978866254003
-0.3292642608275498
-0.3354187329925596
-0.3354187329925596
-0.3354187329925596
-0.3354187329925596
-0.3354187329925596
-0.3292642608275498
-0.3292642608275498
-0.3354187329925596
-0.32310978866254003
-0.3354187329925596
-0.3292642608275498
-0.3292642608275498
-0.3354187329925596
-0.3354187329925596
-0.3354187329925596
-0.3292642608275498
-0.3292642608275498
-0.3292642608275498
-0.3354187329925596
-0.32310978866254003
-0.32310978866254003
-0.3292642608275498
-0.3354187329925596
-0.3292642608275498
-0.3292642608275498
-0.3292642608275498
-0.3292642608275498
-0.3354187329925596
-0.3354187329925596
-0.3292642608275498
-0.3354187329925596
-0.32310978866254003
-0.3292642608275498
-0.3292642608275498
-0.32310978866254003
-0.3292642608275498
-0.32310978866254003
-0.3292642608275498
-0.32310978866254003
-0.3292642608275498
-0.32310978866254003
-0.32310978866254003
-0.3292642608275498
-0.32310978866254003
-0.3354187329925596
-0.32310978866254003
-0.3354187329925596
-0.3292642608275498
-0.32310978866254003
-0.3292642608275498
-0.3292642608275498
-0.32310978866254003
-0.32310978866254003
-0.32310978866254003
-0.32310978866254003
-0.32310978866254003
-0.32310978866254003
-0.31695531649755804
-0.32310978866254003
-0.32310978866254003
-0.32310978866254003
-0.3292642608275498
-0.32310978866254003
-0.32310978866254003
-0.3292642608275498
-0.3292642608275498
-0.3292642608275498
-0.31695531649755804
-0.3292642608275498
-0.3292642608275498
-0.3354187329925596
-0.3354187329925596
-0.3354187329925596
-0.360036621652543
-0.3723455659825625
-0.3292642608275498
-0.32310978866254003
-0.32310978866254003
-0.31695531649755804
-0.31695531649755804
-0.3108008443325483
-0.3292642608275498
-0.3354187329925596
-0.3354187329925596
-0.3354187329925596
-0.3292642608275498
-0.32310978866254003
-0.32310978866254003
-0.3292642608275498
-0.3292642608275498
-0.32310978866254003
-0.3292642608275498
-0.32310978866254003
-0.32310978866254003
-0.32310978866254003
-0.32310978866254003
-0.3354187329925596
-0.360036621652543
-0.36619109381755277
-0.35388214948756097
-0.3415732051575415
-0.2984919000025288
-0.24925612268253405
-0.2061748175275213
-0.17540245670252808
-0.2246382340225228
-0.23694717835254234
-0.2984919000025288
-0.36619109381755277
-0.3846545103125543
-0.390808982477564
-0.37850003814754446
-0.360036621652543
-0.36619109381755277
-0.36619109381755277
-0.35388214948756097
-0.34772767732255133
-0.35388214948756097
-0.3415732051575415
-0.34772767732255133
-0.34772767732255133
-0.34772767732255133
-0.3415732051575415
-0.3415732051575415
-0.3415732051575415
-0.3354187329925596
-0.3415732051575415
-0.3354187329925596
-0.3354187329925596
-0.3354187329925596
-0.3292642608275498
-0.3292642608275498
-0.3292642608275498
-0.3354187329925596
-0.3292642608275498
-0.3292642608275498
-0.3354187329925596
-0.3354187329925596
-0.3354187329925596
-0.3354187329925596
-0.3292642608275498
-0.32310978866254003
-0.3292642608275498
-0.3292642608275498
-0.3292642608275498
-0.3354187329925596
-0.3292642608275498
-0.3292642608275498
-0.32310978866254003
-0.3292642608275498
-0.3292642608275498
-0.3354187329925596
-0.3354187329925596
-0.3354187329925596
-0.3354187329925596
-0.3354187329925596
-0.3292642608275498
-0.3354187329925596
-0.3292642608275498
-0.3415732051575415
-0.3354187329925596
-0.3292642608275498
-0.3292642608275498
-0.3354187329925596
-0.3415732051575415
-0.3354187329925596
-0.3354187329925596
-0.3292642608275498
-0.3354187329925596
-0.3354187329925596
-0.32310978866254003
-0.3292642608275498
-0.32310978866254003
-0.3292642608275498
-0.3292642608275498
-0.3292642608275498
-0.32310978866254003
-0.3292642608275498
-0.3354187329925596
-0.3292642608275498
-0.3292642608275498
-0.3292642608275498
-0.3354187329925596
-0.3292642608275498
-0.3292642608275498
-0.3415732051575415
-0.3415732051575415
-0.3354187329925596
-0.3354187329925596
-0.3415732051575415
-0.3415732051575415
-0.3354187329925596
-0.3354187329925596
-0.3354187329925596
-0.3354187329925596
-0.3354187329925596
-0.3292642608275498
-0.3354187329925596
-0.3292642608275498
-0.3292642608275498
-0.3415732051575415
-0.3415732051575415
-0.3354187329925596
-0.3415732051575415
-0.3354187329925596
-0.3415732051575415
-0.3415732051575415
-0.3415732051575415
-0.3415732051575415
-0.3415732051575415
-0.3415732051575415
-0.3292642608275498
-0.3292642608275498
-0.3354187329925596
-0.3292642608275498
-0.3292642608275498
-0.3292642608275498
-0.3292642608275498
-0.3292642608275498
-0.3354187329925596
-0.3292642608275498
-0.3354187329925596
-0.3354187329925596
-0.3292642608275498
-0.3415732051575415
-0.3415732051575415
-0.35388214948756097
-0.3723455659825625
-0.3415732051575415
-0.3354187329925596
-0.3292642608275498
-0.3292642608275498
-0.3354187329925596
-0.3292642608275498
-0.34772767732255133
-0.360036621652543
-0.34772767732255133
-0.34772767732255133
-0.3415732051575415
-0.34772767732255133
-0.34772767732255133
-0.3415732051575415
-0.3415732051575415
-0.3415732051575415
-0.34772767732255133
-0.3415732051575415
-0.3415732051575415
-0.34772767732255133
-0.34772767732255133
-0.35388214948756097
-0.3415732051575415
-0.34772767732255133
-0.3415732051575415
-0.34772767732255133
-0.34772767732255133
-0.34772767732255133
-0.34772767732255133
-0.34772767732255133
-0.35388214948756097
-0.34772767732255133
-0.35388214948756097
-0.35388214948756097
-0.35388214948756097
-0.3415732051575415
-0.3415732051575415
-0.34772767732255133
-0.360036621652543
-0.35388214948756097
-0.34772767732255133
-0.35388214948756097
-0.35388214948756097
-0.35388214948756097
-0.35388214948756097
-0.35388214948756097
-0.35388214948756097
-0.35388214948756097
-0.35388214948756097
-0.35388214948756097
-0.34772767732255133
-0.34772767732255133
-0.35388214948756097
-0.34772767732255133
-0.34772767732255133
-0.35388214948756097
-0.35388214948756097
-0.35388214948756097
-0.360036621652543
-0.35388214948756097
-0.35388214948756097
-0.35388214948756097
-0.360036621652543
-0.35388214948756097
-0.35388214948756097
-0.35388214948756097
-0.35388214948756097
-0.360036621652543
-0.35388214948756097
-0.36619109381755277
-0.360036621652543
-0.360036621652543
-0.360036621652543
-0.36619109381755277
-0.360036621652543
-0.35388214948756097
-0.35388214948756097
-0.360036621652543
-0.36619109381755277
-0.360036621652543
-0.36619109381755277
-0.36619109381755277
-0.360036621652543
-0.360036621652543
-0.360036621652543
-0.360036621652543
-0.360036621652543
-0.360036621652543
-0.36619109381755277
-0.360036621652543
-0.36619109381755277
-0.3723455659825625
-0.36619109381755277
-0.3723455659825625
-0.360036621652543
-0.360036621652543
-0.360036621652543
-0.36619109381755277
-0.360036621652543
-0.360036621652543
-0.3723455659825625
-0.36619109381755277
-0.36619109381755277
-0.3723455659825625
-0.36619109381755277
-0.360036621652543
-0.360036621652543
-0.360036621652543
-0.36619109381755277
-0.360036621652543
-0.36619109381755277
-0.36619109381755277
-0.3846545103125543
-0.390808982477564
-0.396963454642546
-0.390808982477564
-0.36619109381755277
-0.32310978866254003
-0.28618295567253704
-0.2431016505175243
-0.2431016505175243
-0.3108008443325483
-0.3415732051575415
-0.3846545103125543
-0.427735815467567
-0.4400447597975588
-0.44619923196256844
-0.427735815467567
-0.40927239897256545
-0.3846545103125543
-0.3846545103125543
-0.3723455659825625
-0.3723455659825625
-0.36619109381755277
-0.37850003814754446
-0.36619109381755277
-0.36619109381755277
-0.36619109381755277
-0.3723455659825625
-0.36619109381755277
-0.3723455659825625
-0.3723455659825625
-0.3723455659825625
-0.3723455659825625
-0.36619109381755277
-0.36619109381755277
-0.36619109381755277
-0.360036621652543
-0.360036621652543
-0.36619109381755277
-0.3723455659825625
-0.36619109381755277
-0.360036621652543
-0.36619109381755277
-0.36619109381755277
-0.36619109381755277
-0.36619109381755277
-0.36619109381755277
-0.36619109381755277
-0.35388214948756097
-0.360036621652543
-0.360036621652543
-0.35388214948756097
-0.36619109381755277
-0.360036621652543
-0.36619109381755277
-0.40311792680755576
-0.3723455659825625
-0.35388214948756097
-0.34772767732255133
-0.34772767732255133
-0.34772767732255133
-0.35388214948756097
-0.35388214948756097
-0.36619109381755277
-0.3723455659825625
-0.360036621652543
-0.36619109381755277
-0.35388214948756097
-0.35388214948756097
-0.35388214948756097
-0.34772767732255133
-0.34772767732255133
-0.3415732051575415
-0.3415732051575415
-0.34772767732255133
-0.34772767732255133
-0.34772767732255133
-0.34772767732255133
-0.34772767732255133
-0.360036621652543
-0.35388214948756097
-0.35388214948756097
-0.35388214948756097
-0.360036621652543
-0.360036621652543
-0.36619109381755277
-0.360036621652543
-0.360036621652543
-0.360036621652543
-0.36619109381755277
-0.36619109381755277
-0.36619109381755277
-0.3723455659825625
-0.36619109381755277
-0.36619109381755277
-0.3723455659825625
-0.36619109381755277
-0.3723455659825625
-0.36619109381755277
-0.3723455659825625
-0.36619109381755277
-0.36619109381755277
-0.3723455659825625
-0.36619109381755277
-0.3723455659825625
-0.3723455659825625
-0.360036621652543
-0.3723455659825625
-0.3723455659825625
-0.3723455659825625
-0.36619109381755277
-0.36619109381755277
-0.3723455659825625
-0.36619109381755277
-0.3723455659825625
-0.36619109381755277
-0.3723455659825625
-0.360036621652543
-0.3723455659825625
-0.37850003814754446
-0.36619109381755277
-0.36619109381755277
-0.36619109381755277
-0.3723455659825625
-0.35388214948756097
-0.360036621652543
-0.36619109381755277
-0.36619109381755277
-0.36619109381755277
-0.360036621652543
-0.360036621652543
-0.37850003814754446
-0.40311792680755576
-0.36619109381755277
-0.35388214948756097
-0.3723455659825625
-0.3723455659825625
-0.36619109381755277
-0.36619109381755277
-0.37850003814754446
-0.37850003814754446
-0.3723455659825625
-0.36619109381755277
-0.37850003814754446
-0.3723455659825625
-0.3723455659825625
-0.36619109381755277
-0.36619109381755277
-0.36619109381755277
-0.360036621652543
-0.36619109381755277
-0.360036621652543
-0.36619109381755277
-0.36619109381755277
-0.360036621652543
-0.36619109381755277
-0.3723455659825625
-0.36619109381755277
-0.36619109381755277
-0.3723455659825625
-0.3723455659825625
-0.3723455659825625
-0.37850003814754446
-0.3723455659825625
-0.36619109381755277
-0.3723455659825625
-0.3723455659825625
-0.37850003814754446
-0.3723455659825625
-0.37850003814754446
-0.37850003814754446
-0.3723455659825625
-0.37850003814754446
-0.37850003814754446
-0.3723455659825625
-0.3846545103125543
-0.3723455659825625
-0.37850003814754446
-0.3723455659825625
-0.3723455659825625
-0.3723455659825625
-0.37850003814754446
-0.37850003814754446
-0.3723455659825625
-0.37850003814754446
-0.3723455659825625
-0.37850003814754446
-0.37850003814754446
-0.3723455659825625
-0.37850003814754446
-0.37850003814754446
-0.3723455659825625
-0.37850003814754446
-0.3723455659825625
-0.3723455659825625
-0.37850003814754446
-0.36619109381755277
-0.37850003814754446
-0.37850003814754446
-0.37850003814754446
-0.3723455659825625
-0.3723455659825625
-0.36619109381755277
-0.37850003814754446
-0.3723455659825625
-0.3723455659825625
-0.3723455659825625
-0.36619109381755277
-0.3723455659825625
-0.3723455659825625
-0.36619109381755277
-0.360036621652543
-0.3723455659825625
-0.3723455659825625
-0.3723455659825625
-0.37850003814754446
-0.3723455659825625
-0.3723455659825625
-0.37850003814754446
-0.3723455659825625
-0.36619109381755277
-0.36619109381755277
-0.36619109381755277
-0.360036621652543
-0.360036621652543
-0.36619109381755277
-0.3723455659825625
-0.36619109381755277
-0.3723455659825625
-0.36619109381755277
-0.36619109381755277
-0.360036621652543
-0.36619109381755277
-0.36619109381755277
-0.36619109381755277
-0.36619109381755277
-0.360036621652543
-0.3723455659825625
-0.37850003814754446
-0.3846545103125543
-0.390808982477564
-0.390808982477564
-0.36619109381755277
-0.3292642608275498
-0.2984919000025288
-0.2738740113425453
-0.2554105948475438
-0.26771953917753555
-0.3292642608275498
-0.37850003814754446
-0.4154268711375475
-0.4400447597975588
-0.433890287632549
-0.427735815467567
-0.4400447597975588
-0.396963454642546
-0.396963454642546
-0.396963454642546
-0.390808982477564
-0.37850003814754446
-0.37850003814754446
-0.3846545103125543
-0.3846545103125543
-0.3723455659825625
-0.3723455659825625
-0.3723455659825625
-0.36619109381755277
-0.3723455659825625
-0.3723455659825625
-0.36619109381755277
-0.360036621652543
-0.360036621652543
-0.360036621652543
-0.360036621652543
-0.360036621652543
-0.360036621652543
-0.360036621652543
-0.35388214948756097
-0.360036621652543
-0.36619109381755277
-0.36619109381755277
-0.360036621652543
-0.36619109381755277
-0.36619109381755277
-0.360036621652543
-0.360036621652543
-0.36619109381755277
-0.3723455659825625
-0.3723455659825625
-0.36619109381755277
-0.36619109381755277
-0.3723455659825625
-0.3723455659825625
-0.36619109381755277
-0.3723455659825625
-0.360036621652543
-0.36619109381755277
-0.36619109381755277
-0.36619109381755277
-0.360036621652543
-0.36619109381755277
-0.3723455659825625
-0.36619109381755277
-0.36619109381755277
-0.3723455659825625
-0.36619109381755277
-0.36619109381755277
-0.36619109381755277
-0.35388214948756097
-0.360036621652543
-0.360036621652543
-0.360036621652543
-0.35388214948756097
-0.360036621652543
-0.35388214948756097
-0.35388214948756097
-0.35388214948756097
-0.360036621652543
-0.35388214948756097
-0.360036621652543
-0.35388214948756097
-0.36619109381755277
-0.36619109381755277
-0.36619109381755277
-0.360036621652543
-0.3723455659825625
-0.36619109381755277
-0.3723455659825625
-0.36619109381755277
-0.36619109381755277
-0.37850003814754446
-0.37850003814754446
-0.37850003814754446
-0.37850003814754446
-0.37850003814754446
-0.37850003814754446
-0.3846545103125543
-0.3846545103125543
-0.37850003814754446
-0.37850003814754446
-0.3846545103125543
-0.37850003814754446
-0.3846545103125543
-0.3723455659825625
-0.3723455659825625
-0.3846545103125543
-0.37850003814754446
-0.3846545103125543
-0.3846545103125543
-0.3846545103125543
-0.3846545103125543
-0.390808982477564
-0.390808982477564
-0.3846545103125543
-0.390808982477564
-0.390808982477564
-0.37850003814754446
-0.37850003814754446
-0.37850003814754446
-0.3846545103125543
-0.390808982477564
-0.3846545103125543
-0.3846545103125543
-0.3846545103125543
-0.3846545103125543
-0.37850003814754446
-0.3846545103125543
-0.3846545103125543
-0.390808982477564
-0.37850003814754446
-0.3846545103125543
-0.3723455659825625
-0.3723455659825625
-0.37850003814754446
-0.37850003814754446
-0.3846545103125543
-0.44619923196256844
-0.42158134330255725
-0.3723455659825625
-0.3723455659825625
-0.3723455659825625
-0.36619109381755277
-0.3723455659825625
-0.3723455659825625
-0.390808982477564
-0.390808982477564
-0.3846545103125543
-0.3846545103125543
-0.3846545103125543
-0.3846545103125543
-0.3723455659825625
-0.37850003814754446
-0.37850003814754446
-0.3846545103125543
-0.3723455659825625
-0.37850003814754446
-0.3846545103125543
-0.3723455659825625
-0.3723455659825625
-0.37850003814754446
-0.3846545103125543
-0.37850003814754446
-0.37850003814754446
-0.3723455659825625
-0.37850003814754446
-0.36619109381755277
-0.36619109381755277
-0.3723455659825625
-0.37850003814754446
-0.3723455659825625
-0.37850003814754446
-0.3723455659825625
-0.3723455659825625
-0.37850003814754446
-0.3723455659825625
-0.3723455659825625
-0.3723455659825625
-0.3723455659825625
-0.37850003814754446
-0.37850003814754446
-0.37850003814754446
-0.37850003814754446
-0.37850003814754446
-0.37850003814754446
-0.3723455659825625
-0.36619109381755277
-0.3723455659825625
-0.3723455659825625
-0.37850003814754446
-0.37850003814754446
-0.37850003814754446
-0.37850003814754446
-0.37850003814754446
-0.3846545103125543
-0.37850003814754446
-0.37850003814754446
-0.37850003814754446
-0.37850003814754446
-0.36619109381755277
-0.37850003814754446
-0.37850003814754446
-0.36619109381755277
-0.360036621652543
-0.360036621652543
-0.360036621652543
-0.36619109381755277
-0.36619109381755277
-0.360036621652543
-0.360036621652543
-0.36619109381755277
-0.360036621652543
-0.35388214948756097
-0.360036621652543
-0.35388214948756097
-0.360036621652543
-0.35388214948756097
-0.360036621652543
-0.36619109381755277
-0.36619109381755277
-0.360036621652543
-0.360036621652543
-0.360036621652543
-0.36619109381755277
-0.360036621652543
-0.360036621652543
-0.36619109381755277
-0.35388214948756097
-0.35388214948756097
-0.35388214948756097
-0.35388214948756097
-0.360036621652543
-0.36619109381755277
-0.36619109381755277
-0.36619109381755277
-0.3723455659825625
-0.36619109381755277
-0.36619109381755277
-0.36619109381755277
-0.36619109381755277
-0.360036621652543
-0.360036621652543
-0.36619109381755277
-0.36619109381755277
-0.360036621652543
-0.36619109381755277
-0.37850003814754446
-0.390808982477564
-0.390808982477564
-0.3846545103125543
-0.360036621652543
-0.3292642608275498
-0.2800284835075273
-0.23079270618753256
-0.21232928969253104
-0.24925612268253405
-0.31695531649755804
-0.36619109381755277
-0.4154268711375475
-0.46466264845757
-0.40311792680755576
-0.390808982477564
-0.3846545103125543
-0.3723455659825625
-0.3723455659825625
-0.3846545103125543
-0.37850003814754446
-0.3723455659825625
-0.3723455659825625
-0.36619109381755277
-0.36619109381755277
-0.36619109381755277
-0.36619109381755277
-0.3723455659825625
-0.36619109381755277
-0.36619109381755277
-0.36619109381755277
-0.36619109381755277
-0.36619109381755277
-0.3723455659825625
-0.36619109381755277
-0.3723455659825625
-0.360036621652543
-0.36619109381755277
-0.360036621652543
-0.36619109381755277
-0.36619109381755277
-0.35388214948756097
-0.35388214948756097
-0.36619109381755277
-0.360036621652543
-0.360036621652543
-0.35388214948756097
-0.35388214948756097
-0.35388214948756097
-0.3415732051575415
-0.34772767732255133
-0.3415732051575415
-0.34772767732255133
-0.3415732051575415
-0.3354187329925596
-0.3354187329925596
-0.3415732051575415
-0.3415732051575415
-0.3354187329925596
-0.3415732051575415
-0.3354187329925596
-0.3354187329925596
-0.3292642608275498
-0.3292642608275498
-0.3354187329925596
-0.3292642608275498
-0.3354187329925596
-0.3415732051575415
-0.3292642608275498
-0.3354187329925596
-0.32310978866254003
-0.32310978866254003
-0.3292642608275498
-0.32310978866254003
-0.3292642608275498
-0.32310978866254003
-0.32310978866254003
-0.31695531649755804
-0.31695531649755804
-0.31695531649755804
-0.31695531649755804
-0.31695531649755804
-0.31695531649755804
-0.32310978866254003
-0.31695531649755804
-0.31695531649755804
-0.31695531649755804
-0.31695531649755804
-0.31695531649755804
-0.32310978866254003
-0.3292642608275498
-0.3292642608275498
-0.3292642608275498
-0.3292642608275498
-0.3292642608275498
-0.3292642608275498
-0.32310978866254003
-0.32310978866254003
-0.32310978866254003
-0.32310978866254003
-0.31695531649755804
-0.31695531649755804
-0.32310978866254003
-0.31695531649755804
-0.32310978866254003
-0.32310978866254003
-0.31695531649755804
-0.3292642608275498
-0.32310978866254003
-0.3292642608275498
-0.3292642608275498
-0.3292642608275498
-0.32310978866254003
-0.32310978866254003
-0.32310978866254003
-0.3292642608275498
-0.3292642608275498
-0.32310978866254003
-0.3292642608275498
-0.3292642608275498
-0.3292642608275498
-0.3354187329925596
-0.3292642608275498
-0.3354187329925596
-0.3292642608275498
-0.3354187329925596
-0.3354187329925596
-0.3354187329925596
-0.3292642608275498
-0.3354187329925596
-0.3292642608275498
-0.3354187329925596
-0.3354187329925596
-0.3354187329925596
-0.34772767732255133
-0.3846545103125543
-0.3292642608275498
-0.32310978866254003
-0.32310978866254003
-0.3415732051575415
-0.34772767732255133
-0.3415732051575415
-0.3415732051575415
-0.3415732051575415
-0.3354187329925596
-0.3354187329925596
-0.3415732051575415
-0.3354187329925596
-0.3415732051575415
-0.3354187329925596
-0.3415732051575415
-0.3415732051575415
-0.3415732051575415
-0.3354187329925596
-0.3415732051575415
-0.3415732051575415
-0.3354187329925596
-0.34772767732255133
-0.34772767732255133
-0.3415732051575415
-0.3415732051575415
-0.34772767732255133
-0.3415732051575415
-0.3415732051575415
-0.3415732051575415
-0.3415732051575415
-0.3354187329925596
-0.3415732051575415
-0.3415732051575415
-0.3354187329925596
-0.3354187329925596
-0.3354187329925596
-0.3354187329925596
-0.3354187329925596
-0.3354187329925596
-0.3354187329925596
-0.3415732051575415
-0.3415732051575415
-0.3415732051575415
-0.3354187329925596
-0.3415732051575415
-0.3415732051575415
-0.3354187329925596
-0.3354187329925596
-0.3354187329925596
-0.3415732051575415
-0.3354187329925596
-0.3354187329925596
-0.3354187329925596
-0.3354187329925596
-0.3415732051575415
-0.3292642608275498
-0.3354187329925596
-0.3415732051575415
-0.3415732051575415
-0.3415732051575415
-0.3354187329925596
-0.3354187329925596
-0.3415732051575415
-0.3415732051575415
-0.3415732051575415
-0.3415732051575415
-0.3354187329925596
-0.3354187329925596
-0.3415732051575415
-0.3354187329925596
-0.3354187329925596
-0.3415732051575415
-0.3415732051575415
-0.3354187329925596
-0.3354187329925596
-0.360036621652543
-0.3723455659825625
-0.32310978866254003
-0.31695531649755804
-0.32310978866254003
-0.32310978866254003
-0.3292642608275498
-0.32310978866254003
-0.3354187329925596
-0.3415732051575415
-0.3354187329925596
-0.3415732051575415
-0.3354187329925596
-0.3354187329925596
-0.3292642608275498
-0.3292642608275498
-0.3354187329925596
-0.3292642608275498
-0.3292642608275498
-0.3354187329925596
-0.3354187329925596
-0.3354187329925596
-0.3354187329925596
-0.3292642608275498
-0.3292642608275498
-0.32310978866254003
-0.31695531649755804
-0.31695531649755804
-0.32310978866254003
-0.3292642608275498
-0.32310978866254003
-0.32310978866254003
-0.3354187329925596
-0.3354187329925596
-0.32310978866254003
-0.32310978866254003
-0.32310978866254003
-0.32310978866254003
-0.3292642608275498
-0.3292642608275498
-0.32310978866254003
-0.32310978866254003
-0.3354187329925596
-0.34772767732255133
-0.35388214948756097
-0.36619109381755277
-0.390808982477564
-0.3108008443325483
-0.2554105948475438
-0.2184837618575408
-0.16309351237253633
-0.15078456804251686
-0.2000203453625393
-0.26771953917753555
-0.3354187329925596
-0.3846545103125543
-0.3846545103125543
-0.3723455659825625
-0.360036621652543
-0.34772767732255133
-0.3415732051575415
-0.34772767732255133
-0.3415732051575415
-0.3354187329925596
-0.34772767732255133
-0.3415732051575415
-0.3415732051575415
-0.3354187329925596
-0.3415732051575415
-0.3354187329925596
-0.3415732051575415
-0.3415732051575415
-0.3354187329925596
-0.3415732051575415
-0.3415732051575415
-0.3354187329925596
-0.3354187329925596
-0.3354187329925596
-0.3354187329925596
-0.3354187329925596
-0.3292642608275498
-0.3354187329925596
-0.3292642608275498
-0.3292642608275498
-0.32310978866254003
-0.32310978866254003
-0.3292642608275498
-0.32310978866254003
-0.31695531649755804
-0.32310978866254003
-0.31695531649755804
-0.3108008443325483
-0.31695531649755804
-0.31695531649755804
-0.31695531649755804
-0.3108008443325483
-0.3108008443325483
-0.30464637216753854
-0.30464637216753854
-0.3108008443325483
-0.3108008443325483
-0.3108008443325483
-0.3108008443325483
-0.30464637216753854
-0.30464637216753854
-0.3108008443325483
-0.3108008443325483
-0.30464637216753854
-0.30464637216753854
-0.3108008443325483
-0.30464637216753854
-0.30464637216753854
-0.30464637216753854
-0.3108008443325483
-0.30464637216753854
-0.30464637216753854
-0.30464637216753854
-0.30464637216753854
-0.2984919000025288
-0.30464637216753854
-0.30464637216753854
-0.2984919000025288
-0.2984919000025288
-0.30464637216753854
-0.30464637216753854
-0.2984919000025288
-0.2984919000025288
-0.30464637216753854
-0.3108008443325483
-0.3108008443325483
-0.30464637216753854
-0.2984919000025288
-0.30464637216753854
-0.3108008443325483
-0.30464637216753854
-0.30464637216753854
-0.30464637216753854
-0.30464637216753854
-0.3108008443325483
-0.30464637216753854
-0.30464637216753854
-0.3108008443325483
-0.30464637216753854
-0.30464637216753854
-0.30464637216753854
-0.3108008443325483
-0.30464637216753854
-0.30464637216753854
-0.30464637216753854
-0.2984919000025288
-0.30464637216753854
-0.2984919000025288
-0.30464637216753854
-0.3108008443325483
-0.30464637216753854
-0.30464637216753854
-0.30464637216753854
-0.30464637216753854
-0.30464637216753854
-0.30464637216753854
-0.3108008443325483
-0.30464637216753854
-0.30464637216753854
-0.30464637216753854
-0.30464637216753854
-0.30464637216753854
-0.30464637216753854
-0.31695531649755804
-0.35388214948756097
-0.32310978866254003
-0.31695531649755804
-0.3108008443325483
-0.30464637216753854
-0.3108008443325483
-0.2984919000025288
-0.2984919000025288
-0.3108008443325483
-0.3108008443325483
-0.30464637216753854
-0.30464637216753854
-0.3108008443325483
-0.30464637216753854
-0.3108008443325483
-0.30464637216753854
-0.30464637216753854
-0.30464637216753854
-0.3108008443325483
-0.30464637216753854
-0.30464637216753854
-0.30464637216753854
-0.30464637216753854
-0.3108008443325483
-0.3108008443325483
-0.3108008443325483
-0.30464637216753854
-0.3108008443325483
-0.3108008443325483
-0.30464637216753854
-0.3108008443325483
-0.3108008443325483
-0.30464637216753854
-0.3108008443325483
-0.2984919000025288
-0.30464637216753854
-0.3108008443325483
-0.3108008443325483
-0.3108008443325483
-0.30464637216753854
-0.30464637216753854
-0.3108008443325483
-0.30464637216753854
-0.3108008443325483
-0.3108008443325483
-0.31695531649755804
-0.3108008443325483
-0.30464637216753854
-0.3108008443325483
-0.3108008443325483
-0.31695531649755804
-0.3108008443325483
-0.30464637216753854
-0.3108008443325483
-0.30464637216753854
-0.3108008443325483
-0.3108008443325483
-0.3108008443325483
-0.30464637216753854
-0.3108008443325483
-0.3108008443325483
-0.31695531649755804
-0.3108008443325483
-0.3108008443325483
-0.30464637216753854
-0.3108008443325483
-0.3108008443325483
-0.3108008443325483
-0.30464637216753854
-0.3108008443325483
-0.3108008443325483
-0.3108008443325483
-0.3108008443325483
-0.30464637216753854
-0.3108008443325483
-0.30464637216753854
-0.30464637216753854
-0.3108008443325483
-0.30464637216753854
-0.3108008443325483
-0.30464637216753854
-0.3108008443325483
-0.3108008443325483
-0.3108008443325483
-0.30464637216753854
-0.30464637216753854
-0.3108008443325483
-0.30464637216753854
-0.3108008443325483
-0.31695531649755804
-0.3108008443325483
-0.30464637216753854
-0.3108008443325483
-0.30464637216753854
-0.30464637216753854
-0.2984919000025288
-0.30464637216753854
-0.30464637216753854
-0.30464637216753854
-0.2984919000025288
-0.30464637216753854
-0.2984919000025288
-0.30464637216753854
-0.2984919000025288
-0.3108008443325483
-0.3108008443325483
-0.30464637216753854
-0.30464637216753854
-0.30464637216753854
-0.31695531649755804
-0.31695531649755804
-0.3108008443325483
-0.32310978866254003
-0.32310978866254003
-0.30464637216753854
-0.30464637216753854
-0.30464637216753854
-0.3108008443325483
-0.30464637216753854
-0.3108008443325483
-0.3108008443325483
-0.31695531649755804
-0.34772767732255133
-0.30464637216753854
-0.3108008443325483
-0.3108008443325483
-0.3108008443325483
-0.3108008443325483
-0.3108008443325483
-0.32310978866254003
-0.32310978866254003
-0.32310978866254003
-0.3292642608275498
-0.3354187329925596
-0.34772767732255133
-0.34772767732255133
-0.3292642608275498
-0.30464637216753854
-0.26771953917753555
-0.2246382340225228
-0.18155692886753785
-0.18155692886753785
-0.23079270618753256
-0.29233742783754685
-0.3415732051575415
-0.390808982477564
-0.390808982477564
-0.37850003814754446
-0.36619109381755277
-0.3415732051575415
-0.3354187329925596
-0.3354187329925596
-0.31695531649755804
-0.34772767732255133
-0.3292642608275498
-0.30464637216753854
-0.30464637216753854
-0.30464637216753854
-0.30464637216753854
-0.30464637216753854
-0.2984919000025288
-0.3108008443325483
-0.31695531649755804
-0.3108008443325483
-0.30464637216753854
-0.30464637216753854
-0.30464637216753854
-0.2984919000025288
-0.2984919000025288
-0.2984919000025288
-0.2984919000025288
-0.29233742783754685
-0.29233742783754685
-0.2984919000025288
-0.2984919000025288
-0.2984919000025288
-0.28618295567253704
-0.29233742783754685
-0.29233742783754685
-0.28618295567253704
-0.29233742783754685
-0.29233742783754685
-0.29233742783754685
-0.2984919000025288
-0.2984919000025288
-0.2984919000025288
-0.29233742783754685
-0.28618295567253704
-0.29233742783754685
-0.29233742783754685
-0.29233742783754685
-0.28618295567253704
-0.28618295567253704
-0.28618295567253704
-0.29233742783754685
-0.29233742783754685
-0.29233742783754685
-0.28618295567253704
-0.29233742783754685
-0.29233742783754685
-0.29233742783754685
-0.28618295567253704
-0.28618295567253704
-0.29233742783754685
-0.28618295567253704
-0.28618295567253704
-0.28618295567253704
-0.2800284835075273
-0.2800284835075273
-0.2800284835075273
-0.29233742783754685
-0.29233742783754685
-0.29233742783754685
-0.29233742783754685
-0.30464637216753854
-0.30464637216753854
-0.30464637216753854
-0.31695531649755804
-0.30464637216753854
-0.3108008443325483
-0.31695531649755804
-0.3108008443325483
-0.32310978866254003
-0.32310978866254003
-0.31695531649755804
-0.32310978866254003
-0.32310978866254003
-0.32310978866254003
-0.32310978866254003
-0.31695531649755804
-0.31695531649755804
-0.31695531649755804
-0.31695531649755804
-0.32310978866254003
-0.32310978866254003
-0.32310978866254003
-0.32310978866254003
-0.32310978866254003
-0.3292642608275498
-0.32310978866254003
-0.32310978866254003
-0.32310978866254003
-0.3292642608275498
-0.3354187329925596
-0.36619109381755277
-0.31695531649755804
-0.32310978866254003
-0.31695531649755804
-0.3292642608275498
-0.3292642608275498
-0.3415732051575415
-0.3415732051575415
-0.3292642608275498
-0.3292642608275498
-0.3354187329925596
-0.3292642608275498
-0.3292642608275498
-0.3292642608275498
-0.32310978866254003
-0.32310978866254003
-0.3292642608275498
-0.32310978866254003
-0.3292642608275498
-0.3292642608275498
-0.3292642608275498
-0.32310978866254003
-0.32310978866254003
-0.3292642608275498
-0.3292642608275498
-0.32310978866254003
-0.32310978866254003
-0.32310978866254003
-0.31695531649755804
-0.31695531649755804
-0.32310978866254003
-0.31695531649755804
-0.31695531649755804
-0.3108008443325483
-0.31695531649755804
-0.31695531649755804
-0.31695531649755804
-0.31695531649755804
-0.31695531649755804
-0.3108008443325483
-0.3108008443325483
-0.3108008443325483
-0.31695531649755804
-0.32310978866254003
-0.32310978866254003
-0.32310978866254003
-0.32310978866254003
-0.31695531649755804
-0.31695531649755804
-0.3108008443325483
-0.31695531649755804
-0.31695531649755804
-0.3108008443325483
-0.3108008443325483
-0.32310978866254003
-0.3108008443325483
-0.31695531649755804
-0.31695531649755804
-0.31695531649755804
-0.3108008443325483
-0.31695531649755804
-0.3108008443325483
-0.3108008443325483
-0.3108008443325483
-0.3108008443325483
-0.30464637216753854
-0.31695531649755804
-0.3108008443325483
-0.3108008443325483
-0.3108008443325483
-0.3108008443325483
-0.30464637216753854
-0.30464637216753854
-0.3108008443325483
-0.2984919000025288
-0.2984919000025288
-0.30464637216753854
-0.3108008443325483
-0.30464637216753854
-0.30464637216753854
-0.3108008443325483
-0.30464637216753854
-0.3108008443325483
-0.3108008443325483
-0.3108008443325483
-0.3108008443325483
-0.3108008443325483
-0.3108008443325483
-0.3108008443325483
-0.31695531649755804
-0.31695531649755804
-0.31695531649755804
-0.3108008443325483
-0.3108008443325483
-0.3108008443325483
-0.3108008443325483
-0.3108008443325483
-0.3108008443325483
-0.30464637216753854
-0.30464637216753854
-0.30464637216753854
-0.30464637216753854
-0.3108008443325483
-0.3108008443325483
-0.30464637216753854
-0.30464637216753854
-0.2984919000025288
-0.2984919000025288
-0.2984919000025288
-0.2984919000025288
-0.2984919000025288
-0.2984919000025288
-0.2984919000025288
-0.30464637216753854
-0.30464637216753854
-0.30464637216753854
-0.30464637216753854
-0.30464637216753854
-0.2984919000025288
-0.30464637216753854
-0.30464637216753854
-0.3108008443325483
-0.3415732051575415
-0.30464637216753854
-0.30464637216753854
-0.3108008443325483
-0.3108008443325483
-0.30464637216753854
-0.30464637216753854
-0.2984919000025288
-0.30464637216753854
-0.3108008443325483
-0.30464637216753854
-0.30464637216753854
-0.30464637216753854
-0.3108008443325483
-0.3108008443325483
-0.3108008443325483
-0.3108008443325483
-0.30464637216753854
-0.30464637216753854
-0.3108008443325483
-0.30464637216753854
-0.3108008443325483
-0.31695531649755804
-0.3292642608275498
-0.3354187329925596
-0.3354187329925596
-0.32310978866254003
-0.2984919000025288
-0.24925612268253405
-0.21232928969253104
-0.17540245670252808
-0.18155692886753785
-0.2246382340225228
-0.29233742783754685
-0.3415732051575415
-0.3723455659825625
-0.3846545103125543
-0.36619109381755277
-0.360036621652543
-0.34772767732255133
-0.3354187329925596
-0.3354187329925596
-0.3292642608275498
-0.32310978866254003
-0.31695531649755804
-0.3292642608275498
-0.3292642608275498
-0.32310978866254003
-0.32310978866254003
-0.31695531649755804
-0.31695531649755804
-0.32310978866254003
-0.32310978866254003
-0.32310978866254003
-0.32310978866254003
-0.31695531649755804
-0.32310978866254003
-0.31695531649755804
-0.3354187329925596
-0.3292642608275498
-0.3292642608275498
-0.3292642608275498
-0.3292642608275498
-0.32310978866254003
-0.32310978866254003
-0.31695531649755804
-0.32310978866254003
-0.32310978866254003
-0.32310978866254003
-0.31695531649755804
-0.3108008443325483
-0.31695531649755804
-0.30464637216753854
-0.3108008443325483
-0.30464637216753854
-0.3108008443325483
-0.3108008443325483
-0.30464637216753854
-0.31695531649755804
-0.31695531649755804
-0.31695531649755804
-0.3108008443325483
-0.3108008443325483
-0.32310978866254003
-0.32310978866254003
-0.31695531649755804
-0.3108008443325483
-0.3108008443325483
-0.3108008443325483
-0.30464637216753854
-0.3108008443325483
-0.30464637216753854
-0.30464637216753854
-0.3108008443325483
-0.30464637216753854
-0.30464637216753854
-0.30464637216753854
-0.2984919000025288
-0.30464637216753854
-0.30464637216753854
-0.30464637216753854
-0.2984919000025288
-0.30464637216753854
-0.30464637216753854
-0.30464637216753854
-0.3108008443325483
-0.3108008443325483
-0.3108008443325483
-0.34772767732255133
-0.30464637216753854
-0.30464637216753854
-0.30464637216753854
-0.2984919000025288
-0.30464637216753854
-0.3108008443325483
-0.30464637216753854
-0.32310978866254003
-0.3292642608275498
-0.31695531649755804
-0.3108008443325483
-0.31695531649755804
-0.32310978866254003
-0.34772767732255133
-0.3108008443325483
-0.31695531649755804
-0.31695531649755804
-0.31695531649755804
-0.31695531649755804
-0.3108008443325483
-0.31695531649755804
-0.31695531649755804
-0.31695531649755804
-0.32310978866254003
-0.32310978866254003
-0.3108008443325483
-0.31695531649755804
-0.31695531649755804
-0.32310978866254003
-0.31695531649755804
-0.32310978866254003
-0.31695531649755804
-0.3108008443325483
-0.31695531649755804
-0.31695531649755804
-0.31695531649755804
-0.31695531649755804
-0.3108008443325483
-0.31695531649755804
-0.3108008443325483
-0.3108008443325483
-0.3108008443325483
-0.3108008443325483
-0.3108008443325483
-0.3108008443325483
-0.31695531649755804
-0.31695531649755804
-0.3108008443325483
-0.3108008443325483
-0.3108008443325483
-0.31695531649755804
-0.31695531649755804
-0.31695531649755804
-0.31695531649755804
-0.3108008443325483
-0.3108008443325483
-0.3108008443325483
-0.3108008443325483
-0.31695531649755804
-0.3108008443325483
-0.3108008443325483
-0.31695531649755804
-0.3108008443325483
-0.32310978866254003
-0.32310978866254003
-0.32310978866254003
-0.32310978866254003
-0.32310978866254003
-0.31695531649755804
-0.32310978866254003
-0.3292642608275498
-0.3292642608275498
-0.32310978866254003
-0.3292642608275498
-0.3292642608275498
-0.32310978866254003
-0.32310978866254003
-0.3292642608275498
-0.32310978866254003
-0.3292642608275498
-0.3292642608275498
-0.3292642608275498
-0.32310978866254003
-0.3292642608275498
-0.32310978866254003
-0.3292642608275498
-0.32310978866254003
-0.32310978866254003
-0.32310978866254003
-0.32310978866254003
-0.31695531649755804
-0.32310978866254003
-0.32310978866254003
-0.31695531649755804
-0.32310978866254003
-0.32310978866254003
-0.32310978866254003
-0.3292642608275498
-0.3292642608275498
-0.32310978866254003
-0.3292642608275498
-0.3292642608275498
-0.32310978866254003
-0.3354187329925596
-0.32310978866254003
-0.3292642608275498
-0.3354187329925596
-0.3292642608275498
-0.32310978866254003
-0.32310978866254003
-0.32310978866254003
-0.32310978866254003
-0.3292642608275498
-0.3292642608275498
-0.32310978866254003
-0.32310978866254003
-0.31695531649755804
-0.32310978866254003
-0.32310978866254003
-0.3292642608275498
-0.3292642608275498
-0.32310978866254003
-0.3292642608275498
-0.3292642608275498
-0.3292642608275498
-0.3292642608275498
-0.32310978866254003
-0.32310978866254003
-0.31695531649755804
-0.31695531649755804
-0.32310978866254003
-0.32310978866254003
-0.3292642608275498
-0.32310978866254003
-0.3292642608275498
-0.360036621652543
-0.31695531649755804
-0.3108008443325483
-0.31695531649755804
-0.3108008443325483
-0.31695531649755804
-0.3108008443325483
-0.31695531649755804
-0.3292642608275498
-0.3292642608275498
-0.32310978866254003
-0.31695531649755804
-0.32310978866254003
-0.31695531649755804
-0.31695531649755804
-0.32310978866254003
-0.32310978866254003
-0.31695531649755804
-0.3292642608275498
-0.32310978866254003
-0.3292642608275498
-0.31695531649755804
-0.3108008443325483
-0.30464637216753854
-0.30464637216753854
-0.31695531649755804
-0.3108008443325483
-0.31695531649755804
-0.31695531649755804
-0.31695531649755804
-0.32310978866254003
-0.3108008443325483
-0.31695531649755804
-0.3108008443325483
-0.3108008443325483
-0.31695531649755804
-0.3108008443325483
-0.30464637216753854
-0.3108008443325483
-0.31695531649755804
-0.31695531649755804
-0.3354187329925596
-0.3415732051575415
-0.34772767732255133
-0.32310978866254003
-0.2984919000025288
-0.2554105948475438
-0.2000203453625393
-0.15693904020752658
-0.16309351237253633
-0.2061748175275213
-0.2738740113425453
-0.3354187329925596
-0.3723455659825625
-0.37850003814754446
-0.36619109381755277
-0.35388214948756097
-0.34772767732255133
-0.3415732051575415
-0.3354187329925596
-0.3292642608275498
-0.3354187329925596
-0.3354187329925596
-0.3415732051575415
-0.3354187329925596
-0.3354187329925596
-0.3354187329925596
-0.3354187329925596
-0.3354187329925596
-0.3292642608275498
-0.32310978866254003
-0.32310978866254003
-0.32310978866254003
-0.3292642608275498
-0.3292642608275498
-0.3292642608275498
-0.3292642608275498
-0.3292642608275498
-0.3292642608275498
-0.3354187329925596
-0.3354187329925596
-0.3354187329925596
-0.3354187329925596
-0.3292642608275498
-0.3292642608275498
-0.32310978866254003
-0.3292642608275498
-0.3354187329925596
-0.3292642608275498
-0.3292642608275498
-0.3292642608275498
-0.32310978866254003
-0.3292642608275498
-0.3292642608275498
-0.3292642608275498
-0.3292642608275498
-0.32310978866254003
-0.32310978866254003
-0.3292642608275498
-0.3292642608275498
-0.3292642608275498
-0.32310978866254003
-0.3292642608275498
-0.32310978866254003
-0.32310978866254003
-0.31695531649755804
-0.32310978866254003
-0.3108008443325483
-0.3108008443325483
-0.3108008443325483
-0.31695531649755804
-0.3108008443325483
-0.31695531649755804
-0.3108008443325483
-0.31695531649755804
-0.3108008443325483
-0.30464637216753854
-0.30464637216753854
-0.30464637216753854
-0.3108008443325483
-0.3108008443325483
-0.32310978866254003
-0.34772767732255133
-0.30464637216753854
-0.3108008443325483
-0.3108008443325483
-0.3108008443325483
-0.3108008443325483
-0.3292642608275498
-0.3354187329925596
-0.3292642608275498
-0.3292642608275498
-0.32310978866254003
-0.3292642608275498
-0.32310978866254003
-0.32310978866254003
-0.32310978866254003
-0.32310978866254003
-0.32310978866254003
-0.3292642608275498
-0.32310978866254003
-0.32310978866254003
-0.32310978866254003
-0.32310978866254003
-0.3292642608275498
-0.3292642608275498
-0.3292642608275498
-0.3292642608275498
-0.3292642608275498
-0.3354187329925596
-0.3292642608275498
-0.3292642608275498
-0.32310978866254003
-0.3292642608275498
-0.3292642608275498
-0.32310978866254003
-0.32310978866254003
-0.32310978866254003
-0.32310978866254003
-0.31695531649755804
-0.3292642608275498
-0.31695531649755804
-0.32310978866254003
-0.31695531649755804
-0.31695531649755804
-0.32310978866254003
-0.3292642608275498
-0.32310978866254003
-0.32310978866254003
-0.3292642608275498
-0.3292642608275498
-0.3292642608275498
-0.31695531649755804
-0.31695531649755804
-0.31695531649755804
-0.32310978866254003
-0.31695531649755804
-0.3108008443325483
-0.30464637216753854
-0.30464637216753854
-0.3108008443325483
-0.3108008443325483
-0.3108008443325483
-0.3108008443325483
-0.3354187329925596
-0.35388214948756097
-0.30464637216753854
-0.3108008443325483
-0.3108008443325483
-0.31695531649755804
-0.3108008443325483
-0.32310978866254003
-0.3292642608275498
-0.3415732051575415
-0.3354187329925596
-0.3354187329925596
-0.32310978866254003
-0.3292642608275498
-0.32310978866254003
-0.32310978866254003
-0.32310978866254003
-0.3292642608275498
-0.32310978866254003
-0.3292642608275498
-0.32310978866254003
-0.31695531649755804
-0.32310978866254003
-0.31695531649755804
-0.3292642608275498
-0.32310978866254003
-0.32310978866254003
-0.32310978866254003
-0.32310978866254003
-0.32310978866254003
-0.31695531649755804
-0.32310978866254003
-0.31695531649755804
-0.32310978866254003
-0.3292642608275498
-0.3292642608275498
-0.32310978866254003
-0.32310978866254003
-0.32310978866254003
-0.3292642608275498
-0.3292642608275498
-0.3292642608275498
-0.3292642608275498
-0.32310978866254003
-0.32310978866254003
-0.32310978866254003
-0.32310978866254003
-0.32310978866254003
-0.3292642608275498
-0.3292642608275498
-0.32310978866254003
-0.3292642608275498
-0.32310978866254003
-0.3292642608275498
-0.31695531649755804
-0.32310978866254003
-0.3292642608275498
-0.32310978866254003
-0.32310978866254003
-0.32310978866254003
-0.34772767732255133
-0.30464637216753854
-0.2984919000025288
-0.2984919000025288
-0.30464637216753854
-0.32310978866254003
-0.31695531649755804
-0.31695531649755804
-0.3108008443325483
-0.31695531649755804
-0.3108008443325483
-0.3108008443325483
-0.31695531649755804
-0.3108008443325483
-0.3108008443325483
-0.30464637216753854
-0.30464637216753854
-0.30464637216753854
-0.30464637216753854
-0.2984919000025288
-0.30464637216753854
-0.3108008443325483
-0.3108008443325483
-0.30464637216753854
-0.30464637216753854
-0.30464637216753854
-0.3108008443325483
-0.30464637216753854
-0.30464637216753854
-0.3108008443325483
-0.3108008443325483
-0.3108008443325483
-0.30464637216753854
-0.30464637216753854
-0.3108008443325483
-0.30464637216753854
-0.30464637216753854
-0.3108008443325483
-0.3108008443325483
-0.3108008443325483
-0.30464637216753854
-0.3108008443325483
-0.2984919000025288
-0.29233742783754685
-0.29233742783754685
-0.2984919000025288
-0.30464637216753854
-0.30464637216753854
-0.3108008443325483
-0.3108008443325483
-0.3108008443325483
-0.3108008443325483
-0.3108008443325483
-0.32310978866254003
-0.32310978866254003
-0.32310978866254003
-0.32310978866254003
-0.31695531649755804
-0.32310978866254003
-0.32310978866254003
-0.32310978866254003
-0.3415732051575415
-0.35388214948756097
-0.36619109381755277
-0.34772767732255133
-0.3292642608275498
-0.28618295567253704
-0.2431016505175243
-0.18771140103251985
-0.16309351237253633
-0.18771140103251985
-0.24925612268253405
-0.30464637216753854
-0.360036621652543
-0.37850003814754446
-0.3723455659825625
-0.360036621652543
-0.34772767732255133
-0.34772767732255133
-0.3415732051575415
-0.3354187329925596
-0.3415732051575415
-0.3415732051575415
-0.3415732051575415
-0.3415732051575415
-0.3415732051575415
-0.3292642608275498
-0.3354187329925596
-0.3354187329925596
-0.3354187329925596
-0.3292642608275498
-0.32310978866254003
-0.3292642608275498
-0.3292642608275498
-0.3354187329925596
-0.3292642608275498
-0.32310978866254003
-0.3292642608275498
-0.3292642608275498
-0.32310978866254003
-0.3354187329925596
-0.3354187329925596
-0.3292642608275498
-0.3292642608275498
-0.3292642608275498
-0.32310978866254003
-0.32310978866254003
-0.3292642608275498
-0.3292642608275498
-0.3354187329925596
-0.3292642608275498
-0.3354187329925596
-0.32310978866254003
-0.3292642608275498
-0.3292642608275498
-0.3292642608275498
-0.32310978866254003
-0.3292642608275498
-0.3292642608275498
-0.3292642608275498
-0.32310978866254003
-0.3354187329925596
-0.36619109381755277
-0.32310978866254003
-0.3292642608275498
-0.3415732051575415
-0.3415732051575415
-0.3415732051575415
-0.3292642608275498
-0.3354187329925596
-0.3354187329925596
-0.3292642608275498
-0.3292642608275498
-0.3354187329925596
-0.3354187329925596
-0.32310978866254003
-0.3292642608275498
-0.3292642608275498
-0.32310978866254003
-0.32310978866254003
-0.32310978866254003
-0.3292642608275498
-0.3292642608275498
-0.3292642608275498
-0.3292642608275498
-0.3292642608275498
-0.3292642608275498
-0.3292642608275498
-0.3292642608275498
-0.3354187329925596
-0.3415732051575415
-0.3415732051575415
-0.3415732051575415
-0.3415732051575415
-0.3415732051575415
-0.3415732051575415
-0.3415732051575415
-0.3415732051575415
-0.3354187329925596
-0.3354187329925596
-0.3415732051575415
-0.3354187329925596
-0.3415732051575415
-0.3415732051575415
-0.3354187329925596
-0.3354187329925596
-0.3354187329925596
-0.3354187329925596
-0.3415732051575415
-0.3415732051575415
-0.3354187329925596
-0.3354187329925596
-0.3354187329925596
-0.3354187329925596
-0.3354187329925596
-0.3354187329925596
-0.3354187329925596
-0.3415732051575415
-0.3292642608275498
-0.3415732051575415
-0.3292642608275498
-0.3292642608275498
-0.3354187329925596
-0.3292642608275498
-0.3354187329925596
-0.3415732051575415
-0.3354187329925596
-0.3292642608275498
-0.3292642608275498
-0.3354187329925596
-0.3292642608275498
-0.3292642608275498
-0.3292642608275498
-0.3292642608275498
-0.3354187329925596
-0.32310978866254003
-0.3292642608275498
-0.3354187329925596
-0.3354187329925596
-0.3354187329925596
-0.3354187329925596
-0.3292642608275498
-0.3292642608275498
-0.3292642608275498
-0.3292642608275498
-0.3292642608275498
-0.3354187329925596
-0.3292642608275498
-0.3292642608275498
-0.3292642608275498
-0.3292642608275498
-0.3292642608275498
-0.32310978866254003
-0.3292642608275498
-0.3292642608275498
-0.32310978866254003
-0.3292642608275498
-0.32310978866254003
-0.32310978866254003
-0.32310978866254003
-0.3292642608275498
-0.3354187329925596
-0.3292642608275498
-0.3292642608275498
-0.3292642608275498
-0.3292642608275498
-0.32310978866254003
-0.32310978866254003
-0.3292642608275498
-0.32310978866254003
-0.32310978866254003
-0.3292642608275498
-0.32310978866254003
-0.3292642608275498
-0.32310978866254003
-0.31695531649755804
-0.3292642608275498
-0.3292642608275498
-0.3292642608275498
-0.32310978866254003
-0.3292642608275498
-0.3292642608275498
-0.3292642608275498
-0.3354187329925596
-0.36619109381755277
-0.3415732051575415
-0.3415732051575415
-0.3354187329925596
-0.3292642608275498
-0.3292642608275498
-0.3415732051575415
-0.34772767732255133
-0.3415732051575415
-0.34772767732255133
-0.3415732051575415
-0.32310978866254003
-0.3108008443325483
-0.2984919000025288
-0.2984919000025288
-0.2984919000025288
-0.28618295567253704
-0.31695531649755804
-0.29233742783754685
-0.2738740113425453
-0.2800284835075273
-0.2800284835075273
-0.2738740113425453
-0.2738740113425453
-0.2800284835075273
-0.29233742783754685
-0.30464637216753854
-0.2984919000025288
-0.28618295567253704
-0.28618295567253704
-0.2984919000025288
-0.2984919000025288
-0.2984919000025288
-0.30464637216753854
-0.28618295567253704
-0.2738740113425453
-0.26771953917753555
-0.26156506701252585
-0.26156506701252585
-0.2554105948475438
-0.26156506701252585
-0.26156506701252585
-0.2554105948475438
-0.26156506701252585
-0.26156506701252585
-0.2554105948475438
-0.2554105948475438
-0.26156506701252585
-0.2554105948475438
-0.26771953917753555
-0.2738740113425453
-0.26771953917753555
-0.26771953917753555
-0.26771953917753555
-0.26156506701252585
-0.2800284835075273
-0.2800284835075273
-0.28618295567253704
-0.28618295567253704
-0.28618295567253704
-0.29233742783754685
-0.2984919000025288
-0.29233742783754685
-0.2738740113425453
-0.2800284835075273
-0.2984919000025288
-0.3108008443325483
-0.31695531649755804
-0.3292642608275498
-0.3292642608275498
-0.3354187329925596
-0.3415732051575415
-0.3292642608275498
-0.32310978866254003
-0.3292642608275498
-0.3415732051575415
-0.360036621652543
-0.3723455659825625
-0.3846545103125543
-0.390808982477564
-0.396963454642546
-0.3723455659825625
-0.32310978866254003
-0.2738740113425453
-0.2184837618575408
-0.17540245670252808
-0.17540245670252808
-0.2431016505175243
-0.31695531649755804
-0.390808982477564
-0.433890287632549
-0.4400447597975588
-0.427735815467567
-0.42158134330255725
-0.4400447597975588
-0.4400447597975588
-0.4154268711375475
-0.396963454642546
-0.396963454642546
-0.390808982477564
-0.396963454642546
-0.390808982477564
-0.396963454642546
-0.396963454642546
-0.40927239897256545
-0.427735815467567
-0.42158134330255725
-0.4154268711375475
-0.40311792680755576
-0.4154268711375475
-0.433890287632549
-0.45850817629256013
-0.47697159278756174
-0.4831260649525715
-0.4831260649525715
-0.5015894814475731
-0.5200528979425745
-0.538516314437576
-0.5446707866025856
-0.5508252587675677
-0.5446707866025856
-0.5569797309325776
-0.575443147427579
-0.5446707866025856
-0.5446707866025856
-0.5569797309325776
-0.5446707866025856
-0.5446707866025856
-0.538516314437576
-0.5508252587675677
-0.5446707866025856
-0.5262073701075842
-0.5015894814475731
-0.49543500928256323
-0.49543500928256323
-0.4831260649525715
-0.47697159278756174
-0.4892805371175811
-0.4892805371175811
-0.4831260649525715
-0.4831260649525715
-0.4831260649525715
-0.4831260649525715
-0.49543500928256323
-0.5200528979425745
-0.5200528979425745
-0.5138984257775646
-0.5015894814475731
-0.4892805371175811
-0.4892805371175811
-0.46466264845757
-0.46466264845757
-0.46466264845757
-0.4831260649525715
-0.47697159278756174
-0.45850817629256013
-0.4400447597975588
-0.427735815467567
-0.44619923196256844
-0.47697159278756174
-0.4892805371175811
-0.47697159278756174
-0.45850817629256013
-0.4708171206225797
-0.47697159278756174
-0.49543500928256323
-0.5138984257775646
-0.5200528979425745
-0.5323618422725662
-0.5262073701075842
-0.5138984257775646
-0.5138984257775646
-0.5262073701075842
-0.538516314437576
-0.538516314437576
-0.5262073701075842
-0.5323618422725662
-0.538516314437576
-0.538516314437576
-0.5262073701075842
-0.5200528979425745
-0.5200528979425745
-0.5200528979425745
-0.5138984257775646
-0.5262073701075842
-0.5323618422725662
-0.5138984257775646
-0.49543500928256323
-0.49543500928256323
-0.4892805371175811
-0.4831260649525715
-0.4831260649525715
-0.4892805371175811
-0.4831260649525715
-0.4708171206225797
-0.4708171206225797
-0.46466264845757
-0.4523537041275505
-0.4400447597975588
-0.4400447597975588
-0.44619923196256844
-0.45850817629256013
-0.47697159278756174
-0.4708171206225797
-0.47697159278756174
-0.4831260649525715
-0.5200528979425745
-0.5508252587675677
-0.575443147427579
-0.6369878690775933
-0.6554512855725947
-0.6246789247476013
-0.6123699804175821
-0.6431423412426028
-0.6739147020675963
-0.7046870628925893
-0.7477683680476023
-0.8339309783576276
-0.9508659494926462
-1.1662724752676545
-1.5355408051677124
-2.0463619948628
-2.4279392690928487
-2.711044988682881
-2.9387604587879093
-3.074158846417929
-3.184939345387966
-3.38803692683301
-3.6772971185880525
-3.9419394216830828
-4.101955697973114
-4.163500419623101
-4.132728058798108
-3.9850207268380964
-3.825004450548064
-3.6711426464230414
-3.517280842298021
-3.4434271763180146
-3.400345871163002
-3.25263853920299
-3.006459652602933
-2.772589710332896
-2.606418961877855
-2.520256351567857
-2.4648661020828517
-2.286386409297819
-2.1263701330077875
-1.9848172732127856
-1.8494188855827651
-1.7447928587777384
-1.683248137127724
-1.5970855268177266
-1.5232318608377204
-1.4186058340326935
-1.2832074464026733
-1.1539635309376628
-1.0616464484626553
-1.0431830319676536
-1.0185651433076426
-0.9508659494926462
-0.8585488670176111
-0.7723862567076134
-0.6800691742326058
-0.5939065639225805
-0.5323618422725662
-0.4892805371175811
-0.4523537041275505
-0.4400447597975588
-0.4400447597975588
-0.4523537041275505
-0.47697159278756174
-0.49543500928256323
-0.4892805371175811
-0.49543500928256323
-0.4892805371175811
-0.5015894814475731
-0.538516314437576
-0.5508252587675677
-0.4892805371175811
-0.31695531649755804
-0.2246382340225228
-0.23079270618753256
-0.24925612268253405
-0.30464637216753854
-0.360036621652543
-0.4154268711375475
-0.46466264845757
-0.5077439536125827
-0.5323618422725662
-0.5262073701075842
-0.49543500928256323
-0.45850817629256013
-0.4523537041275505
-0.4400447597975588
-0.4154268711375475
-0.396963454642546
-0.37850003814754446
-0.3415732051575415
-0.23079270618753256
-0.1200122072175236
-0.04000406907250786
0.02769512474251612
0.08308537422752059
0.1200122072175236
0.15693904020752658
0.2061748175275213
0.23079270618753256
0.2554105948475438
0.2984919000025288
0.3415732051575415
0.360036621652543
0.3723455659825625
0.37850003814754446
0.37850003814754446
0.40311792680755576
0.42158134330255725
0.427735815467567
0.433890287632549
0.4400447597975588
0.4400447597975588
0.4523537041275505
0.44619923196256844
0.4400447597975588
0.44619923196256844
0.44619923196256844
0.45850817629256013
0.4708171206225797
0.4708171206225797
0.4708171206225797
0.4708171206225797
0.45850817629256013
0.45850817629256013
0.46466264845757
0.45850817629256013
0.4523537041275505
0.44619923196256844
0.44619923196256844
0.44619923196256844
0.40927239897256545
0.5015894814475731
0.5569797309325776
0.5877520917575707
0.6000610360875902
0.5446707866025856
0.4523537041275505
0.37850003814754446
0.30464637216753854
0.28618295567253704
0.2984919000025288
0.3108008443325483
0.3292642608275498
0.3354187329925596
0.35388214948756097
0.35388214948756097
0.35388214948756097
0.35388214948756097
0.3354187329925596
0.32310978866254003
0.31695531649755804
0.31695531649755804
0.3292642608275498
0.3354187329925596
0.3292642608275498
0.31695531649755804
0.3108008443325483
0.29233742783754685
0.2431016505175243
0.30464637216753854
0.31695531649755804
0.29233742783754685
0.26771953917753555
0.26156506701252585
0.2554105948475438
0.26156506701252585
0.2554105948475438
0.26156506701252585
0.24925612268253405
0.23694717835254234
0.2246382340225228
0.23079270618753256
0.21232928969253104
0.2061748175275213
0.21232928969253104
0.2184837618575408
0.2184837618575408
0.1938658731975296
0.16309351237253633
0.1692479845375183
0.2000203453625393
0.21232928969253104
0.2000203453625393
0.17540245670252808
0.15693904020752658
0.14463009587750708
0.1261666793825056
0.10770326288750408
0.07693090206251085
0.06462195773251911
0.04615854123751762
0.02769512474251612
0.009231708247514623
0.003077236082504875
-0.003077236082504875
-0.003077236082504875
-0.02154065257750637
-0.02769512474251612
-0.02154065257750637
-0.02154065257750637
-0.02154065257750637
-0.02769512474251612
-0.02154065257750637
-0.02154065257750637
-0.033849596907498114
-0.04615854123751762
-0.05231301340249961
-0.058467485567509365
-0.07693090206251085
-0.08923984639250258
-0.08923984639250258
-0.08308537422752059
-0.1015487907225221
-0.11385773505251384
-0.1200122072175236
-0.10770326288750408
-0.11385773505251384
-0.10770326288750408
-0.1015487907225221
-0.08923984639250258
-0.07693090206251085
-0.058467485567509365
-0.05231301340249961
-0.04000406907250786
-0.02769512474251612
-0.01538618041249662
-0.009231708247514623
0.009231708247514623
0.02769512474251612
0.02154065257750637
0.01538618041249662
0.01538618041249662
0.003077236082504875
-0.02154065257750637
-0.02769512474251612
-0.033849596907498114
-0.04000406907250786
-0.058467485567509365
-0.08308537422752059
-0.1015487907225221
-0.10770326288750408
-0.1200122072175236
-0.1384756237125251
-0.15693904020752658
-0.17540245670252808
-0.17540245670252808
-0.17540245670252808
-0.18155692886753785
-0.18771140103251985
-0.2000203453625393
-0.21232928969253104
-0.21232928969253104
-0.2061748175275213
-0.23079270618753256
-0.23079270618753256
-0.2246382340225228
-0.2184837618575408
-0.2184837618575408
-0.23079270618753256
-0.23694717835254234
-0.23694717835254234
-0.23079270618753256
-0.2184837618575408
-0.23079270618753256
-0.2431016505175243
-0.23694717835254234
-0.2554105948475438
-0.2431016505175243
-0.2431016505175243
-0.24925612268253405
-0.2554105948475438
-0.2738740113425453
-0.2738740113425453
-0.2554105948475438
-0.2554105948475438
-0.26771953917753555
-0.24925612268253405
-0.24925612268253405
-0.23079270618753256
-0.2431016505175243
-0.2800284835075273
-0.21232928969253104
-0.23079270618753256
-0.23079270618753256
-0.2246382340225228
-0.2246382340225228
-0.2000203453625393
-0.2061748175275213
-0.1938658731975296
-0.18155692886753785
-0.15078456804251686
-0.1384756237125251
-0.13232115154751534
-0.13232115154751534
-0.13232115154751534
-0.1261666793825056
-0.11385773505251384
-0.10770326288750408
-0.08923984639250258
-0.07693090206251085
-0.08308537422752059
-0.08308537422752059
-0.0707764298975011
-0.07693090206251085
-0.058467485567509365
-0.04615854123751762
-0.058467485567509365
-0.058467485567509365
-0.07693090206251085
-0.0707764298975011
-0.07693090206251085
-0.06462195773251911
-0.06462195773251911
-0.06462195773251911
-0.0707764298975011
-0.07693090206251085
-0.08308537422752059
-0.08308537422752059
-0.08923984639250258
-0.07693090206251085
-0.0707764298975011
-0.0707764298975011
-0.08308537422752059
-0.08308537422752059
-0.08923984639250258
-0.08923984639250258
-0.08923984639250258
-0.08923984639250258
-0.09539431855751236
-0.11385773505251384
-0.11385773505251384
-0.11385773505251384
-0.1261666793825056
-0.1261666793825056
-0.1261666793825056
-0.1261666793825056
-0.1200122072175236
-0.1261666793825056
-0.1384756237125251
-0.14463009587750708
-0.15078456804251686
-0.14463009587750708
-0.16309351237253633
-0.16309351237253633
-0.16309351237253633
-0.16309351237253633
-0.1692479845375183
-0.1692479845375183
-0.18155692886753785
-0.1692479845375183
-0.16309351237253633
-0.16309351237253633
-0.17540245670252808
-0.18155692886753785
-0.18771140103251985
-0.1938658731975296
-0.18155692886753785
-0.18155692886753785
-0.18155692886753785
-0.1938658731975296
-0.2000203453625393
-0.1938658731975296
-0.1938658731975296
-0.2061748175275213
-0.2184837618575408
-0.2246382340225228
-0.2246382340225228
-0.2061748175275213
-0.2061748175275213
-0.21232928969253104
-0.2184837618575408
-0.2184837618575408
-0.2184837618575408
-0.2246382340225228
-0.2184837618575408
-0.23079270618753256
-0.23079270618753256
-0.2431016505175243
-0.23694717835254234
-0.2000203453625393
-0.15078456804251686
-0.1261666793825056
-0.1261666793825056
-0.15078456804251686
-0.21232928969253104
-0.2800284835075273
-0.30464637216753854
-0.3292642608275498
-0.3292642608275498
-0.3292642608275498
-0.32310978866254003
-0.31695531649755804
-0.2984919000025288
-0.29233742783754685
-0.28618295567253704
-0.26771953917753555
-0.26771953917753555
-0.2554105948475438
-0.24925612268253405
-0.2554105948475438
-0.26156506701252585
-0.2800284835075273
-0.3108008443325483
-0.2431016505175243
-0.23694717835254234
-0.23694717835254234
-0.24925612268253405
-0.24925612268253405
-0.24925612268253405
-0.24925612268253405
-0.2554105948475438
-0.26156506701252585
-0.26771953917753555
-0.26156506701252585
-0.26771953917753555
-0.2554105948475438
-0.24925612268253405
-0.24925612268253405
-0.24925612268253405
-0.24925612268253405
-0.24925612268253405
-0.24925612268253405
-0.2554105948475438
-0.26156506701252585
-0.26771953917753555
-0.26156506701252585
-0.2554105948475438
-0.2554105948475438
-0.2431016505175243
-0.2431016505175243
-0.2554105948475438
-0.24925612268253405
-0.24925612268253405
-0.2554105948475438
-0.2554105948475438
-0.23694717835254234
-0.2431016505175243
-0.2431016505175243
-0.24925612268253405
-0.24925612268253405
-0.2431016505175243
-0.2431016505175243
-0.24925612268253405
-0.24925612268253405
-0.2554105948475438
-0.23694717835254234
-0.2431016505175243
-0.2431016505175243
-0.24925612268253405
-0.23694717835254234
-0.26771953917753555
-0.2984919000025288
-0.24925612268253405
-0.26156506701252585
-0.26771953917753555
-0.2554105948475438
-0.2554105948475438
-0.26156506701252585
-0.2800284835075273
-0.29233742783754685
-0.29233742783754685
-0.2984919000025288
-0.2984919000025288
-0.2984919000025288
-0.28618295567253704
-0.29233742783754685
-0.29233742783754685
-0.30464637216753854
-0.29233742783754685
-0.29233742783754685
-0.28618295567253704
-0.28618295567253704
-0.28618295567253704
-0.29233742783754685
-0.3108008443325483
-0.3108008443325483
-0.29233742783754685
-0.2738740113425453
-0.26156506701252585
-0.26156506701252585
-0.26771953917753555
-0.28618295567253704
-0.2738740113425453
-0.2738740113425453
-0.2800284835075273
-0.2800284835075273
-0.28618295567253704
-0.28618295567253704
-0.2800284835075273
-0.2800284835075273
-0.2738740113425453
-0.2800284835075273
-0.28618295567253704
-0.29233742783754685
-0.2800284835075273
-0.2800284835075273
-0.28618295567253704
-0.29233742783754685
-0.2738740113425453
-0.2738740113425453
-0.26771953917753555
-0.26771953917753555
-0.2738740113425453
-0.26771953917753555
-0.2738740113425453
-0.26771953917753555
-0.28618295567253704
-0.28618295567253704
-0.2800284835075273
-0.26771953917753555
-0.2738740113425453
-0.2738740113425453
-0.2800284835075273
-0.26771953917753555
-0.26771953917753555
-0.2738740113425453
-0.2738740113425453
-0.2800284835075273
-0.2738740113425453
-0.2738740113425453
-0.26771953917753555
-0.28618295567253704
-0.28618295567253704
-0.28618295567253704
-0.31695531649755804
-0.26156506701252585
-0.26156506701252585
-0.2738740113425453
-0.2800284835075273
-0.2738740113425453
-0.28618295567253704
-0.30464637216753854
-0.29233742783754685
-0.2800284835075273
-0.2738740113425453
-0.2738740113425453
-0.28618295567253704
-0.28618295567253704
-0.2984919000025288
-0.2984919000025288
-0.30464637216753854
-0.2984919000025288
-0.29233742783754685
-0.28618295567253704
-0.28618295567253704
-0.29233742783754685
-0.2984919000025288
-0.29233742783754685
-0.2984919000025288
-0.30464637216753854
-0.3108008443325483
-0.30464637216753854
-0.2984919000025288
-0.28618295567253704
-0.2800284835075273
-0.2800284835075273
-0.28618295567253704
-0.2800284835075273
-0.2738740113425453
-0.2738740113425453
-0.2738740113425453
-0.2738740113425453
-0.2738740113425453
-0.2738740113425453
-0.26156506701252585
-0.2738740113425453
-0.28618295567253704
-0.28618295567253704
-0.2800284835075273
-0.2984919000025288
-0.30464637216753854
-0.30464637216753854
-0.28618295567253704
-0.29233742783754685
-0.29233742783754685
-0.2984919000025288
-0.28618295567253704
-0.29233742783754685
-0.28618295567253704
-0.2800284835075273
-0.29233742783754685
-0.29233742783754685
-0.2984919000025288
-0.29233742783754685
-0.2800284835075273
-0.28618295567253704
-0.2984919000025288
-0.2984919000025288
-0.30464637216753854
-0.2984919000025288
-0.3108008443325483
-0.30464637216753854
-0.28618295567253704
-0.29233742783754685
-0.2984919000025288
-0.29233742783754685
-0.2738740113425453
-0.2738740113425453
-0.2738740113425453
-0.2800284835075273
-0.28618295567253704
-0.2984919000025288
-0.2984919000025288
-0.29233742783754685
-0.30464637216753854
-0.30464637216753854
-0.30464637216753854
-0.29233742783754685
-0.30464637216753854
-0.3108008443325483
-0.3108008443325483
-0.31695531649755804
-0.31695531649755804
-0.32310978866254003
-0.32310978866254003
-0.3354187329925596
-0.3354187329925596
-0.3292642608275498
-0.30464637216753854
-0.26771953917753555
-0.23079270618753256
-0.2184837618575408
-0.2184837618575408
-0.2554105948475438
-0.3108008443325483
-0.3723455659825625
-0.42158134330255725
-0.4400447597975588
-0.427735815467567
-0.40927239897256545
-0.396963454642546
-0.390808982477564
-0.37850003814754446
-0.36619109381755277
-0.35388214948756097
-0.35388214948756097
-0.35388214948756097
-0.34772767732255133
-0.3415732051575415
-0.3354187329925596
-0.3415732051575415
-0.3415732051575415
-0.3415732051575415
-0.360036621652543
-0.34772767732255133
-0.35388214948756097
-0.396963454642546
-0.3354187329925596
-0.3354187329925596
-0.3292642608275498
-0.3415732051575415
-0.360036621652543
-0.34772767732255133
-0.3354187329925596
-0.3354187329925596
-0.3354187329925596
-0.3354187329925596
-0.3292642608275498
-0.3108008443325483
-0.30464637216753854
-0.30464637216753854
-0.3108008443325483
-0.3108008443325483
-0.3108008443325483
-0.2984919000025288
-0.29233742783754685
-0.29233742783754685
-0.30464637216753854
-0.30464637216753854
-0.3108008443325483
-0.30464637216753854
-0.30464637216753854
-0.3108008443325483
-0.2984919000025288
-0.2984919000025288
-0.30464637216753854
-0.3108008443325483
-0.30464637216753854
-0.30464637216753854
-0.29233742783754685
-0.29233742783754685
-0.2984919000025288
-0.2984919000025288
-0.30464637216753854
-0.2984919000025288
-0.29233742783754685
-0.28618295567253704
-0.2738740113425453
-0.26771953917753555
-0.2738740113425453
-0.2800284835075273
-0.29233742783754685
-0.28618295567253704
-0.28618295567253704
-0.29233742783754685
-0.2984919000025288
-0.3108008443325483
-0.2984919000025288
-0.2984919000025288
-0.30464637216753854
-0.30464637216753854
-0.3108008443325483
-0.32310978866254003
-0.3108008443325483
-0.3108008443325483
-0.32310978866254003
-0.32310978866254003
-0.32310978866254003
-0.32310978866254003
-0.31695531649755804
-0.3108008443325483
-0.31695531649755804
-0.30464637216753854
-0.2984919000025288
-0.29233742783754685
-0.2984919000025288
-0.30464637216753854
-0.2984919000025288
-0.29233742783754685
-0.29233742783754685
-0.28618295567253704
-0.2984919000025288
-0.2984919000025288
-0.31695531649755804
-0.3292642608275498
-0.31695531649755804
-0.30464637216753854
-0.2984919000025288
-0.28618295567253704
-0.2984919000025288
-0.3108008443325483
-0.3108008443325483
-0.30464637216753854
-0.2984919000025288
-0.30464637216753854
-0.28618295567253704
-0.29233742783754685
-0.2984919000025288
-0.2984919000025288
-0.30464637216753854
-0.30464637216753854
-0.3108008443325483
-0.31695531649755804
-0.30464637216753854
-0.2984919000025288
-0.2984919000025288
-0.30464637216753854
-0.30464637216753854
-0.30464637216753854
-0.2984919000025288
-0.2984919000025288
-0.29233742783754685
-0.2800284835075273
-0.26156506701252585
-0.2554105948475438
-0.26771953917753555
-0.26771953917753555
-0.26156506701252585
-0.26771953917753555
-0.2800284835075273
-0.2738740113425453
-0.26771953917753555
-0.26771953917753555
-0.26156506701252585
-0.26156506701252585
-0.26156506701252585
-0.26771953917753555
-0.28618295567253704
-0.3292642608275498
-0.2738740113425453
-0.26771953917753555
-0.3415732051575415
-0.30464637216753854
-0.2738740113425453
-0.26156506701252585
-0.24925612268253405
-0.24925612268253405
-0.2554105948475438
-0.26771953917753555
-0.2800284835075273
-0.2800284835075273
-0.2800284835075273
-0.2738740113425453
-0.2738740113425453
-0.28618295567253704
-0.2800284835075273
-0.2984919000025288
-0.2984919000025288
-0.28618295567253704
-0.26771953917753555
-0.2738740113425453
-0.26771953917753555
-0.2738740113425453
-0.2800284835075273
-0.2738740113425453
-0.2800284835075273
-0.28618295567253704
-0.28618295567253704
-0.2800284835075273
-0.2800284835075273
-0.28618295567253704
-0.2984919000025288
-0.2984919000025288
-0.2984919000025288
-0.28618295567253704
-0.28618295567253704
-0.28618295567253704
-0.28618295567253704
