-0.2000203453625393
-0.2246382340225228
-0.5692886752625692
-0.5262073701075842
-0.3846545103125543
-0.2984919000025288
-0.24925612268253405
-0.2246382340225228
-0.1938658731975296
-0.1261666793825056
-0.13232115154751534
-0.02769512474251612
-0.07693090206251085
-0.1015487907225221
-0.1015487907225221
-0.1200122072175236
-0.1200122072175236
-0.08308537422752059
-0.1015487907225221
-0.1261666793825056
-0.14463009587750708
-0.18155692886753785
-0.21232928969253104
-0.2000203453625393
-0.1938658731975296
-0.15693904020752658
0.033849596907498114
0.033849596907498114
-0.08923984639250258
-0.1015487907225221
-0.11385773505251384
-0.13232115154751534
-0.1200122072175236
-0.07693090206251085
-0.05231301340249961
-0.08308537422752059
-0.08308537422752059
-0.10770326288750408
-0.1261666793825056
-0.1200122072175236
-0.15078456804251686
-0.4523537041275505
-0.6185244525825918
-0.4400447597975588
-0.3415732051575415
-0.28618295567253704
-0.2738740113425453
-0.2184837618575408
-0.18155692886753785
-0.1015487907225221
-0.08308537422752059
-0.1261666793825056
-0.1384756237125251
-0.17540245670252808
-0.2184837618575408
-0.009231708247514623
0.47697159278756174
-0.24925612268253405
-0.5508252587675677
-0.47697159278756174
-0.32310978866254003
-0.26771953917753555
-0.2431016505175243
-0.2000203453625393
-0.1938658731975296
-0.15078456804251686
-0.1692479845375183
-0.1692479845375183
-0.1692479845375183
-0.16309351237253633
-0.1261666793825056
0.058467485567509365
0.04000406907250786
-0.04000406907250786
-0.08308537422752059
-0.09539431855751236
-0.09539431855751236
-0.10770326288750408
-0.10770326288750408
-0.1200122072175236
-0.1261666793825056
-0.09539431855751236
-0.1261666793825056
-0.15693904020752658
-0.15078456804251686
-0.15693904020752658
-0.21232928969253104
-0.2800284835075273
-0.24925612268253405
-0.1938658731975296
-0.18771140103251985
-0.18155692886753785
-0.1692479845375183
-0.15693904020752658
-0.1261666793825056
-0.1200122072175236
-0.1200122072175236
-0.07693090206251085
-0.1015487907225221
-0.1015487907225221
-0.1015487907225221
-0.1015487907225221
-0.1200122072175236
-0.10770326288750408
-0.13232115154751534
-0.1015487907225221
-0.13232115154751534
-0.1692479845375183
-0.17540245670252808
-0.1692479845375183
-0.15693904020752658
-0.16309351237253633
-0.16309351237253633
-0.14463009587750708
-0.18771140103251985
-0.1938658731975296
-0.15078456804251686
-0.2061748175275213
-0.2431016505175243
-0.5569797309325776
-0.04615854123751762
0.02154065257750637
-0.10770326288750408
-0.1200122072175236
-0.1261666793825056
-0.13232115154751534
-0.1261666793825056
-0.09539431855751236
-0.10770326288750408
-0.08308537422752059
-0.07693090206251085
-0.02154065257750637
-0.06462195773251911
-0.09539431855751236
-0.08923984639250258
-0.08923984639250258
-0.1015487907225221
-0.08923984639250258
-0.1015487907225221
-0.13232115154751534
-0.1261666793825056
-0.1384756237125251
-0.15078456804251686
-0.15078456804251686
-0.1384756237125251
-0.1200122072175236
-0.1938658731975296
-0.2184837618575408
-0.21232928969253104
-0.2000203453625393
-0.17540245670252808
-0.2000203453625393
-0.1938658731975296
-0.14463009587750708
-0.1938658731975296
-0.21232928969253104
-0.1938658731975296
-0.2061748175275213
-0.2184837618575408
-0.2061748175275213
-0.2184837618575408
-0.1261666793825056
-0.058467485567509365
-0.13232115154751534
-0.15078456804251686
-0.1261666793825056
-0.13232115154751534
-0.16309351237253633
-0.18771140103251985
-0.15078456804251686
-0.18771140103251985
-0.17540245670252808
-0.18155692886753785
-0.1938658731975296
-0.1938658731975296
-0.23079270618753256
-0.23079270618753256
-0.13232115154751534
0.1938658731975296
-0.2000203453625393
-0.09539431855751236
-0.0707764298975011
-0.06462195773251911
-0.09539431855751236
-0.11385773505251384
-0.1261666793825056
-0.49543500928256323
-0.40311792680755576
-0.23694717835254234
-0.1261666793825056
-0.01538618041249662
0.06462195773251911
0.09539431855751236
0.13232115154751534
0.08308537422752059
0.02769512474251612
-0.06462195773251911
-0.1692479845375183
-0.23694717835254234
-0.2738740113425453
-0.2800284835075273
-0.21232928969253104
-0.23079270618753256
-0.21232928969253104
-0.1692479845375183
-0.13232115154751534
-0.07693090206251085
-0.13232115154751534
-0.11385773505251384
-0.11385773505251384
-0.18771140103251985
-0.21232928969253104
-0.2246382340225228
-0.2000203453625393
-0.17540245670252808
-0.1692479845375183
-0.1692479845375183
-0.1692479845375183
-0.21232928969253104
-0.2061748175275213
-0.18155692886753785
-0.10770326288750408
-0.11385773505251384
-0.1200122072175236
-0.1200122072175236
-0.10770326288750408
-0.14463009587750708
-0.15693904020752658
-0.15693904020752658
-0.1692479845375183
-0.15693904020752658
-0.14463009587750708
-0.13232115154751534
-0.09539431855751236
-0.11385773505251384
-0.14463009587750708
-0.1261666793825056
-0.13232115154751534
-0.1384756237125251
-0.15078456804251686
-0.2431016505175243
-0.5446707866025856
-0.05231301340249961
-0.04615854123751762
-0.1384756237125251
-0.17540245670252808
-0.1692479845375183
-0.15078456804251686
-0.15078456804251686
-0.14463009587750708
-0.14463009587750708
-0.05231301340249961
-0.11385773505251384
-0.1200122072175236
-0.1015487907225221
-0.11385773505251384
-0.11385773505251384
0.5262073701075842
-0.01538618041249662
-0.5631342030975872
-0.2984919000025288
-0.2431016505175243
-0.21232928969253104
-0.14463009587750708
-0.10770326288750408
0.18771140103251985
-0.04000406907250786
-0.2800284835075273
-0.16309351237253633
-0.1384756237125251
-0.18771140103251985
-0.2061748175275213
-0.24925612268253405
0.0707764298975011
-0.18771140103251985
-0.433890287632549
-0.2984919000025288
-0.2431016505175243
-0.2000203453625393
-0.15693904020752658
-0.14463009587750708
0.2554105948475438
0.033849596907498114
-0.2800284835075273
-0.16309351237253633
-0.16309351237253633
-0.1261666793825056
-0.13232115154751534
-0.1384756237125251
0.21232928969253104
-0.05231301340249961
-0.29233742783754685
-0.16309351237253633
-0.1384756237125251
-0.11385773505251384
-0.11385773505251384
-0.11385773505251384
0.15078456804251686
-0.1015487907225221
-0.1200122072175236
0.36619109381755277
-0.1200122072175236
-0.07693090206251085
-0.09539431855751236
-0.09539431855751236
-0.1384756237125251
-0.5015894814475731
-0.390808982477564
-0.2431016505175243
-0.2000203453625393
-0.15693904020752658
0.02154065257750637
0.3108008443325483
0.35388214948756097
0.40927239897256545
-0.23079270618753256
0.2738740113425453
0.1015487907225221
0.05231301340249961
-0.003077236082504875
-0.033849596907498114
-0.08923984639250258
-0.47697159278756174
-0.34772767732255133
-0.23694717835254234
-0.23079270618753256
-0.30464637216753854
-0.5446707866025856
-0.40927239897256545
-0.24925612268253405
-0.26156506701252585
-0.2246382340225228
-0.1938658731975296
-0.17540245670252808
-0.17540245670252808
-0.16309351237253633
-0.14463009587750708
-0.1200122072175236
-0.16309351237253633
-0.17540245670252808
-0.1692479845375183
-0.13232115154751534
-0.13232115154751534
-0.16309351237253633
-0.1384756237125251
-0.07693090206251085
-0.14463009587750708
-0.15693904020752658
-0.13232115154751534
-0.11385773505251384
-0.1261666793825056
-0.13232115154751534
-0.1200122072175236
-0.08923984639250258
-0.15693904020752658
-0.16309351237253633
-0.10770326288750408
-0.08308537422752059
-0.1261666793825056
-0.13232115154751534
-0.1200122072175236
-0.0707764298975011
-0.13232115154751534
-0.15078456804251686
-0.15078456804251686
-0.1200122072175236
-0.11385773505251384
-0.10770326288750408
-0.1015487907225221
-0.0707764298975011
-0.1261666793825056
-0.15693904020752658
-0.29233742783754685
-0.26156506701252585
-0.18155692886753785
-0.14463009587750708
-0.2000203453625393
-0.45850817629256013
0.003077236082504875
0.003077236082504875
-0.07693090206251085
-0.09539431855751236
-0.1261666793825056
-0.11385773505251384
-0.09539431855751236
-0.06462195773251911
-0.009231708247514623
0.058467485567509365
-0.01538618041249662
-0.05231301340249961
-0.07693090206251085
-0.1200122072175236
-0.1384756237125251
-0.0707764298975011
-0.13232115154751534
-0.14463009587750708
-0.13232115154751534
-0.1261666793825056
-0.11385773505251384
-0.07693090206251085
-0.07693090206251085
0.02154065257750637
0.033849596907498114
0.01538618041249662
0.0707764298975011
0.02154065257750637
-0.04000406907250786
-0.1015487907225221
-0.08923984639250258
-0.07693090206251085
-0.11385773505251384
-0.08308537422752059
-0.009231708247514623
0.0707764298975011
0.14463009587750708
0.1692479845375183
0.1692479845375183
0.15078456804251686
-0.04000406907250786
-0.13232115154751534
-0.18771140103251985
-0.033849596907498114
0.3846545103125543
-0.2184837618575408
-0.1200122072175236
-0.2000203453625393
-0.5569797309325776
-0.396963454642546
-0.2738740113425453
-0.21232928969253104
-0.18771140103251985
-0.11385773505251384
-0.04615854123751762
-0.02154065257750637
-0.05231301340249961
-0.10770326288750408
-0.10770326288750408
-0.16309351237253633
-0.1938658731975296
-0.2246382340225228
-0.23694717835254234
-0.1692479845375183
-0.2431016505175243
-0.26156506701252585
-0.23079270618753256
-0.2061748175275213
-0.1938658731975296
-0.26156506701252585
-0.2554105948475438
-0.1692479845375183
-0.2000203453625393
-0.23694717835254234
-0.2246382340225228
-0.1938658731975296
-0.17540245670252808
-0.18771140103251985
-0.1692479845375183
-0.1200122072175236
-0.15078456804251686
-0.16309351237253633
-0.15693904020752658
-0.1015487907225221
0.04000406907250786
-0.04000406907250786
-0.07693090206251085
-0.02769512474251612
-0.09539431855751236
-0.14463009587750708
-0.1261666793825056
-0.14463009587750708
-0.16309351237253633
-0.1261666793825056
-0.1015487907225221
-0.02769512474251612
-0.09539431855751236
-0.15693904020752658
-0.1261666793825056
0.11385773505251384
0.04615854123751762
-0.06462195773251911
-0.1015487907225221
-0.08308537422752059
-0.1938658731975296
-0.18771140103251985
-0.23694717835254234
-0.5200528979425745
0.02154065257750637
0.07693090206251085
-0.003077236082504875
0.02769512474251612
-0.07693090206251085
-0.1200122072175236
-0.35388214948756097
-0.3723455659825625
-0.29233742783754685
-0.28618295567253704
-0.2984919000025288
-0.23079270618753256
-0.2738740113425453
-0.2800284835075273
-0.2431016505175243
-0.1938658731975296
-0.16309351237253633
-0.14463009587750708
-0.15078456804251686
-0.09539431855751236
-0.1200122072175236
0.0707764298975011
0.01538618041249662
-0.04000406907250786
-0.06462195773251911
-0.07693090206251085
-0.09539431855751236
-0.05231301340249961
-0.11385773505251384
-0.11385773505251384
-0.11385773505251384
-0.1200122072175236
-0.13232115154751534
-0.11385773505251384
-0.14463009587750708
-0.09539431855751236
-0.35388214948756097
-0.40927239897256545
-0.3292642608275498
-0.30464637216753854
-0.28618295567253704
-0.28618295567253704
-0.2800284835075273
-0.23694717835254234
-0.32310978866254003
-0.3415732051575415
-0.2984919000025288
-0.28618295567253704
-0.26156506701252585
-0.2554105948475438
-0.2431016505175243
-0.18771140103251985
-0.24925612268253405
-0.23079270618753256
-0.1938658731975296
-0.2061748175275213
-0.1938658731975296
0.02154065257750637
0.35388214948756097
-0.1938658731975296
-0.4708171206225797
-0.32310978866254003
-0.24925612268253405
-0.2061748175275213
-0.18771140103251985
-0.18155692886753785
-0.15693904020752658
-0.13232115154751534
-0.2184837618575408
-0.2431016505175243
-0.2431016505175243
-0.26771953917753555
-0.2738740113425453
-0.26771953917753555
-0.2800284835075273
-0.21232928969253104
-0.2984919000025288
-0.3108008443325483
-0.29233742783754685
-0.2984919000025288
-0.28618295567253704
-0.23694717835254234
-0.23079270618753256
-0.18155692886753785
-0.2554105948475438
-0.21232928969253104
-0.1692479845375183
-0.15078456804251686
-0.1384756237125251
-0.14463009587750708
-0.15693904020752658
-0.09539431855751236
-0.18155692886753785
-0.16309351237253633
-0.17540245670252808
-0.2000203453625393
-0.18155692886753785
-0.2000203453625393
-0.2061748175275213
-0.14463009587750708
-0.2061748175275213
-0.2246382340225228
-0.2184837618575408
-0.23079270618753256
-0.2431016505175243
-0.2431016505175243
-0.23079270618753256
-0.18155692886753785
-0.2431016505175243
-0.23079270618753256
-0.2184837618575408
-0.26156506701252585
-0.2738740113425453
-0.2000203453625393
-0.18155692886753785
-0.1261666793825056
-0.18771140103251985
-0.17540245670252808
-0.1692479845375183
-0.2000203453625393
-0.26156506701252585
-0.5508252587675677
-0.02154065257750637
0.04000406907250786
-0.14463009587750708
-0.15078456804251686
-0.05231301340249961
-0.16309351237253633
-0.2061748175275213
-0.2184837618575408
-0.2246382340225228
-0.18155692886753785
-0.2061748175275213
-0.1938658731975296
-0.21232928969253104
-0.2246382340225228
-0.2246382340225228
-0.23079270618753256
-0.18771140103251985
-0.1015487907225221
-0.11385773505251384
-0.05231301340249961
-0.08308537422752059
-0.1015487907225221
-0.11385773505251384
-0.15078456804251686
-0.16309351237253633
0.1938658731975296
0.4708171206225797
-0.04615854123751762
0.07693090206251085
0.09539431855751236
0.09539431855751236
0.0707764298975011
0.003077236082504875
-0.18155692886753785
-0.5815976195925888
-0.5323618422725662
-0.47697159278756174
-0.45850817629256013
-0.37850003814754446
-0.30464637216753854
-0.2554105948475438
-0.1692479845375183
-0.21232928969253104
-0.2000203453625393
-0.1692479845375183
-0.13232115154751534
-0.1261666793825056
-0.1692479845375183
-0.15693904020752658
-0.10770326288750408
-0.2184837618575408
-0.23079270618753256
-0.2431016505175243
-0.23694717835254234
-0.23694717835254234
-0.2800284835075273
-0.23079270618753256
0.06462195773251911
0.427735815467567
-0.2184837618575408
-0.1384756237125251
-0.1384756237125251
-0.14463009587750708
-0.15078456804251686
-0.1692479845375183
-0.32310978866254003
-0.6369878690775933
-0.45850817629256013
-0.3415732051575415
-0.26156506701252585
-0.2184837618575408
-0.21232928969253104
-0.17540245670252808
-0.09539431855751236
-0.17540245670252808
-0.2061748175275213
-0.17540245670252808
-0.1692479845375183
-0.16309351237253633
-0.10770326288750408
-0.1015487907225221
-0.058467485567509365
-0.1384756237125251
-0.14463009587750708
-0.13232115154751534
-0.1261666793825056
-0.1200122072175236
-0.1015487907225221
-0.0707764298975011
-0.01538618041249662
-0.07693090206251085
-0.06462195773251911
-0.08308537422752059
-0.08308537422752059
-0.06462195773251911
-0.10770326288750408
-0.1384756237125251
-0.08923984639250258
-0.18155692886753785
-0.1938658731975296
-0.2061748175275213
-0.2061748175275213
-0.17540245670252808
-0.1261666793825056
-0.09539431855751236
-0.009231708247514623
-0.0707764298975011
-0.09539431855751236
-0.13232115154751534
-0.15693904020752658
-0.1938658731975296
-0.2554105948475438
-0.2554105948475438
-0.18771140103251985
-0.24925612268253405
-0.23079270618753256
-0.1938658731975296
-0.17540245670252808
-0.14463009587750708
-0.15693904020752658
-0.2061748175275213
-0.47697159278756174
-0.033849596907498114
0.02154065257750637
-0.02154065257750637
-0.10770326288750408
-0.09539431855751236
-0.10770326288750408
-0.11385773505251384
-0.08923984639250258
-0.17540245670252808
-0.18155692886753785
-0.16309351237253633
-0.16309351237253633
-0.18771140103251985
-0.18155692886753785
-0.2000203453625393
-0.13232115154751534
-0.2246382340225228
-0.26156506701252585
-0.32310978866254003
-0.26156506701252585
-0.2000203453625393
-0.15078456804251686
-0.1384756237125251
-0.0707764298975011
-0.14463009587750708
-0.15078456804251686
-0.14463009587750708
-0.1200122072175236
-0.1261666793825056
-0.1200122072175236
-0.11385773505251384
-0.06462195773251911
-0.05231301340249961
0.003077236082504875
-0.07693090206251085
-0.1015487907225221
-0.1200122072175236
-0.1261666793825056
-0.1261666793825056
-0.07693090206251085
-0.1692479845375183
-0.16309351237253633
-0.1384756237125251
-0.1200122072175236
-0.1200122072175236
-0.10770326288750408
-0.1200122072175236
-0.08308537422752059
-0.1692479845375183
-0.1692479845375183
-0.17540245670252808
-0.15693904020752658
-0.14463009587750708
-0.15693904020752658
-0.15078456804251686
-0.09539431855751236
-0.2000203453625393
0.02154065257750637
0.3846545103125543
-0.14463009587750708
-0.08308537422752059
-0.08308537422752059
-0.06462195773251911
-0.2061748175275213
-0.5077439536125827
-0.3292642608275498
-0.23079270618753256
-0.2000203453625393
-0.2061748175275213
-0.2184837618575408
-0.2061748175275213
-0.15078456804251686
-0.2061748175275213
-0.2000203453625393
-0.2061748175275213
-0.2000203453625393
-0.1938658731975296
-0.1384756237125251
-0.18155692886753785
-0.13232115154751534
-0.21232928969253104
-0.18771140103251985
-0.18771140103251985
-0.18155692886753785
-0.16309351237253633
-0.14463009587750708
-0.1384756237125251
-0.1015487907225221
-0.15078456804251686
-0.1384756237125251
-0.1200122072175236
-0.1261666793825056
-0.1261666793825056
-0.11385773505251384
-0.1261666793825056
-0.05231301340249961
-0.15693904020752658
-0.18155692886753785
-0.17540245670252808
-0.18155692886753785
-0.18155692886753785
-0.1938658731975296
-0.23079270618753256
-0.16309351237253633
-0.18771140103251985
-0.1692479845375183
-0.18155692886753785
-0.1200122072175236
-0.1015487907225221
-0.1200122072175236
-0.1261666793825056
-0.1200122072175236
-0.2554105948475438
-0.2554105948475438
-0.2554105948475438
-0.23079270618753256
-0.2246382340225228
-0.23079270618753256
-0.2184837618575408
-0.21232928969253104
-0.34772767732255133
-0.6369878690775933
-0.1200122072175236
-0.16309351237253633
-0.17540245670252808
-0.14463009587750708
-0.1692479845375183
-0.16309351237253633
-0.2184837618575408
-0.1938658731975296
-0.1692479845375183
-0.1200122072175236
-0.04000406907250786
-0.003077236082504875
0.05231301340249961
0.1015487907225221
0.003077236082504875
0.04615854123751762
0.0707764298975011
-0.0707764298975011
-0.2000203453625393
-0.29233742783754685
-0.32310978866254003
-0.26771953917753555
-0.32310978866254003
-0.2800284835075273
-0.23079270618753256
-0.18155692886753785
-0.15693904020752658
-0.16309351237253633
-0.14463009587750708
-0.1261666793825056
-0.23694717835254234
-0.32310978866254003
-0.32310978866254003
-0.3108008443325483
-0.3108008443325483
-0.2984919000025288
-0.2984919000025288
-0.2061748175275213
-0.28618295567253704
-0.28618295567253704
-0.2738740113425453
-0.26156506701252585
-0.2431016505175243
-0.23694717835254234
-0.24925612268253405
-0.1261666793825056
-0.15078456804251686
-0.2061748175275213
-0.2061748175275213
-0.1938658731975296
-0.1938658731975296
-0.2061748175275213
-0.2061748175275213
-0.1384756237125251
-0.18771140103251985
-0.17540245670252808
-0.1692479845375183
0.033849596907498114
0.35388214948756097
-0.17540245670252808
-0.11385773505251384
-0.2984919000025288
-0.6616057577376044
-0.4708171206225797
-0.360036621652543
-0.3108008443325483
-0.2800284835075273
-0.2431016505175243
-0.24925612268253405
-0.16309351237253633
-0.26156506701252585
-0.23079270618753256
-0.18771140103251985
-0.16309351237253633
-0.15078456804251686
-0.13232115154751534
-0.13232115154751534
-0.1015487907225221
-0.21232928969253104
-0.1938658731975296
-0.1938658731975296
-0.2246382340225228
-0.2554105948475438
-0.24925612268253405
-0.23694717835254234
-0.16309351237253633
-0.26156506701252585
-0.23079270618753256
-0.2184837618575408
-0.2000203453625393
-0.15078456804251686
-0.1200122072175236
-0.2000203453625393
-0.2431016505175243
-0.360036621652543
-0.3723455659825625
-0.3723455659825625
-0.34772767732255133
-0.32310978866254003
-0.32310978866254003
-0.26771953917753555
0.1200122072175236
-0.1384756237125251
-0.15078456804251686
0.11385773505251384
-0.02769512474251612
-0.02154065257750637
-0.06462195773251911
-0.08923984639250258
-0.2184837618575408
-0.5200528979425745
-0.3354187329925596
-0.2431016505175243
-0.2000203453625393
-0.15693904020752658
-0.16309351237253633
-0.1692479845375183
-0.11385773505251384
-0.21232928969253104
-0.2061748175275213
-0.14463009587750708
-0.04000406907250786
-0.1015487907225221
-0.1261666793825056
-0.15078456804251686
-0.1261666793825056
-0.2061748175275213
-0.2000203453625393
-0.17540245670252808
-0.17540245670252808
-0.2061748175275213
-0.2246382340225228
-0.23079270618753256
-0.1692479845375183
-0.24925612268253405
-0.24925612268253405
-0.23079270618753256
-0.2061748175275213
-0.18771140103251985
-0.17540245670252808
-0.16309351237253633
-0.08923984639250258
-0.2000203453625393
-0.15693904020752658
-0.15078456804251686
-0.18771140103251985
-0.1938658731975296
-0.2000203453625393
-0.18155692886753785
-0.15693904020752658
-0.28618295567253704
-0.5077439536125827
-0.47697159278756174
-0.37850003814754446
-0.3846545103125543
-0.3846545103125543
-0.360036621652543
-0.2984919000025288
-0.3723455659825625
-0.360036621652543
-0.3415732051575415
-0.31695531649755804
-0.3354187329925596
-0.34772767732255133
-0.5077439536125827
-0.5446707866025856
0.01538618041249662
-0.16309351237253633
-0.2000203453625393
-0.1938658731975296
-0.2000203453625393
-0.23079270618753256
-0.2246382340225228
-0.13232115154751534
-0.23079270618753256
-0.1938658731975296
-0.2000203453625393
-0.2061748175275213
-0.21232928969253104
-0.04000406907250786
0.433890287632549
-0.390808982477564
-0.6185244525825918
-0.4400447597975588
-0.37850003814754446
-0.32310978866254003
-0.2984919000025288
-0.28618295567253704
-0.2738740113425453
-0.18155692886753785
-0.2738740113425453
-0.26156506701252585
-0.23079270618753256
-0.18771140103251985
-0.2000203453625393
-0.16309351237253633
0.08308537422752059
0.04615854123751762
-0.1200122072175236
-0.10770326288750408
-0.1384756237125251
-0.14463009587750708
-0.13232115154751534
-0.1261666793825056
-0.1261666793825056
-0.08308537422752059
-0.15078456804251686
-0.1692479845375183
-0.17540245670252808
-0.15078456804251686
-0.1938658731975296
-0.37850003814754446
-0.3108008443325483
-0.18155692886753785
-0.2431016505175243
-0.2184837618575408
-0.2000203453625393
-0.21232928969253104
-0.18155692886753785
-0.15693904020752658
-0.1384756237125251
-0.08923984639250258
-0.17540245670252808
-0.1692479845375183
-0.18771140103251985
-0.15078456804251686
0.11385773505251384
0.02154065257750637
-0.058467485567509365
-0.003077236082504875
-0.10770326288750408
-0.1261666793825056
-0.1200122072175236
-0.1200122072175236
-0.11385773505251384
-0.0707764298975011
-0.003077236082504875
0.07693090206251085
-0.06462195773251911
-0.11385773505251384
-0.13232115154751534
-0.3723455659825625
-0.40927239897256545
-0.6062155082525723
-0.02154065257750637
0.15693904020752658
0.033849596907498114
0.04615854123751762
0.06462195773251911
0.04615854123751762
-0.003077236082504875
-0.0707764298975011
-0.16309351237253633
-0.21232928969253104
-0.35388214948756097
-0.35388214948756097
-0.31695531649755804
-0.28618295567253704
-0.26156506701252585
-0.23079270618753256
-0.17540245670252808
-0.10770326288750408
-0.18155692886753785
-0.16309351237253633
-0.16309351237253633
-0.16309351237253633
-0.17540245670252808
-0.2061748175275213
-0.17540245670252808
-0.1692479845375183
-0.23694717835254234
-0.15078456804251686
-0.1692479845375183
-0.1938658731975296
-0.2184837618575408
-0.21232928969253104
-0.2061748175275213
-0.15078456804251686
-0.2061748175275213
-0.2061748175275213
-0.16309351237253633
-0.1384756237125251
-0.1384756237125251
-0.13232115154751534
-0.15078456804251686
-0.0707764298975011
-0.18155692886753785
-0.2061748175275213
-0.18771140103251985
-0.17540245670252808
-0.16309351237253633
-0.13232115154751534
-0.1261666793825056
-0.1384756237125251
-0.21232928969253104
-0.1938658731975296
-0.1938658731975296
-0.18771140103251985
-0.2000203453625393
-0.21232928969253104
-0.17540245670252808
0.1015487907225221
0.28618295567253704
-0.2246382340225228
-0.15078456804251686
-0.15693904020752658
-0.15078456804251686
-0.1384756237125251
-0.09539431855751236
-0.23079270618753256
-0.5015894814475731
-0.3108008443325483
-0.23079270618753256
-0.17540245670252808
-0.1692479845375183
-0.1384756237125251
-0.07693090206251085
-0.04615854123751762
-0.1938658731975296
-0.1938658731975296
-0.17540245670252808
-0.17540245670252808
-0.14463009587750708
-0.1200122072175236
-0.1261666793825056
-0.1015487907225221
-0.15693904020752658
-0.18771140103251985
-0.2184837618575408
-0.2431016505175243
-0.26771953917753555
-0.3354187329925596
-0.31695531649755804
-0.21232928969253104
-0.28618295567253704
-0.2554105948475438
-0.18771140103251985
-0.16309351237253633
-0.1384756237125251
-0.13232115154751534
-0.1261666793825056
-0.08308537422752059
-0.1200122072175236
-0.1015487907225221
-0.1200122072175236
-0.11385773505251384
-0.0707764298975011
-0.13232115154751534
-0.11385773505251384
-0.07693090206251085
-0.1692479845375183
-0.16309351237253633
-0.15078456804251686
-0.15693904020752658
-0.15078456804251686
-0.16309351237253633
-0.15078456804251686
-0.1015487907225221
-0.1938658731975296
-0.18155692886753785
-0.14463009587750708
-0.1015487907225221
-0.18155692886753785
-0.15078456804251686
-0.2061748175275213
-0.49543500928256323
-0.009231708247514623
0.04000406907250786
-0.05231301340249961
-0.04615854123751762
-0.06462195773251911
-0.1015487907225221
-0.09539431855751236
-0.05231301340249961
-0.1384756237125251
-0.1015487907225221
-0.05231301340249961
-0.058467485567509365
-0.06462195773251911
-0.09539431855751236
-0.07693090206251085
-0.02769512474251612
-0.1200122072175236
-0.10770326288750408
-0.1015487907225221
-0.08923984639250258
-0.08308537422752059
-0.09539431855751236
-0.09539431855751236
-0.0707764298975011
-0.1200122072175236
0.058467485567509365
0.0707764298975011
-0.009231708247514623
-0.05231301340249961
-0.058467485567509365
-0.0707764298975011
-0.04615854123751762
-0.15693904020752658
-0.1261666793825056
-0.1384756237125251
-0.13232115154751534
-0.14463009587750708
-0.14463009587750708
-0.1384756237125251
-0.1015487907225221
-0.4154268711375475
-0.40311792680755576
-0.24925612268253405
-0.2000203453625393
-0.1692479845375183
-0.17540245670252808
-0.15078456804251686
-0.08923984639250258
-0.2246382340225228
-0.1938658731975296
-0.18155692886753785
-0.16309351237253633
-0.15693904020752658
-0.1692479845375183
-0.13232115154751534
0.4708171206225797
0.1200122072175236
0.2061748175275213
0.2000203453625393
-0.3292642608275498
-0.14463009587750708
-0.1200122072175236
-0.1261666793825056
-0.3354187329925596
-0.5200528979425745
-0.30464637216753854
-0.2061748175275213
-0.2000203453625393
-0.18155692886753785
-0.15078456804251686
-0.13232115154751534
-0.11385773505251384
-0.15693904020752658
-0.1261666793825056
-0.10770326288750408
-0.1200122072175236
-0.13232115154751534
-0.13232115154751534
-0.13232115154751534
-0.08923984639250258
-0.18771140103251985
-0.17540245670252808
-0.18771140103251985
-0.17540245670252808
-0.18155692886753785
-0.18155692886753785
-0.18771140103251985
-0.14463009587750708
-0.23079270618753256
-0.2000203453625393
-0.17540245670252808
-0.15693904020752658
-0.13232115154751534
-0.1384756237125251
-0.14463009587750708
-0.11385773505251384
-0.21232928969253104
-0.1692479845375183
-0.14463009587750708
-0.1384756237125251
-0.1015487907225221
-0.11385773505251384
-0.13232115154751534
-0.08308537422752059
-0.16309351237253633
-0.11385773505251384
-0.06462195773251911
-0.01538618041249662
-0.04000406907250786
-0.05231301340249961
-0.0707764298975011
-0.06462195773251911
-0.17540245670252808
-0.1938658731975296
-0.2184837618575408
-0.1384756237125251
-0.06462195773251911
-0.02154065257750637
0.04615854123751762
0.14463009587750708
-0.01538618041249662
-0.35388214948756097
0.06462195773251911
-0.003077236082504875
-0.16309351237253633
-0.2431016505175243
-0.26771953917753555
-0.21232928969253104
-0.2984919000025288
-0.2184837618575408
-0.1692479845375183
-0.17540245670252808
-0.18155692886753785
-0.13232115154751534
-0.1200122072175236
-0.058467485567509365
-0.1261666793825056
-0.07693090206251085
-0.04615854123751762
-0.05231301340249961
-0.08308537422752059
-0.1015487907225221
-0.1015487907225221
-0.0707764298975011
-0.1938658731975296
-0.08308537422752059
-0.1200122072175236
-0.09539431855751236
-0.033849596907498114
0.009231708247514623
0.04615854123751762
0.11385773505251384
0.02154065257750637
0.02769512474251612
0.009231708247514623
0.02154065257750637
0.003077236082504875
-0.01538618041249662
0.009231708247514623
0.033849596907498114
0.10770326288750408
0.18771140103251985
0.1015487907225221
0.058467485567509365
0.01538618041249662
0.003077236082504875
0.02154065257750637
0.01538618041249662
-0.058467485567509365
-0.06462195773251911
-0.058467485567509365
-0.058467485567509365
-0.09539431855751236
-0.13232115154751534
-0.10770326288750408
-0.18771140103251985
-0.40311792680755576
-0.2800284835075273
-0.18771140103251985
0.04615854123751762
0.3354187329925596
-0.18155692886753785
-0.10770326288750408
-0.3415732051575415
-0.5631342030975872
-0.3846545103125543
-0.31695531649755804
-0.3108008443325483
-0.26771953917753555
-0.2738740113425453
-0.23079270618753256
-0.16309351237253633
-0.2000203453625393
-0.16309351237253633
-0.1384756237125251
-0.15078456804251686
-0.15078456804251686
-0.14463009587750708
-0.18155692886753785
-0.16309351237253633
-0.26156506701252585
-0.26771953917753555
-0.2431016505175243
-0.24925612268253405
-0.26771953917753555
-0.21232928969253104
-0.21232928969253104
-0.16309351237253633
-0.2431016505175243
-0.1938658731975296
-0.1938658731975296
-0.1692479845375183
-0.15693904020752658
-0.15078456804251686
-0.14463009587750708
-0.15693904020752658
-0.15078456804251686
-0.15693904020752658
-0.15078456804251686
-0.1261666793825056
-0.11385773505251384
-0.17540245670252808
-0.16309351237253633
-0.1384756237125251
-0.17540245670252808
-0.15693904020752658
-0.2000203453625393
-0.1938658731975296
-0.1938658731975296
-0.2061748175275213
-0.18771140103251985
-0.13232115154751534
-0.2061748175275213
-0.1938658731975296
-0.2000203453625393
-0.15693904020752658
-0.15078456804251686
-0.1384756237125251
-0.1200122072175236
-0.07693090206251085
-0.15693904020752658
-0.1261666793825056
-0.1692479845375183
-0.4708171206225797
0.06462195773251911
0.1015487907225221
0.033849596907498114
0.058467485567509365
-0.04000406907250786
-0.02154065257750637
-0.04615854123751762
-0.04615854123751762
-0.058467485567509365
-0.058467485567509365
-0.02769512474251612
0.01538618041249662
-0.08923984639250258
-0.0707764298975011
-0.04615854123751762
-0.05231301340249961
-0.0707764298975011
-0.0707764298975011
-0.06462195773251911
-0.02769512474251612
-0.1261666793825056
-0.058467485567509365
-0.11385773505251384
-0.10770326288750408
-0.1015487907225221
-0.10770326288750408
-0.08923984639250258
-0.058467485567509365
-0.14463009587750708
-0.15078456804251686
-0.1692479845375183
-0.13232115154751534
-0.14463009587750708
-0.17540245670252808
-0.15693904020752658
-0.1384756237125251
-0.14463009587750708
-0.1384756237125251
-0.1938658731975296
-0.2061748175275213
-0.1938658731975296
-0.18771140103251985
-0.16309351237253633
-0.13232115154751534
-0.23694717835254234
-0.2184837618575408
-0.2061748175275213
-0.2000203453625393
-0.18771140103251985
-0.18771140103251985
-0.1692479845375183
-0.1384756237125251
-0.32310978866254003
-0.2800284835075273
-0.23694717835254234
-0.2184837618575408
-0.2000203453625393
0.033849596907498114
0.3846545103125543
-0.35388214948756097
-0.4831260649525715
-0.29233742783754685
-0.2246382340225228
-0.2061748175275213
-0.1938658731975296
-0.17540245670252808
-0.09539431855751236
-0.058467485567509365
-0.17540245670252808
-0.17540245670252808
-0.18771140103251985
-0.2184837618575408
-0.2246382340225228
-0.18771140103251985
-0.18771140103251985
-0.14463009587750708
-0.2000203453625393
-0.1692479845375183
-0.15693904020752658
-0.15693904020752658
-0.18771140103251985
-0.15078456804251686
-0.033849596907498114
-0.11385773505251384
-0.2184837618575408
-0.2184837618575408
-0.18155692886753785
-0.18771140103251985
-0.2000203453625393
-0.2246382340225228
-0.18771140103251985
-0.1261666793825056
-0.14463009587750708
-0.09539431855751236
-0.08923984639250258
-0.06462195773251911
-0.13232115154751534
-0.28618295567253704
-0.2184837618575408
-0.15078456804251686
-0.1938658731975296
-0.14463009587750708
-0.0707764298975011
0.02154065257750637
0.05231301340249961
0.0707764298975011
0.08923984639250258
0.08923984639250258
-0.08308537422752059
-0.17540245670252808
-0.2246382340225228
-0.17540245670252808
-0.033849596907498114
-0.09539431855751236
-0.10770326288750408
-0.06462195773251911
-0.17540245670252808
-0.17540245670252808
-0.15078456804251686
-0.1261666793825056
-0.2061748175275213
-0.538516314437576
-0.02769512474251612
0.033849596907498114
-0.1692479845375183
-0.1938658731975296
-0.18155692886753785
-0.1261666793825056
-0.1692479845375183
-0.2061748175275213
-0.17540245670252808
0.34772767732255133
-0.1261666793825056
-0.1384756237125251
-0.09539431855751236
-0.1015487907225221
-0.1200122072175236
-0.1015487907225221
-0.10770326288750408
-0.390808982477564
-0.5692886752625692
-0.433890287632549
-0.5262073701075842
-0.42158134330255725
-0.360036621652543
-0.3354187329925596
-0.28618295567253704
-0.2246382340225228
-0.28618295567253704
-0.28618295567253704
-0.2738740113425453
-0.2431016505175243
-0.23694717835254234
-0.2000203453625393
-0.1938658731975296
-0.1938658731975296
-0.2431016505175243
-0.26156506701252585
-0.2554105948475438
-0.2431016505175243
-0.23694717835254234
-0.21232928969253104
-0.17540245670252808
-0.15078456804251686
-0.21232928969253104
-0.14463009587750708
-0.10770326288750408
-0.11385773505251384
-0.16309351237253633
-0.17540245670252808
-0.1384756237125251
-0.10770326288750408
-0.29233742783754685
-0.2738740113425453
-0.26771953917753555
-0.2738740113425453
-0.23694717835254234
-0.21232928969253104
-0.1938658731975296
0.06462195773251911
0.4892805371175811
-0.14463009587750708
-0.08308537422752059
-0.1015487907225221
-0.18155692886753785
-0.2431016505175243
-0.13232115154751534
-0.06462195773251911
-0.36619109381755277
-0.28618295567253704
-0.23694717835254234
-0.2061748175275213
-0.18155692886753785
-0.18155692886753785
-0.15078456804251686
-0.1200122072175236
-0.2000203453625393
-0.1938658731975296
-0.1692479845375183
-0.14463009587750708
-0.14463009587750708
-0.17540245670252808
-0.4154268711375475
-0.30464637216753854
-0.2738740113425453
-0.2184837618575408
-0.17540245670252808
-0.17540245670252808
-0.18771140103251985
-0.1938658731975296
-0.17540245670252808
-0.15693904020752658
-0.24925612268253405
-0.2184837618575408
-0.23079270618753256
-0.23694717835254234
-0.2246382340225228
-0.26156506701252585
-0.2184837618575408
-0.17540245670252808
-0.2431016505175243
-0.2184837618575408
-0.2184837618575408
-0.23079270618753256
-0.2246382340225228
-0.2184837618575408
-0.18771140103251985
-0.1938658731975296
-0.2246382340225228
-0.1938658731975296
-0.21232928969253104
-0.1384756237125251
0.21232928969253104
0.11385773505251384
0.01538618041249662
-0.01538618041249662
-0.1384756237125251
-0.14463009587750708
-0.15078456804251686
-0.1692479845375183
-0.17540245670252808
-0.18155692886753785
-0.2431016505175243
-0.5323618422725662
-0.10770326288750408
-0.08308537422752059
-0.2246382340225228
-0.5446707866025856
-0.4831260649525715
-0.360036621652543
-0.2984919000025288
-0.2431016505175243
-0.30464637216753854
-0.24925612268253405
-0.23079270618753256
-0.2061748175275213
-0.2246382340225228
-0.2000203453625393
-0.18155692886753785
-0.15078456804251686
-0.2061748175275213
-0.15078456804251686
-0.1200122072175236
-0.1692479845375183
-0.15078456804251686
-0.15078456804251686
-0.11385773505251384
-0.09539431855751236
-0.1692479845375183
-0.1692479845375183
-0.2000203453625393
-0.18155692886753785
-0.18155692886753785
-0.18155692886753785
-0.16309351237253633
-0.1692479845375183
-0.2184837618575408
-0.18155692886753785
-0.18155692886753785
-0.18771140103251985
-0.1938658731975296
-0.18155692886753785
-0.17540245670252808
-0.13232115154751534
-0.21232928969253104
-0.17540245670252808
-0.18771140103251985
-0.2061748175275213
-0.18155692886753785
-0.1938658731975296
-0.17540245670252808
-0.16309351237253633
-0.23079270618753256
-0.2061748175275213
-0.18155692886753785
-0.18155692886753785
-0.17540245670252808
-0.18771140103251985
-0.16309351237253633
-0.1261666793825056
-0.2061748175275213
0.02769512474251612
0.390808982477564
-0.1200122072175236
-0.04615854123751762
-0.06462195773251911
-0.08308537422752059
-0.3415732051575415
-0.4708171206225797
-0.3354187329925596
-0.26156506701252585
-0.21232928969253104
-0.2061748175275213
-0.1938658731975296
-0.18155692886753785
-0.16309351237253633
-0.23694717835254234
-0.2246382340225228
-0.1692479845375183
-0.13232115154751534
-0.1384756237125251
-0.14463009587750708
-0.2184837618575408
-0.26156506701252585
-0.28618295567253704
-0.2738740113425453
-0.2800284835075273
-0.2431016505175243
-0.16309351237253633
-0.1200122072175236
-0.009231708247514623
0.04000406907250786
-0.02769512474251612
0.003077236082504875
-0.04000406907250786
-0.1261666793825056
-0.2246382340225228
-0.30464637216753854
-0.30464637216753854
-0.30464637216753854
-0.3723455659825625
-0.3415732051575415
-0.30464637216753854
-0.2984919000025288
-0.2800284835075273
-0.2984919000025288
-0.2800284835075273
-0.2738740113425453
-0.3292642608275498
-0.3108008443325483
-0.32310978866254003
-0.28618295567253704
-0.21232928969253104
-0.2431016505175243
-0.23694717835254234
-0.21232928969253104
-0.30464637216753854
-0.28618295567253704
-0.30464637216753854
-0.3108008443325483
-0.2984919000025288
-0.30464637216753854
-0.2800284835075273
-0.2738740113425453
-0.40927239897256545
-0.7108415350575992
-0.1938658731975296
-0.1384756237125251
-0.23694717835254234
-0.2000203453625393
-0.13232115154751534
-0.058467485567509365
-0.058467485567509365
0.033849596907498114
0.08923984639250258
0.1200122072175236
0.14463009587750708
0.15078456804251686
0.17540245670252808
0.18771140103251985
0.1200122072175236
0.14463009587750708
0.13232115154751534
-0.01538618041249662
0.02769512474251612
0.033849596907498114
0.033849596907498114
0.04000406907250786
-0.05231301340249961
-0.01538618041249662
0.003077236082504875
0.02154065257750637
0.02769512474251612
0.033849596907498114
0.033849596907498114
0.003077236082504875
-0.07693090206251085
0.02154065257750637
-0.02769512474251612
-0.1200122072175236
-0.2061748175275213
-0.26771953917753555
-0.30464637216753854
-0.34772767732255133
-0.4523537041275505
-0.427735815467567
-0.433890287632549
-0.433890287632549
-0.42158134330255725
-0.40927239897256545
-0.396963454642546
-0.36619109381755277
-0.3723455659825625
-0.37850003814754446
-0.3292642608275498
-0.29233742783754685
-0.2554105948475438
-0.1938658731975296
-0.1384756237125251
-0.10770326288750408
-0.18771140103251985
-0.2061748175275213
-0.2246382340225228
-0.02769512474251612
0.3108008443325483
-0.21232928969253104
-0.21232928969253104
-0.5323618422725662
-0.6800691742326058
-0.47697159278756174
-0.3846545103125543
-0.3292642608275498
-0.2800284835075273
-0.23694717835254234
-0.16309351237253633
-0.13232115154751534
-0.11385773505251384
-0.07693090206251085
-0.058467485567509365
-0.02769512474251612
-0.009231708247514623
0.01538618041249662
0.06462195773251911
0.09539431855751236
0.02769512474251612
0.0707764298975011
0.08308537422752059
0.09539431855751236
0.09539431855751236
0.0707764298975011
0.14463009587750708
0.5815976195925888
-0.28618295567253704
0.21232928969253104
0.11385773505251384
-0.003077236082504875
-0.058467485567509365
0.2061748175275213
0.2246382340225228
-0.30464637216753854
-0.42158134330255725
-0.2738740113425453
-0.24925612268253405
-0.2246382340225228
-0.23079270618753256
-0.2554105948475438
-0.2738740113425453
-0.30464637216753854
-0.3846545103125543
-0.3846545103125543
-0.433890287632549
-0.44619923196256844
-0.6862236463975879
-0.7723862567076134
-0.6185244525825918
-0.5631342030975872
-0.5815976195925888
-0.5569797309325776
-0.5262073701075842
-0.5138984257775646
-0.4831260649525715
-0.44619923196256844
-0.40927239897256545
-0.36619109381755277
-0.390808982477564
-0.3846545103125543
-0.36619109381755277
-0.26156506701252585
-0.30464637216753854
-0.3108008443325483
-0.23079270618753256
-0.16309351237253633
-0.1938658731975296
-0.14463009587750708
-0.0707764298975011
-0.01538618041249662
0.033849596907498114
0.07693090206251085
0.16309351237253633
0.2000203453625393
0.16309351237253633
0.2000203453625393
0.2554105948475438
0.21232928969253104
0.1938658731975296
0.18771140103251985
0.18771140103251985
0.15078456804251686
0.033849596907498114
0.02769512474251612
-0.009231708247514623
-0.003077236082504875
-0.02154065257750637
-0.1015487907225221
-0.433890287632549
-0.1938658731975296
0.04000406907250786
0.10770326288750408
0.1384756237125251
-0.05231301340249961
-0.1200122072175236
-0.16309351237253633
-0.18155692886753785
-0.2000203453625393
-0.2984919000025288
-0.2984919000025288
-0.32310978866254003
-0.32310978866254003
-0.3108008443325483
-0.29233742783754685
-0.29233742783754685
-0.35388214948756097
-0.5569797309325776
-0.6677602299025863
-0.538516314437576
-0.44619923196256844
-0.40311792680755576
-0.396963454642546
-0.3292642608275498
-0.3292642608275498
-0.360036621652543
-0.35388214948756097
-0.3415732051575415
-0.2984919000025288
-0.23694717835254234
-0.003077236082504875
0.3415732051575415
-0.45850817629256013
-0.47697159278756174
-0.3415732051575415
-0.2984919000025288
-0.26156506701252585
-0.2184837618575408
-0.17540245670252808
-0.07693090206251085
0.003077236082504875
-0.05231301340249961
-0.02154065257750637
-0.04000406907250786
-0.0707764298975011
-0.1261666793825056
-0.2061748175275213
-0.2738740113425453
-0.34772767732255133
-0.34772767732255133
-0.29233742783754685
-0.2184837618575408
-0.18155692886753785
-0.15078456804251686
-0.11385773505251384
-0.07693090206251085
-0.07693090206251085
-0.10770326288750408
-0.08923984639250258
-0.10770326288750408
-0.1200122072175236
-0.15078456804251686
-0.15078456804251686
-0.10770326288750408
-0.1261666793825056
-0.23079270618753256
-0.2000203453625393
-0.2246382340225228
-0.2431016505175243
-0.23694717835254234
-0.2738740113425453
-0.23694717835254234
-0.23694717835254234
-0.2738740113425453
-0.24925612268253405
-0.24925612268253405
-0.2800284835075273
-0.2738740113425453
-0.28618295567253704
-0.2984919000025288
-0.26771953917753555
-0.29233742783754685
-0.26156506701252585
-0.24925612268253405
-0.23694717835254234
-0.2246382340225228
-0.23694717835254234
-0.2184837618575408
-0.2184837618575408
-0.24925612268253405
-0.2246382340225228
-0.2184837618575408
-0.16309351237253633
-0.2184837618575408
-0.538516314437576
0.033849596907498114
0.058467485567509365
-0.07693090206251085
-0.08923984639250258
-0.0707764298975011
-0.08308537422752059
-0.06462195773251911
-0.01538618041249662
0.05231301340249961
0.058467485567509365
-0.02154065257750637
-0.02769512474251612
0.003077236082504875
-0.05231301340249961
-0.09539431855751236
-0.10770326288750408
-0.10770326288750408
-0.13232115154751534
-0.1938658731975296
-0.18155692886753785
-0.17540245670252808
-0.1692479845375183
-0.1200122072175236
-0.1015487907225221
-0.07693090206251085
-0.11385773505251384
-0.2246382340225228
-0.21232928969253104
-0.21232928969253104
-0.23694717835254234
-0.24925612268253405
-0.2431016505175243
-0.21232928969253104
-0.18771140103251985
-0.2246382340225228
-0.2000203453625393
-0.18771140103251985
-0.17540245670252808
-0.15693904020752658
-0.15078456804251686
-0.13232115154751534
-0.15078456804251686
-0.033849596907498114
0.15693904020752658
0.02769512474251612
-0.033849596907498114
-0.08308537422752059
-0.08923984639250258
-0.058467485567509365
-0.07693090206251085
-0.13232115154751534
-0.1200122072175236
-0.11385773505251384
-0.14463009587750708
-0.14463009587750708
-0.15693904020752658
-0.15693904020752658
-0.02154065257750637
0.1015487907225221
-0.2800284835075273
-0.15693904020752658
-0.14463009587750708
-0.1692479845375183
-0.1384756237125251
-0.16309351237253633
-0.5015894814475731
-0.4831260649525715
-0.28618295567253704
-0.21232928969253104
-0.2184837618575408
-0.18155692886753785
-0.15693904020752658
-0.1015487907225221
-0.13232115154751534
-0.1938658731975296
-0.17540245670252808
-0.16309351237253633
-0.15078456804251686
-0.1692479845375183
-0.14463009587750708
-0.1015487907225221
-0.1261666793825056
-0.1938658731975296
-0.16309351237253633
-0.15693904020752658
-0.15693904020752658
-0.1692479845375183
-0.11385773505251384
-0.0707764298975011
-0.15078456804251686
-0.2000203453625393
-0.1938658731975296
-0.1938658731975296
-0.18155692886753785
-0.18155692886753785
-0.1692479845375183
-0.1384756237125251
-0.11385773505251384
-0.15693904020752658
-0.13232115154751534
-0.13232115154751534
-0.13232115154751534
-0.1261666793825056
-0.16309351237253633
-0.11385773505251384
-0.09539431855751236
-0.13232115154751534
-0.09539431855751236
-0.09539431855751236
-0.09539431855751236
-0.1015487907225221
-0.09539431855751236
-0.06462195773251911
-0.08923984639250258
-0.08923984639250258
-0.0707764298975011
-0.08308537422752059
-0.058467485567509365
-0.07693090206251085
-0.10770326288750408
-0.14463009587750708
-0.47697159278756174
-0.009231708247514623
0.04000406907250786
-0.033849596907498114
-0.058467485567509365
-0.06462195773251911
-0.07693090206251085
-0.04615854123751762
-0.04000406907250786
-0.10770326288750408
-0.11385773505251384
-0.1200122072175236
-0.1200122072175236
-0.14463009587750708
-0.14463009587750708
-0.1015487907225221
-0.14463009587750708
-0.18771140103251985
-0.1938658731975296
-0.1692479845375183
-0.17540245670252808
-0.18155692886753785
-0.13232115154751534
-0.09539431855751236
-0.11385773505251384
-0.1692479845375183
-0.1200122072175236
-0.01538618041249662
-0.08308537422752059
-0.1200122072175236
-0.13232115154751534
-0.08308537422752059
-0.09539431855751236
-0.1384756237125251
-0.1015487907225221
-0.11385773505251384
-0.11385773505251384
-0.0707764298975011
-0.04000406907250786
0.1200122072175236
0.5446707866025856
0.033849596907498114
0.06462195773251911
-0.01538618041249662
-0.04000406907250786
-0.02769512474251612
-0.05231301340249961
-0.08308537422752059
-0.36619109381755277
-0.28618295567253704
-0.07693090206251085
0.02154065257750637
0.0707764298975011
0.058467485567509365
-0.01538618041249662
-0.07693090206251085
-0.1938658731975296
-0.36619109381755277
-0.14463009587750708
0.30464637216753854
-0.3354187329925596
-0.21232928969253104
-0.1692479845375183
-0.15693904020752658
-0.47697159278756174
-0.44619923196256844
-0.2800284835075273
-0.2000203453625393
-0.1692479845375183
-0.1384756237125251
-0.1384756237125251
-0.02769512474251612
0.15078456804251686
0.009231708247514623
-0.06462195773251911
-0.11385773505251384
-0.1384756237125251
-0.17540245670252808
-0.18771140103251985
-0.15078456804251686
-0.15078456804251686
-0.15693904020752658
-0.1261666793825056
-0.1261666793825056
-0.1200122072175236
-0.1384756237125251
-0.1692479845375183
-0.37850003814754446
-0.3415732051575415
-0.2738740113425453
-0.2184837618575408
-0.1938658731975296
-0.18155692886753785
-0.17540245670252808
-0.15693904020752658
-0.1200122072175236
-0.1261666793825056
-0.15078456804251686
-0.1384756237125251
-0.17540245670252808
-0.18155692886753785
-0.15078456804251686
-0.15078456804251686
-0.15078456804251686
-0.16309351237253633
-0.18771140103251985
-0.1692479845375183
-0.15693904020752658
-0.15693904020752658
-0.1384756237125251
-0.11385773505251384
-0.05231301340249961
-0.04000406907250786
-0.0707764298975011
-0.0707764298975011
-0.09539431855751236
-0.1200122072175236
-0.1384756237125251
-0.15693904020752658
-0.15693904020752658
-0.1938658731975296
-0.29233742783754685
-0.5631342030975872
0.003077236082504875
0.02769512474251612
-0.04000406907250786
-0.04615854123751762
-0.05231301340249961
-0.09539431855751236
-0.11385773505251384
-0.15693904020752658
-0.1938658731975296
-0.2246382340225228
-0.26771953917753555
-0.26771953917753555
-0.2431016505175243
-0.2431016505175243
-0.23079270618753256
-0.2061748175275213
-0.17540245670252808
-0.14463009587750708
-0.1200122072175236
-0.08308537422752059
-0.05231301340249961
-0.1200122072175236
-0.14463009587750708
-0.1261666793825056
-0.08308537422752059
-0.11385773505251384
-0.1200122072175236
-0.11385773505251384
-0.08923984639250258
-0.10770326288750408
-0.1200122072175236
-0.14463009587750708
-0.14463009587750708
-0.14463009587750708
-0.1384756237125251
-0.1261666793825056
-0.13232115154751534
-0.15693904020752658
-0.15078456804251686
-0.08308537422752059
-0.13232115154751534
-0.13232115154751534
-0.13232115154751534
-0.14463009587750708
-0.1015487907225221
-0.1261666793825056
-0.15693904020752658
-0.15693904020752658
-0.15078456804251686
-0.1200122072175236
-0.10770326288750408
-0.09539431855751236
-0.11385773505251384
-0.1261666793825056
-0.2061748175275213
-0.2246382340225228
-0.2000203453625393
0.033849596907498114
0.5200528979425745
-0.1384756237125251
-0.14463009587750708
-0.49543500928256323
-0.4154268711375475
-0.2738740113425453
-0.21232928969253104
-0.1938658731975296
-0.18155692886753785
-0.18155692886753785
-0.11385773505251384
-0.1200122072175236
-0.17540245670252808
-0.1384756237125251
-0.1384756237125251
-0.1692479845375183
-0.16309351237253633
-0.14463009587750708
-0.1261666793825056
-0.1261666793825056
-0.1261666793825056
-0.15693904020752658
-0.15078456804251686
-0.1384756237125251
-0.18155692886753785
-0.15693904020752658
-0.0707764298975011
-0.1384756237125251
-0.16309351237253633
-0.15078456804251686
-0.1384756237125251
-0.15078456804251686
-0.15693904020752658
-0.15693904020752658
-0.1015487907225221
-0.1261666793825056
-0.17540245670252808
-0.16309351237253633
-0.15693904020752658
-0.16309351237253633
-0.18155692886753785
-0.2246382340225228
-0.18771140103251985
-0.1692479845375183
-0.17540245670252808
-0.14463009587750708
-0.17540245670252808
-0.15078456804251686
-0.15078456804251686
-0.15693904020752658
-0.1200122072175236
-0.14463009587750708
-0.1938658731975296
-0.2000203453625393
-0.2000203453625393
-0.16309351237253633
-0.15693904020752658
-0.2554105948475438
-0.2000203453625393
-0.18155692886753785
-0.2061748175275213
-0.1938658731975296
-0.2554105948475438
-0.5631342030975872
-0.06462195773251911
-0.04615854123751762
-0.1384756237125251
-0.17540245670252808
-0.23079270618753256
-0.2061748175275213
-0.18771140103251985
-0.08923984639250258
-0.11385773505251384
-0.14463009587750708
-0.14463009587750708
-0.1938658731975296
-0.2061748175275213
-0.14463009587750708
-0.08923984639250258
-0.0707764298975011
-0.06462195773251911
-0.0707764298975011
-0.058467485567509365
-0.10770326288750408
-0.1692479845375183
-0.15078456804251686
-0.11385773505251384
-0.15693904020752658
-0.0707764298975011
0.02769512474251612
0.08308537422752059
0.07693090206251085
0.06462195773251911
0.01538618041249662
-0.1015487907225221
-0.18155692886753785
-0.2554105948475438
-0.2738740113425453
-0.23694717835254234
-0.26771953917753555
-0.26771953917753555
-0.23079270618753256
-0.2554105948475438
-0.2431016505175243
-0.23079270618753256
-0.1692479845375183
-0.1015487907225221
-0.08923984639250258
-0.08923984639250258
-0.08308537422752059
-0.06462195773251911
-0.08923984639250258
-0.15078456804251686
-0.18155692886753785
-0.1938658731975296
-0.23079270618753256
-0.24925612268253405
-0.35388214948756097
-0.2738740113425453
-0.23079270618753256
-0.18155692886753785
0.0707764298975011
0.5077439536125827
-0.4892805371175811
-0.32310978866254003
-0.1938658731975296
-0.16309351237253633
-0.14463009587750708
-0.13232115154751534
-0.13232115154751534
-0.0707764298975011
-0.003077236082504875
-0.05231301340249961
-0.08923984639250258
-0.11385773505251384
-0.09539431855751236
-0.11385773505251384
-0.1200122072175236
-0.06462195773251911
-0.08923984639250258
-0.1200122072175236
-0.11385773505251384
-0.13232115154751534
-0.14463009587750708
-0.17540245670252808
-0.17540245670252808
-0.16309351237253633
-0.2061748175275213
-0.21232928969253104
-0.21232928969253104
-0.18771140103251985
-0.15693904020752658
-0.17540245670252808
-0.18771140103251985
-0.2061748175275213
-0.2246382340225228
-0.2184837618575408
-0.2738740113425453
-0.3292642608275498
-0.3723455659825625
-0.396963454642546
-0.390808982477564
-0.35388214948756097
-0.3354187329925596
-0.30464637216753854
-0.2738740113425453
-0.2738740113425453
-0.26771953917753555
-0.2800284835075273
-0.30464637216753854
-0.34772767732255133
-0.42158134330255725
-0.49543500928256323
-0.5262073701075842
-0.5077439536125827
-0.5015894814475731
-0.47697159278756174
-0.47697159278756174
-0.29233742783754685
-0.1938658731975296
-0.7723862567076134
-0.18155692886753785
-0.433890287632549
-0.6000610360875902
-0.5877520917575707
-0.8216220340276081
-0.9385570051626267
-1.2339716690826785
-1.1478090587726528
-0.9877927824826491
-0.8462399226876194
-0.7600773123775938
-0.6800691742326058
-0.5508252587675677
-0.40311792680755576
-0.396963454642546
-0.427735815467567
-0.34772767732255133
-0.32310978866254003
-0.23694717835254234
-0.1261666793825056
-0.09539431855751236
0.0707764298975011
0.06462195773251911
0.058467485567509365
0.1692479845375183
0.16309351237253633
0.04615854123751762
0.033849596907498114
-0.009231708247514623
0.08308537422752059
0.05231301340249961
0.02769512474251612
0.07693090206251085
0.01538618041249662
0.04000406907250786
0.05231301340249961
0.009231708247514623
0.04615854123751762
-0.0707764298975011
-0.1200122072175236
0.003077236082504875
-0.1261666793825056
-0.058467485567509365
-0.11385773505251384
-0.18771140103251985
-0.1384756237125251
-0.1015487907225221
-0.31695531649755804
-0.26156506701252585
-0.26771953917753555
-0.29233742783754685
-0.24925612268253405
-0.2738740113425453
-0.3108008443325483
-0.28618295567253704
-0.24925612268253405
-0.21232928969253104
-0.24925612268253405
-0.28618295567253704
-0.2554105948475438
-0.24925612268253405
-0.2431016505175243
-0.02769512474251612
0.11385773505251384
-0.5569797309325776
-0.02769512474251612
-0.18155692886753785
-0.24925612268253405
-0.24925612268253405
-0.009231708247514623
-0.5815976195925888
-0.7723862567076134
-0.4708171206225797
-0.35388214948756097
-0.2800284835075273
-0.24925612268253405
-0.26771953917753555
0.06462195773251911
-0.1938658731975296
-0.427735815467567
-0.30464637216753854
-0.2738740113425453
-0.2554105948475438
-0.24925612268253405
-0.26156506701252585
0.0707764298975011
-0.18771140103251985
-0.45850817629256013
-0.3108008443325483
-0.2431016505175243
-0.2000203453625393
-0.18771140103251985
-0.15078456804251686
0.18155692886753785
-0.058467485567509365
-0.29233742783754685
-0.1938658731975296
-0.15693904020752658
-0.14463009587750708
-0.1384756237125251
-0.058467485567509365
0.26156506701252585
-0.04615854123751762
-0.3354187329925596
-0.21232928969253104
-0.2184837618575408
-0.24925612268253405
-0.2431016505175243
-0.2554105948475438
0.08923984639250258
-0.1938658731975296
-0.4400447597975588
-0.31695531649755804
-0.30464637216753854
-0.32310978866254003
-0.2800284835075273
-0.23079270618753256
-0.18155692886753785
-0.2184837618575408
-0.2184837618575408
-0.24925612268253405
-0.28618295567253704
-0.3292642608275498
-0.40311792680755576
-0.42158134330255725
-0.427735815467567
-0.7108415350575992
-0.13232115154751534
-0.04000406907250786
-0.10770326288750408
-0.09539431855751236
-0.09539431855751236
-0.15078456804251686
-0.14463009587750708
-0.28618295567253704
-0.396963454642546
-0.40927239897256545
-0.4154268711375475
-0.40311792680755576
-0.360036621652543
-0.3292642608275498
-0.2431016505175243
-0.2738740113425453
-0.23079270618753256
-0.2000203453625393
-0.26156506701252585
-0.32310978866254003
-0.24925612268253405
-0.2431016505175243
-0.2061748175275213
-0.23079270618753256
-0.23694717835254234
-0.23694717835254234
-0.21232928969253104
-0.18771140103251985
-0.1692479845375183
-0.1261666793825056
-0.033849596907498114
-0.06462195773251911
-0.0707764298975011
0.07693090206251085
0.1015487907225221
-0.01538618041249662
0.003077236082504875
-0.02154065257750637
-0.033849596907498114
-0.08308537422752059
-0.1200122072175236
-0.1261666793825056
-0.14463009587750708
-0.14463009587750708
-0.1200122072175236
-0.08308537422752059
-0.07693090206251085
-0.1692479845375183
-0.23079270618753256
-0.29233742783754685
-0.28618295567253704
-0.28618295567253704
-0.30464637216753854
-0.32310978866254003
-0.2738740113425453
-0.3292642608275498
-0.3415732051575415
-0.1261666793825056
0.3292642608275498
-0.35388214948756097
-0.31695531649755804
-0.3108008443325483
-0.390808982477564
-0.6985325907276074
-0.5015894814475731
-0.390808982477564
-0.360036621652543
-0.35388214948756097
-0.34772767732255133
-0.32310978866254003
-0.29233742783754685
-0.36619109381755277
-0.390808982477564
-0.3723455659825625
-0.34772767732255133
-0.34772767732255133
-0.30464637216753854
-0.2738740113425453
-0.18771140103251985
-0.24925612268253405
-0.2184837618575408
-0.2246382340225228
-0.23694717835254234
-0.28618295567253704
-0.3723455659825625
-0.3846545103125543
-0.3415732051575415
-0.36619109381755277
-0.3846545103125543
-0.35388214948756097
-0.28618295567253704
-0.2738740113425453
-0.26156506701252585
-0.21232928969253104
-0.15693904020752658
-0.2246382340225228
-0.2554105948475438
-0.2431016505175243
-0.21232928969253104
-0.2061748175275213
-0.1938658731975296
-0.18155692886753785
-0.11385773505251384
-0.17540245670252808
-0.21232928969253104
-0.18155692886753785
-0.18771140103251985
-0.1938658731975296
-0.18771140103251985
-0.31695531649755804
-0.26156506701252585
-0.30464637216753854
-0.30464637216753854
-0.2984919000025288
-0.29233742783754685
-0.2984919000025288
-0.30464637216753854
-0.30464637216753854
-0.26156506701252585
-0.3108008443325483
-0.390808982477564
-0.6923781185625978
-0.17540245670252808
-0.033849596907498114
-0.08923984639250258
-0.2061748175275213
-0.17540245670252808
-0.23694717835254234
-0.26156506701252585
-0.23694717835254234
-0.2246382340225228
-0.21232928969253104
-0.2061748175275213
-0.1938658731975296
-0.13232115154751534
-0.18771140103251985
-0.18771140103251985
-0.18155692886753785
-0.1692479845375183
-0.2000203453625393
-0.21232928969253104
-0.1692479845375183
-0.11385773505251384
-0.17540245670252808
-0.2000203453625393
-0.15693904020752658
-0.1692479845375183
-0.2000203453625393
-0.1938658731975296
-0.1692479845375183
-0.09539431855751236
-0.18155692886753785
-0.2246382340225228
-0.13232115154751534
-0.1692479845375183
-0.2184837618575408
-0.21232928969253104
-0.21232928969253104
-0.1384756237125251
-0.2184837618575408
-0.23694717835254234
-0.21232928969253104
-0.21232928969253104
-0.2246382340225228
-0.2554105948475438
-0.24925612268253405
-0.1938658731975296
-0.2738740113425453
-0.1938658731975296
-0.1261666793825056
-0.18155692886753785
-0.2184837618575408
-0.2184837618575408
-0.2061748175275213
-0.14463009587750708
-0.2061748175275213
-0.2000203453625393
-0.2061748175275213
-0.1692479845375183
0.05231301340249961
0.5138984257775646
-0.14463009587750708
-0.1384756237125251
-0.5077439536125827
-0.4892805371175811
-0.3292642608275498
-0.26156506701252585
-0.23079270618753256
-0.2000203453625393
-0.2061748175275213
0.04000406907250786
0.04000406907250786
-0.390808982477564
0.06462195773251911
-0.08923984639250258
-0.1200122072175236
-0.14463009587750708
-0.16309351237253633
-0.15078456804251686
-0.44619923196256844
-0.36619109381755277
-0.3108008443325483
-0.30464637216753854
-0.2800284835075273
-0.2738740113425453
-0.24925612268253405
-0.18155692886753785
-0.24925612268253405
-0.24925612268253405
-0.2554105948475438
-0.2431016505175243
-0.23694717835254234
-0.2246382340225228
-0.15078456804251686
-0.01538618041249662
-0.10770326288750408
-0.1384756237125251
-0.16309351237253633
-0.2061748175275213
-0.23079270618753256
-0.2554105948475438
-0.2184837618575408
-0.13232115154751534
-0.15078456804251686
-0.1015487907225221
-0.02769512474251612
-0.04000406907250786
-0.11385773505251384
-0.1261666793825056
-0.1200122072175236
-0.1938658731975296
-0.37850003814754446
-0.427735815467567
-0.40927239897256545
-0.40927239897256545
-0.3723455659825625
-0.32310978866254003
-0.26771953917753555
-0.18771140103251985
-0.2184837618575408
-0.2000203453625393
-0.2000203453625393
-0.2000203453625393
-0.24925612268253405
-0.42158134330255725
-0.360036621652543
-0.26156506701252585
-0.35388214948756097
-0.32310978866254003
-0.32310978866254003
-0.3292642608275498
-0.3108008443325483
-0.30464637216753854
-0.3846545103125543
-0.5877520917575707
-0.10770326288750408
-0.1384756237125251
-0.2246382340225228
-0.2246382340225228
-0.26156506701252585
-0.24925612268253405
-0.24925612268253405
-0.21232928969253104
-0.2431016505175243
-0.23079270618753256
-0.23079270618753256
-0.23694717835254234
-0.23694717835254234
-0.2246382340225228
-0.2184837618575408
-0.16309351237253633
-0.29233742783754685
-0.3415732051575415
-0.31695531649755804
-0.3846545103125543
-0.40927239897256545
-0.36619109381755277
-0.34772767732255133
-0.26771953917753555
-0.3292642608275498
-0.3415732051575415
-0.32310978866254003
-0.31695531649755804
-0.2984919000025288
-0.28618295567253704
-0.29233742783754685
-0.21232928969253104
-0.2431016505175243
-0.17540245670252808
-0.11385773505251384
-0.17540245670252808
-0.18771140103251985
-0.2061748175275213
-0.26156506701252585
-0.16309351237253633
-0.26771953917753555
-0.28618295567253704
-0.28618295567253704
-0.26771953917753555
-0.23694717835254234
-0.2184837618575408
0.01538618041249662
0.36619109381755277
-0.5692886752625692
-0.3354187329925596
-0.28618295567253704
-0.26771953917753555
-0.29233742783754685
-0.2984919000025288
-0.2984919000025288
-0.23694717835254234
-0.26156506701252585
-0.2246382340225228
-0.18771140103251985
-0.17540245670252808
-0.1938658731975296
-0.1938658731975296
-0.1938658731975296
-0.1015487907225221
-0.2184837618575408
-0.2738740113425453
-0.2431016505175243
-0.21232928969253104
-0.18155692886753785
-0.15078456804251686
-0.1200122072175236
-0.058467485567509365
-0.1261666793825056
-0.13232115154751534
-0.10770326288750408
-0.1200122072175236
-0.1384756237125251
-0.16309351237253633
-0.09539431855751236
0.14463009587750708
-0.01538618041249662
-0.09539431855751236
-0.1261666793825056
-0.13232115154751534
-0.15693904020752658
-0.15693904020752658
-0.14463009587750708
-0.09539431855751236
-0.16309351237253633
-0.1384756237125251
-0.13232115154751534
-0.1384756237125251
-0.14463009587750708
-0.16309351237253633
-0.37850003814754446
-0.2984919000025288
-0.26156506701252585
-0.2246382340225228
-0.18771140103251985
-0.1692479845375183
-0.1692479845375183
-0.16309351237253633
-0.14463009587750708
-0.0707764298975011
-0.15693904020752658
-0.18155692886753785
-0.14463009587750708
-0.13232115154751534
-0.13232115154751534
-0.15078456804251686
-0.5262073701075842
0.009231708247514623
-0.02769512474251612
-0.14463009587750708
-0.13232115154751534
-0.15078456804251686
-0.1692479845375183
-0.18771140103251985
-0.18771140103251985
-0.11385773505251384
-0.21232928969253104
-0.2184837618575408
-0.2000203453625393
-0.1692479845375183
-0.13232115154751534
-0.1261666793825056
-0.1261666793825056
-0.07693090206251085
-0.16309351237253633
-0.16309351237253633
-0.14463009587750708
-0.15078456804251686
-0.15693904020752658
-0.1384756237125251
-0.13232115154751534
-0.07693090206251085
-0.16309351237253633
-0.15078456804251686
-0.13232115154751534
-0.16309351237253633
-0.2000203453625393
-0.18155692886753785
-0.18155692886753785
-0.10770326288750408
-0.17540245670252808
-0.18771140103251985
-0.18155692886753785
-0.16309351237253633
-0.15693904020752658
-0.15693904020752658
-0.1384756237125251
-0.07693090206251085
-0.17540245670252808
-0.14463009587750708
-0.06462195773251911
-0.09539431855751236
-0.09539431855751236
-0.07693090206251085
-0.06462195773251911
-0.06462195773251911
-0.1261666793825056
-0.1200122072175236
-0.11385773505251384
-0.1200122072175236
-0.08923984639250258
-0.08308537422752059
-0.1261666793825056
-0.0707764298975011
0.058467485567509365
0.49543500928256323
-0.17540245670252808
-0.1200122072175236
-0.1200122072175236
-0.11385773505251384
-0.09539431855751236
-0.1938658731975296
-0.5200528979425745
-0.35388214948756097
-0.26771953917753555
-0.26156506701252585
-0.2554105948475438
-0.24925612268253405
-0.2246382340225228
-0.15078456804251686
-0.2061748175275213
-0.1938658731975296
-0.23694717835254234
-0.23694717835254234
-0.2000203453625393
-0.17540245670252808
-0.1261666793825056
0.003077236082504875
-0.0707764298975011
-0.06462195773251911
-0.08923984639250258
-0.1200122072175236
-0.13232115154751534
-0.16309351237253633
-0.15078456804251686
-0.06462195773251911
-0.14463009587750708
-0.0707764298975011
0.003077236082504875
0.04000406907250786
0.04615854123751762
0.02769512474251612
-0.04615854123751762
-0.058467485567509365
-0.2184837618575408
-0.2984919000025288
-0.3292642608275498
-0.32310978866254003
-0.3108008443325483
-0.24925612268253405
-0.1692479845375183
-0.11385773505251384
-0.1692479845375183
-0.1384756237125251
-0.10770326288750408
-0.11385773505251384
-0.1200122072175236
-0.1200122072175236
-0.11385773505251384
-0.09539431855751236
-0.15078456804251686
-0.18771140103251985
-0.21232928969253104
-0.2061748175275213
-0.2184837618575408
-0.18771140103251985
-0.18155692886753785
-0.17540245670252808
-0.5877520917575707
-0.058467485567509365
0.02769512474251612
-0.08308537422752059
-0.1015487907225221
-0.10770326288750408
-0.1015487907225221
-0.06462195773251911
-0.1692479845375183
-0.1384756237125251
-0.16309351237253633
-0.1692479845375183
-0.15693904020752658
-0.15693904020752658
-0.16309351237253633
-0.10770326288750408
-0.17540245670252808
-0.1692479845375183
-0.17540245670252808
-0.16309351237253633
-0.1384756237125251
-0.15078456804251686
-0.1692479845375183
0.26771953917753555
0.2000203453625393
-0.15078456804251686
-0.09539431855751236
-0.07693090206251085
-0.11385773505251384
-0.14463009587750708
-0.1261666793825056
-0.2246382340225228
-0.5077439536125827
-0.32310978866254003
-0.23694717835254234
-0.2061748175275213
-0.17540245670252808
-0.1692479845375183
-0.15693904020752658
-0.14463009587750708
-0.26771953917753555
-0.23694717835254234
-0.1692479845375183
-0.23694717835254234
-0.18771140103251985
-0.15078456804251686
-0.1200122072175236
-0.05231301340249961
-0.14463009587750708
-0.16309351237253633
-0.2246382340225228
-0.24925612268253405
-0.26156506701252585
-0.26156506701252585
-0.26156506701252585
-0.21232928969253104
-0.30464637216753854
-0.2554105948475438
-0.003077236082504875
0.47697159278756174
-0.17540245670252808
-0.1384756237125251
-0.10770326288750408
-0.2800284835075273
-0.5631342030975872
-0.3354187329925596
-0.26156506701252585
-0.23079270618753256
-0.21232928969253104
-0.1938658731975296
-0.17540245670252808
-0.1015487907225221
-0.1200122072175236
-0.15078456804251686
-0.1692479845375183
-0.1692479845375183
-0.15693904020752658
-0.18155692886753785
-0.1692479845375183
-0.14463009587750708
-0.1938658731975296
-0.1938658731975296
-0.1692479845375183
-0.16309351237253633
-0.1692479845375183
-0.17540245670252808
-0.1692479845375183
-0.15078456804251686
-0.23694717835254234
-0.2184837618575408
-0.18155692886753785
-0.1692479845375183
-0.1692479845375183
-0.15693904020752658
-0.13232115154751534
-0.11385773505251384
-0.16309351237253633
-0.1692479845375183
-0.16309351237253633
-0.15693904020752658
-0.15078456804251686
-0.15078456804251686
-0.1938658731975296
-0.1938658731975296
-0.26771953917753555
-0.2184837618575408
-0.1938658731975296
-0.2000203453625393
-0.1938658731975296
-0.1938658731975296
-0.1938658731975296
-0.1200122072175236
-0.21232928969253104
-0.2000203453625393
-0.2000203453625393
-0.2061748175275213
-0.2061748175275213
-0.01538618041249662
-0.08308537422752059
-0.08923984639250258
-0.18771140103251985
-0.26156506701252585
-0.5631342030975872
-0.05231301340249961
-0.003077236082504875
-0.10770326288750408
-0.10770326288750408
-0.04000406907250786
-0.14463009587750708
-0.1261666793825056
-0.15078456804251686
-0.1384756237125251
-0.13232115154751534
-0.15078456804251686
-0.18771140103251985
-0.11385773505251384
-0.2000203453625393
-0.21232928969253104
-0.2246382340225228
-0.2246382340225228
-0.18771140103251985
-0.1938658731975296
-0.18771140103251985
-0.1200122072175236
-0.2061748175275213
-0.2000203453625393
-0.1938658731975296
-0.07693090206251085
-0.15078456804251686
-0.18771140103251985
-0.16309351237253633
-0.13232115154751534
-0.2000203453625393
-0.18155692886753785
-0.17540245670252808
-0.16309351237253633
-0.1384756237125251
-0.1261666793825056
-0.09539431855751236
-0.04615854123751762
-0.15078456804251686
-0.1692479845375183
-0.1938658731975296
-0.26156506701252585
-0.23694717835254234
-0.2061748175275213
-0.2184837618575408
-0.17540245670252808
-0.2554105948475438
-0.23694717835254234
-0.23079270618753256
-0.23079270618753256
-0.21232928969253104
-0.2000203453625393
-0.18155692886753785
-0.15078456804251686
-0.23694717835254234
-0.24925612268253405
-0.2554105948475438
-0.2431016505175243
-0.04000406907250786
0.28618295567253704
-0.1938658731975296
-0.30464637216753854
-0.6062155082525723
-0.4400447597975588
-0.3415732051575415
-0.28618295567253704
-0.2431016505175243
-0.1938658731975296
-0.13232115154751534
-0.0707764298975011
-0.13232115154751534
-0.24925612268253405
-0.2431016505175243
-0.26156506701252585
-0.29233742783754685
-0.32310978866254003
-0.28618295567253704
-0.15693904020752658
-0.15078456804251686
-0.05231301340249961
-0.01538618041249662
0.003077236082504875
0.003077236082504875
-0.0707764298975011
-0.14463009587750708
-0.09539431855751236
-0.2800284835075273
-0.3108008443325483
-0.29233742783754685
-0.2738740113425453
-0.28618295567253704
-0.29233742783754685
-0.2800284835075273
-0.23079270618753256
-0.26771953917753555
-0.2184837618575408
-0.15693904020752658
-0.1015487907225221
-0.1015487907225221
-0.13232115154751534
-0.14463009587750708
-0.1692479845375183
-0.31695531649755804
-0.360036621652543
-0.37850003814754446
-0.396963454642546
-0.37850003814754446
-0.3723455659825625
-0.3354187329925596
-0.2246382340225228
-0.3292642608275498
-0.31695531649755804
-0.2738740113425453
-0.24925612268253405
-0.23694717835254234
-0.15693904020752658
-0.2000203453625393
-0.1692479845375183
-0.2431016505175243
-0.2431016505175243
-0.24925612268253405
-0.31695531649755804
-0.6185244525825918
-0.1015487907225221
-0.06462195773251911
-0.14463009587750708
-0.2431016505175243
-0.24925612268253405
-0.2431016505175243
-0.26156506701252585
-0.29233742783754685
-0.29233742783754685
-0.2738740113425453
-0.2061748175275213
-0.29233742783754685
-0.26771953917753555
-0.26156506701252585
-0.2431016505175243
-0.21232928969253104
-0.18155692886753785
-0.1261666793825056
-0.08308537422752059
-0.16309351237253633
-0.17540245670252808
-0.21232928969253104
-0.2061748175275213
-0.1938658731975296
-0.23079270618753256
-0.24925612268253405
-0.2431016505175243
-0.36619109381755277
-0.360036621652543
-0.3292642608275498
-0.28618295567253704
-0.2554105948475438
-0.2000203453625393
-0.1384756237125251
-0.07693090206251085
-0.16309351237253633
-0.18771140103251985
-0.15693904020752658
-0.18155692886753785
-0.2554105948475438
-0.28618295567253704
-0.29233742783754685
-0.2554105948475438
-0.2984919000025288
-0.26156506701252585
-0.2184837618575408
-0.21232928969253104
-0.2061748175275213
-0.2061748175275213
-0.1938658731975296
-0.16309351237253633
-0.26771953917753555
-0.2246382340225228
-0.29233742783754685
-0.2738740113425453
-0.2431016505175243
-0.2061748175275213
0.04000406907250786
0.45850817629256013
-0.15078456804251686
-0.08308537422752059
-0.10770326288750408
-0.14463009587750708
-0.1261666793825056
-0.15078456804251686
-0.18155692886753785
-0.4154268711375475
-0.6185244525825918
-0.4523537041275505
-0.37850003814754446
-0.32310978866254003
-0.31695531649755804
-0.30464637216753854
-0.28618295567253704
-0.2246382340225228
-0.28618295567253704
-0.28618295567253704
-0.23694717835254234
-0.2246382340225228
-0.2184837618575408
-0.23079270618753256
-0.23694717835254234
-0.14463009587750708
-0.26771953917753555
-0.26771953917753555
-0.26156506701252585
-0.24925612268253405
-0.24925612268253405
-0.2431016505175243
-0.23694717835254234
-0.2061748175275213
-0.2800284835075273
-0.2554105948475438
-0.26156506701252585
-0.26156506701252585
-0.2554105948475438
-0.26156506701252585
-0.1200122072175236
0.427735815467567
-0.40927239897256545
-0.003077236082504875
0.05231301340249961
-0.1200122072175236
-0.1692479845375183
-0.2061748175275213
-0.2246382340225228
-0.44619923196256844
-0.6677602299025863
-0.45850817629256013
-0.3723455659825625
-0.360036621652543
-0.34772767732255133
-0.31695531649755804
-0.17540245670252808
-0.2184837618575408
-0.35388214948756097
-0.42158134330255725
-0.4892805371175811
-0.5323618422725662
-0.5631342030975872
-0.5692886752625692
-0.5815976195925888
-0.575443147427579
-0.7108415350575992
-0.7108415350575992
-0.7169960072226089
-0.7354594237176103
-0.8770122835126126
-1.1478090587726528
-0.9508659494926462
-0.7846952010376053
-0.8277765061926179
-0.7416138958825924
-0.6554512855725947
-0.6554512855725947
-0.6123699804175821
-0.6369878690775933
-0.6492968134075848
-0.538516314437576
-0.6123699804175821
-0.5200528979425745
-0.4892805371175811
-0.30464637216753854
-0.2000203453625393
-0.15078456804251686
-0.04000406907250786
0.06462195773251911
0.05231301340249961
0.08923984639250258
0.1692479845375183
0.2000203453625393
0.2431016505175243
0.26771953917753555
0.28618295567253704
0.28618295567253704
0.1692479845375183
0.17540245670252808
0.11385773505251384
-0.04000406907250786
-0.07693090206251085
-0.08308537422752059
-0.29233742783754685
-0.29233742783754685
0.1692479845375183
0.06462195773251911
0.003077236082504875
0.009231708247514623
-0.0707764298975011
-0.08308537422752059
-0.0707764298975011
-0.07693090206251085
-0.10770326288750408
0.07693090206251085
0.4154268711375475
0.21232928969253104
0.08923984639250258
0.04000406907250786
0.02769512474251612
0.08923984639250258
0.2431016505175243
0.575443147427579
0.02154065257750637
-0.02769512474251612
-0.15078456804251686
-0.1692479845375183
-0.15693904020752658
-0.3723455659825625
-0.538516314437576
-0.433890287632549
-0.2061748175275213
-0.07693090206251085
-0.06462195773251911
-0.11385773505251384
-0.1692479845375183
-0.2431016505175243
-0.4400447597975588
-0.5077439536125827
-0.5262073701075842
-0.5631342030975872
-0.575443147427579
-0.575443147427579
-0.5569797309325776
-0.4831260649525715
-0.46466264845757
-0.42158134330255725
-0.40311792680755576
-0.390808982477564
-0.40311792680755576
-0.37850003814754446
-0.40927239897256545
-0.44619923196256844
-0.5015894814475731
-0.5138984257775646
-0.5446707866025856
-0.538516314437576
-0.5262073701075842
-0.5262073701075842
-0.49543500928256323
-0.433890287632549
-0.4523537041275505
-0.40311792680755576
-0.34772767732255133
-0.30464637216753854
-0.31695531649755804
-0.32310978866254003
-0.32310978866254003
-0.29233742783754685
-0.360036621652543
-0.360036621652543
-0.360036621652543
-0.35388214948756097
-0.36619109381755277
-0.40927239897256545
-0.5631342030975872
-0.427735815467567
-0.4400447597975588
-0.390808982477564
-0.37850003814754446
-0.37850003814754446
-0.36619109381755277
-0.3723455659825625
-0.35388214948756097
-0.360036621652543
-0.7785407288726233
-0.2431016505175243
-0.21232928969253104
-0.3292642608275498
-0.31695531649755804
-0.26771953917753555
-0.29233742783754685
-0.24925612268253405
-0.3354187329925596
-0.30464637216753854
-0.26156506701252585
-0.23694717835254234
-0.2246382340225228
-0.2246382340225228
-0.2184837618575408
-0.17540245670252808
-0.29233742783754685
-0.2738740113425453
-0.2800284835075273
-0.2554105948475438
-0.23079270618753256
-0.23694717835254234
-0.2000203453625393
-0.13232115154751534
-0.1261666793825056
-0.058467485567509365
-0.02154065257750637
0.01538618041249662
0.033849596907498114
0.07693090206251085
0.15693904020752658
0.2554105948475438
0.1938658731975296
0.23079270618753256
0.2738740113425453
0.3292642608275498
0.36619109381755277
0.390808982477564
0.433890287632549
0.5138984257775646
0.3723455659825625
0.29233742783754685
0.1692479845375183
0.06462195773251911
-0.058467485567509365
-0.18771140103251985
-0.2984919000025288
-0.3846545103125543
-0.4708171206225797
-0.2984919000025288
-0.1261666793825056
0.10770326288750408
0.42158134330255725
0.7477683680476023
1.0308740876376343
1.2770529742376913
1.3755245288776807
1.5232318608377204
1.7878741639327511
2.1263701330077875
1.5355408051677124
1.4247603061977032
1.2770529742376913
0.8523943948526291
0.6000610360875902
0.7046870628925893
0.7046870628925893
0.7169960072226089
0.7293049515526008
0.7108415350575992
0.6616057577376044
0.6123699804175821
0.4831260649525715
0.36619109381755277
0.3108008443325483
0.28618295567253704
0.26771953917753555
0.18155692886753785
0.1200122072175236
0.13232115154751534
0.15693904020752658
0.13232115154751534
0.2000203453625393
0.32310978866254003
0.390808982477564
0.360036621652543
0.3415732051575415
0.45850817629256013
0.5015894814475731
0.5939065639225805
0.5569797309325776
0.3292642608275498
0.24925612268253405
0.11385773505251384
0.10770326288750408
0.09539431855751236
0.02769512474251612
-0.08923984639250258
-0.06462195773251911
-0.04000406907250786
-0.02769512474251612
-0.23079270618753256
-0.2184837618575408
-0.26771953917753555
-0.7046870628925893
-0.7846952010376053
-0.538516314437576
-0.427735815467567
-0.4154268711375475
-0.35388214948756097
-0.28618295567253704
-0.21232928969253104
-0.26771953917753555
-0.2800284835075273
-0.3108008443325483
-0.26771953917753555
-0.26771953917753555
-0.29233742783754685
-0.2431016505175243
0.15078456804251686
0.433890287632549
0.2061748175275213
-0.29233742783754685
0.2184837618575408
0.2984919000025288
-0.009231708247514623
0.04000406907250786
0.05231301340249961
-0.1200122072175236
-0.11385773505251384
-0.11385773505251384
-0.1692479845375183
-0.1938658731975296
-0.2000203453625393
-0.18771140103251985
-0.1384756237125251
-0.23079270618753256
-0.2061748175275213
-0.21232928969253104
-0.2184837618575408
-0.2800284835075273
-0.32310978866254003
-0.26771953917753555
-0.2246382340225228
-0.2554105948475438
-0.2184837618575408
-0.1692479845375183
-0.1200122072175236
-0.08923984639250258
-0.09539431855751236
-0.06462195773251911
-0.003077236082504875
-0.1200122072175236
-0.2000203453625393
-0.23079270618753256
-0.18771140103251985
-0.2431016505175243
-0.24925612268253405
-0.21232928969253104
-0.1938658731975296
-0.3723455659825625
-0.396963454642546
-0.433890287632549
-0.49543500928256323
-0.4831260649525715
-0.4523537041275505
-0.45850817629256013
-0.44619923196256844
-0.5262073701075842
-0.5508252587675677
-0.5446707866025856
-0.5446707866025856
-0.538516314437576
-0.538516314437576
-0.40927239897256545
0.1938658731975296
-0.2246382340225228
-0.15693904020752658
-0.1384756237125251
-0.13232115154751534
0.009231708247514623
-0.02769512474251612
-0.5815976195925888
-0.8031586175326066
-1.104727753617668
-1.0616464484626553
-1.0308740876376343
-0.9693293659876481
-0.9200935886676254
-0.8647033391826209
-0.7908496732026148
-0.7169960072226089
-0.7785407288726233
-0.7539228402126119
-0.8031586175326066
-0.8523943948526291
-0.9077846443376336
-0.9324025329976448
-0.9139391165026156
-0.8462399226876194
-0.8770122835126126
-0.8770122835126126
-0.8400854505226096
-0.8031586175326066
-0.7785407288726233
-0.7539228402126119
-0.7108415350575992
-0.6616057577376044
-0.7477683680476023
-0.6923781185625978
-0.6185244525825918
-0.5877520917575707
-0.6123699804175821
-0.6369878690775933
-0.5939065639225805
-0.4523537041275505
-0.5508252587675677
-0.6123699804175821
-0.6616057577376044
-0.6862236463975879
-0.7046870628925893
-0.7231504793875909
-0.7231504793875909
-0.7046870628925893
-0.7293049515526008
-0.6923781185625978
-0.6308333969125834
-0.5631342030975872
-0.5446707866025856
-0.5262073701075842
-0.2738740113425453
-0.2246382340225228
-0.44619923196256844
-0.46466264845757
-0.47697159278756174
-0.4708171206225797
-0.47697159278756174
-0.4892805371175811
-0.45850817629256013
-0.40311792680755576
-0.4154268711375475
-0.360036621652543
-0.3723455659825625
-0.47697159278756174
-0.8154675618626261
-0.6554512855725947
-0.5508252587675677
-0.4708171206225797
-0.5138984257775646
-0.45850817629256013
-0.4154268711375475
-0.42158134330255725
-0.390808982477564
-0.360036621652543
-0.29233742783754685
-0.2246382340225228
-0.29233742783754685
-0.26771953917753555
-0.2800284835075273
-0.26156506701252585
-0.2800284835075273
-0.3108008443325483
-0.29233742783754685
-0.2738740113425453
-0.32310978866254003
-0.29233742783754685
-0.2984919000025288
-0.24925612268253405
-0.2246382340225228
-0.2184837618575408
-0.2061748175275213
-0.2184837618575408
-0.29233742783754685
-0.29233742783754685
-0.28618295567253704
-0.2800284835075273
-0.2984919000025288
-0.2554105948475438
-0.1938658731975296
-0.15078456804251686
-0.2246382340225228
-0.1938658731975296
-0.16309351237253633
-0.09539431855751236
-0.1200122072175236
-0.1261666793825056
-0.10770326288750408
-0.1200122072175236
-0.17540245670252808
-0.1200122072175236
-0.07693090206251085
-0.1692479845375183
-0.17540245670252808
-0.1261666793825056
-0.11385773505251384
-0.1261666793825056
-0.16309351237253633
-0.17540245670252808
-0.1938658731975296
-0.2431016505175243
-0.28618295567253704
-0.26156506701252585
-0.033849596907498114
0.3354187329925596
-0.16309351237253633
-0.11385773505251384
-0.2738740113425453
-0.28618295567253704
-0.2554105948475438
-0.2184837618575408
-0.2184837618575408
-0.5877520917575707
-0.6492968134075848
-0.46466264845757
-0.40311792680755576
-0.35388214948756097
-0.3415732051575415
-0.3108008443325483
-0.2984919000025288
-0.28618295567253704
-0.23079270618753256
-0.2246382340225228
-0.2800284835075273
-0.3108008443325483
-0.3415732051575415
-0.35388214948756097
-0.32310978866254003
-0.32310978866254003
-0.40311792680755576
-0.37850003814754446
-0.396963454642546
-0.427735815467567
-0.4523537041275505
-0.4400447597975588
-0.390808982477564
-0.3292642608275498
-0.4400447597975588
-0.433890287632549
-0.4831260649525715
-0.49543500928256323
-0.4708171206225797
-0.49543500928256323
-0.4831260649525715
-0.44619923196256844
-0.49543500928256323
-0.5138984257775646
-0.433890287632549
-0.40311792680755576
-0.3723455659825625
-0.390808982477564
-0.3354187329925596
-0.31695531649755804
-0.36619109381755277
-0.3108008443325483
-0.2800284835075273
-0.26156506701252585
-0.26771953917753555
-0.2554105948475438
-0.2061748175275213
-0.18771140103251985
-0.26771953917753555
-0.21232928969253104
-0.1938658731975296
-0.23079270618753256
-0.2554105948475438
-0.26156506701252585
-0.5692886752625692
-0.08923984639250258
-0.0707764298975011
-0.1200122072175236
-0.09539431855751236
-0.08308537422752059
-0.009231708247514623
-0.04615854123751762
0.01538618041249662
0.09539431855751236
0.08308537422752059
0.1384756237125251
0.11385773505251384
0.0707764298975011
0.1015487907225221
0.009231708247514623
-0.02154065257750637
-0.06462195773251911
-0.2061748175275213
-0.2431016505175243
-0.32310978866254003
-0.36619109381755277
-0.37850003814754446
-0.36619109381755277
-0.30464637216753854
-0.21232928969253104
-0.23079270618753256
-0.2061748175275213
-0.1938658731975296
-0.2984919000025288
-0.390808982477564
-0.396963454642546
-0.396963454642546
-0.37850003814754446
-0.45850817629256013
-0.46466264845757
-0.4708171206225797
-0.4708171206225797
-0.4708171206225797
-0.49543500928256323
-0.5138984257775646
-0.5015894814475731
-0.5446707866025856
-0.4831260649525715
-0.3292642608275498
-0.3292642608275498
-0.28618295567253704
-0.2800284835075273
-0.23079270618753256
-0.26156506701252585
-0.40311792680755576
-0.5138984257775646
-0.5877520917575707
-0.6000610360875902
-0.5569797309325776
-0.45850817629256013
-0.34772767732255133
-0.26771953917753555
-0.02154065257750637
0.6677602299025863
0.2431016505175243
0.09539431855751236
0.003077236082504875
-0.033849596907498114
-0.08923984639250258
-0.396963454642546
-0.427735815467567
-0.24925612268253405
-0.18155692886753785
-0.14463009587750708
-0.1200122072175236
-0.08308537422752059
-0.05231301340249961
-0.13232115154751534
-0.44619923196256844
-0.6308333969125834
-0.49543500928256323
-0.40927239897256545
-0.3723455659825625
-0.3846545103125543
-0.390808982477564
-0.40311792680755576
-0.4708171206225797
-0.4831260649525715
-0.49543500928256323
-0.5631342030975872
-0.6000610360875902
-0.6246789247476013
-0.6616057577376044
-0.6123699804175821
-0.6369878690775933
-0.6062155082525723
-0.575443147427579
-0.5569797309325776
-0.5200528979425745
-0.5138984257775646
-0.5262073701075842
-0.5692886752625692
-0.6431423412426028
-0.6369878690775933
-0.6062155082525723
-0.5508252587675677
-0.47697159278756174
-0.4400447597975588
-0.360036621652543
-0.31695531649755804
-0.2984919000025288
-0.2246382340225228
-0.16309351237253633
-0.10770326288750408
-0.05231301340249961
-0.009231708247514623
0.01538618041249662
0.009231708247514623
-0.1015487907225221
-0.08923984639250258
-0.1015487907225221
-0.10770326288750408
-0.08308537422752059
0.009231708247514623
0.02769512474251612
-0.003077236082504875
-0.3354187329925596
0.2184837618575408
0.2000203453625393
0.06462195773251911
0.02154065257750637
-0.02154065257750637
0.02154065257750637
0.4400447597975588
-0.1200122072175236
-0.02769512474251612
-0.1015487907225221
-0.14463009587750708
-0.1015487907225221
-0.1200122072175236
-0.17540245670252808
-0.5138984257775646
-0.5323618422725662
-0.35388214948756097
-0.29233742783754685
-0.24925612268253405
-0.24925612268253405
-0.2431016505175243
-0.21232928969253104
-0.21232928969253104
-0.26156506701252585
-0.2431016505175243
-0.23079270618753256
-0.17540245670252808
-0.2184837618575408
-0.21232928969253104
-0.16309351237253633
-0.15078456804251686
-0.1938658731975296
-0.16309351237253633
-0.1384756237125251
-0.13232115154751534
-0.13232115154751534
-0.15078456804251686
-0.13232115154751534
-0.13232115154751534
-0.2000203453625393
-0.1938658731975296
-0.15078456804251686
-0.15078456804251686
-0.1692479845375183
-0.1938658731975296
-0.2184837618575408
-0.23079270618753256
-0.32310978866254003
-0.3415732051575415
-0.427735815467567
-0.47697159278756174
-0.4831260649525715
-0.538516314437576
-0.5569797309325776
-0.5200528979425745
-0.575443147427579
-0.5138984257775646
-0.28618295567253704
0.04000406907250786
-0.47697159278756174
-0.433890287632549
-0.4831260649525715
-0.7908496732026148
-0.8339309783576276
-0.7169960072226089
-0.6677602299025863
-0.6123699804175821
-0.5939065639225805
-0.5692886752625692
-0.5138984257775646
-0.4892805371175811
-0.5077439536125827
-0.5200528979425745
-0.46466264845757
-0.40927239897256545
-0.427735815467567
-0.37850003814754446
-0.30464637216753854
-0.29233742783754685
-0.3292642608275498
-0.28618295567253704
-0.23079270618753256
-0.2000203453625393
-0.15693904020752658
-0.13232115154751534
-0.11385773505251384
-0.06462195773251911
-0.06462195773251911
-0.04000406907250786
-0.058467485567509365
-0.06462195773251911
-0.06462195773251911
-0.05231301340249961
-0.009231708247514623
-0.02769512474251612
-0.04000406907250786
-0.003077236082504875
-0.01538618041249662
0.003077236082504875
0.01538618041249662
-0.02769512474251612
0.02154065257750637
0.01538618041249662
-0.02154065257750637
-0.02154065257750637
-0.04000406907250786
-0.04615854123751762
-0.033849596907498114
-0.033849596907498114
0.01538618041249662
0.02154065257750637
-0.05231301340249961
-0.04615854123751762
-0.058467485567509365
-0.09539431855751236
-0.11385773505251384
-0.15693904020752658
-0.23694717835254234
-0.26156506701252585
-0.31695531649755804
-0.3723455659825625
-0.6554512855725947
-0.1384756237125251
-0.13232115154751534
-0.2000203453625393
-0.2000203453625393
-0.23694717835254234
-0.32310978866254003
-0.3292642608275498
-0.34772767732255133
-0.40927239897256545
-0.3108008443325483
-0.23694717835254234
-0.18771140103251985
-0.2184837618575408
-0.2738740113425453
-0.2184837618575408
-0.2061748175275213
-0.18155692886753785
-0.14463009587750708
-0.13232115154751534
-0.058467485567509365
-0.05231301340249961
-0.07693090206251085
-0.04615854123751762
-0.058467485567509365
0.08923984639250258
0.3292642608275498
0.1384756237125251
0.08923984639250258
0.058467485567509365
0.003077236082504875
0.009231708247514623
0.003077236082504875
-0.02769512474251612
-0.06462195773251911
-0.09539431855751236
-0.1200122072175236
-0.1692479845375183
-0.21232928969253104
-0.2061748175275213
-0.2800284835075273
-0.4892805371175811
-0.360036621652543
-0.23694717835254234
-0.15078456804251686
-0.14463009587750708
-0.21232928969253104
-0.18771140103251985
-0.1938658731975296
-0.1938658731975296
-0.15693904020752658
-0.1384756237125251
-0.18771140103251985
-0.2246382340225228
-0.23079270618753256
-0.18155692886753785
0.003077236082504875
-0.08923984639250258
0.01538618041249662
0.3354187329925596
-0.40927239897256545
-0.7970041453676248
-0.8585488670176111
-0.8031586175326066
-0.7785407288726233
-0.7785407288726233
-0.7785407288726233
-0.7354594237176103
-0.7046870628925893
-0.6985325907276074
-0.7477683680476023
-0.8093130896976164
-0.8154675618626261
-0.7908496732026148
-0.7600773123775938
-0.7231504793875909
-0.6554512855725947
-0.6492968134075848
-0.6246789247476013
-0.49543500928256323
-0.427735815467567
-0.4154268711375475
-0.40927239897256545
-0.36619109381755277
-0.26156506701252585
-0.23694717835254234
-0.3108008443325483
-0.32310978866254003
-0.36619109381755277
-0.34772767732255133
-0.2800284835075273
-0.18771140103251985
-0.10770326288750408
-0.0707764298975011
-0.1261666793825056
-0.1015487907225221
-0.07693090206251085
-0.058467485567509365
-0.058467485567509365
-0.1200122072175236
-0.09539431855751236
-0.16309351237253633
-0.18155692886753785
-0.09539431855751236
0.01538618041249662
0.1015487907225221
0.18771140103251985
0.24925612268253405
0.36619109381755277
0.42158134330255725
0.35388214948756097
0.2554105948475438
0.18771140103251985
0.1692479845375183
0.1200122072175236
0.10770326288750408
0.033849596907498114
0.0707764298975011
0.1200122072175236
0.1938658731975296
0.1938658731975296
0.13232115154751534
-0.18771140103251985
0.26156506701252585
0.23694717835254234
0.08308537422752059
-0.003077236082504875
-0.033849596907498114
-0.06462195773251911
-0.04615854123751762
0.04000406907250786
0.13232115154751534
0.1200122072175236
0.11385773505251384
0.1015487907225221
0.10770326288750408
0.08308537422752059
0.04000406907250786
0.01538618041249662
-0.033849596907498114
-0.06462195773251911
-0.15693904020752658
-0.2984919000025288
-0.42158134330255725
-0.4831260649525715
-0.5323618422725662
-0.6000610360875902
-0.7046870628925893
-0.7539228402126119
-0.8216220340276081
-0.9262480608326351
-0.901630172172624
-0.8462399226876194
-0.8277765061926179
-0.8093130896976164
-0.7846952010376053
-0.7846952010376053
-0.8339309783576276
-0.8277765061926179
-0.8770122835126126
-0.9508659494926462
-0.9939472546476313
-0.9324025329976448
-0.8523943948526291
-0.8585488670176111
-0.895475700007614
-0.8154675618626261
-0.7477683680476023
-0.7169960072226089
-0.7293049515526008
-0.7846952010376053
-0.8031586175326066
-0.7600773123775938
-0.7600773123775938
-0.7231504793875909
-0.4892805371175811
-0.32310978866254003
-0.23079270618753256
-0.3292642608275498
-0.4892805371175811
-0.2984919000025288
0.1200122072175236
-0.15078456804251686
-0.02769512474251612
0.04615854123751762
0.058467485567509365
0.0707764298975011
0.1938658731975296
0.2246382340225228
-0.02769512474251612
0.1200122072175236
0.2800284835075273
0.30464637216753854
0.26156506701252585
0.18771140103251985
0.15693904020752658
0.2061748175275213
0.16309351237253633
0.13232115154751534
0.18155692886753785
0.21232928969253104
0.2246382340225228
0.2061748175275213
0.2431016505175243
0.47697159278756174
0.6123699804175821
0.1384756237125251
0.6800691742326058
0.5200528979425745
0.5262073701075842
0.5077439536125827
0.4831260649525715
0.47697159278756174
0.1261666793825056
0.15693904020752658
0.28618295567253704
0.390808982477564
0.390808982477564
0.4154268711375475
0.427735815467567
0.538516314437576
0.575443147427579
0.47697159278756174
0.47697159278756174
0.4892805371175811
0.45850817629256013
0.3415732051575415
0.18771140103251985
0.08923984639250258
0.033849596907498114
-0.05231301340249961
-0.033849596907498114
0.05231301340249961
0.10770326288750408
0.1200122072175236
0.1692479845375183
0.2800284835075273
0.2061748175275213
0.10770326288750408
0.04615854123751762
-0.003077236082504875
-0.033849596907498114
-0.0707764298975011
-0.058467485567509365
-0.009231708247514623
-0.02769512474251612
-0.02769512474251612
0.02154065257750637
0.033849596907498114
0.01538618041249662
0.0707764298975011
0.26156506701252585
0.3108008443325483
0.26156506701252585
0.1692479845375183
0.10770326288750408
0.04615854123751762
-0.07693090206251085
-0.18771140103251985
-0.3292642608275498
-0.32310978866254003
-0.3415732051575415
-0.3723455659825625
-0.3354187329925596
-0.3108008443325483
-0.2800284835075273
-0.3723455659825625
-0.46466264845757
-0.6369878690775933
-0.10770326288750408
-0.058467485567509365
-0.14463009587750708
-0.15078456804251686
-0.16309351237253633
-0.18155692886753785
-0.15078456804251686
-0.08308537422752059
-0.1261666793825056
-0.1261666793825056
-0.1261666793825056
-0.15693904020752658
-0.11385773505251384
-0.1384756237125251
-0.13232115154751534
-0.10770326288750408
-0.1200122072175236
-0.14463009587750708
-0.16309351237253633
-0.14463009587750708
-0.15078456804251686
-0.15078456804251686
-0.13232115154751534
-0.08308537422752059
-0.10770326288750408
-0.1938658731975296
-0.15693904020752658
-0.1261666793825056
-0.1938658731975296
-0.17540245670252808
-0.18155692886753785
-0.15078456804251686
-0.17540245670252808
-0.033849596907498114
0.28618295567253704
-0.2000203453625393
-0.15078456804251686
-0.1692479845375183
-0.1692479845375183
-0.2184837618575408
-0.5877520917575707
-0.5077439536125827
-0.3292642608275498
-0.2800284835075273
-0.2061748175275213
-0.18771140103251985
-0.1692479845375183
-0.1384756237125251
-0.16309351237253633
-0.15078456804251686
-0.1692479845375183
-0.18155692886753785
-0.1938658731975296
-0.2431016505175243
-0.24925612268253405
-0.2061748175275213
-0.2000203453625393
-0.1692479845375183
-0.2000203453625393
-0.2000203453625393
-0.17540245670252808
-0.15693904020752658
-0.17540245670252808
-0.1692479845375183
-0.1938658731975296
-0.23079270618753256
-0.26156506701252585
-0.24925612268253405
-0.23079270618753256
-0.2554105948475438
-0.2554105948475438
-0.18771140103251985
-0.2800284835075273
-0.360036621652543
-0.28618295567253704
-0.23694717835254234
-0.2000203453625393
-0.17540245670252808
-0.15078456804251686
-0.08923984639250258
-0.11385773505251384
-0.11385773505251384
-0.08308537422752059
-0.08308537422752059
-0.08308537422752059
-0.07693090206251085
-0.02769512474251612
0.058467485567509365
-0.0707764298975011
-0.06462195773251911
-0.033849596907498114
-0.08308537422752059
-0.09539431855751236
-0.08923984639250258
-0.1200122072175236
-0.1015487907225221
-0.2246382340225228
-0.5508252587675677
-0.058467485567509365
-0.01538618041249662
-0.1384756237125251
-0.15078456804251686
-0.01538618041249662
-0.009231708247514623
-0.08923984639250258
-0.1200122072175236
-0.10770326288750408
-0.13232115154751534
-0.1200122072175236
-0.1200122072175236
-0.1015487907225221
-0.08923984639250258
-0.08923984639250258
-0.11385773505251384
-0.13232115154751534
-0.1384756237125251
-0.1200122072175236
0.003077236082504875
0.02154065257750637
-0.033849596907498114
-0.11385773505251384
-0.13232115154751534
-0.1200122072175236
-0.13232115154751534
-0.15078456804251686
-0.14463009587750708
-0.15078456804251686
-0.15078456804251686
-0.1938658731975296
-0.2061748175275213
-0.2061748175275213
-0.2000203453625393
-0.2984919000025288
-0.37850003814754446
-0.2800284835075273
-0.2061748175275213
-0.2184837618575408
-0.26156506701252585
-0.23079270618753256
-0.21232928969253104
-0.2184837618575408
-0.2184837618575408
-0.2061748175275213
-0.18155692886753785
-0.2061748175275213
-0.21232928969253104
-0.1938658731975296
-0.1692479845375183
-0.2061748175275213
-0.2246382340225228
-0.2000203453625393
-0.16309351237253633
-0.16309351237253633
-0.17540245670252808
-0.15693904020752658
0.08308537422752059
0.5446707866025856
-0.13232115154751534
-0.06462195773251911
0.49543500928256323
-0.35388214948756097
-0.7539228402126119
-0.3354187329925596
-0.30464637216753854
-0.2800284835075273
-0.2000203453625393
-0.15693904020752658
0.15078456804251686
-0.10770326288750408
-0.3292642608275498
-0.2184837618575408
-0.17540245670252808
-0.1692479845375183
-0.14463009587750708
-0.15078456804251686
0.16309351237253633
-0.07693090206251085
-0.28618295567253704
-0.2554105948475438
-0.21232928969253104
-0.18155692886753785
-0.1384756237125251
-0.1015487907225221
0.2554105948475438
-0.003077236082504875
-0.29233742783754685
-0.2061748175275213
-0.2246382340225228
-0.2061748175275213
-0.1938658731975296
-0.16309351237253633
0.17540245670252808
-0.0707764298975011
-0.35388214948756097
-0.2246382340225228
-0.18771140103251985
-0.14463009587750708
-0.0707764298975011
-0.02769512474251612
0.02769512474251612
-0.02769512474251612
-0.08308537422752059
-0.10770326288750408
-0.1261666793825056
-0.1384756237125251
-0.15693904020752658
-0.14463009587750708
-0.009231708247514623
-0.033849596907498114
0.02769512474251612
0.05231301340249961
0.02769512474251612
-0.009231708247514623
-0.04615854123751762
-0.1200122072175236
-0.15078456804251686
-0.23694717835254234
-0.2800284835075273
-0.36619109381755277
-0.6677602299025863
-0.14463009587750708
-0.058467485567509365
-0.06462195773251911
-0.07693090206251085
-0.1200122072175236
-0.13232115154751534
-0.1015487907225221
-0.07693090206251085
-0.06462195773251911
-0.06462195773251911
-0.04000406907250786
-0.009231708247514623
-0.08923984639250258
-0.07693090206251085
-0.07693090206251085
-0.13232115154751534
-0.11385773505251384
-0.06462195773251911
-0.15693904020752658
-0.08923984639250258
-0.1384756237125251
-0.14463009587750708
-0.11385773505251384
-0.1261666793825056
-0.1261666793825056
-0.10770326288750408
-0.09539431855751236
-0.04615854123751762
-0.13232115154751534
-0.1692479845375183
-0.15078456804251686
-0.1261666793825056
-0.08923984639250258
-0.08923984639250258
-0.09539431855751236
0.15078456804251686
0.5631342030975872
-0.10770326288750408
-0.06462195773251911
-0.06462195773251911
-0.07693090206251085
-0.1261666793825056
-0.15078456804251686
-0.1938658731975296
-0.5569797309325776
-0.45850817629256013
-0.32310978866254003
-0.2246382340225228
-0.18155692886753785
-0.1938658731975296
-0.18155692886753785
-0.08923984639250258
-0.11385773505251384
-0.0707764298975011
-0.058467485567509365
-0.06462195773251911
-0.07693090206251085
0.1200122072175236
0.4400447597975588
-0.15693904020752658
-0.46466264845757
-0.32310978866254003
-0.2246382340225228
-0.1692479845375183
-0.14463009587750708
-0.1261666793825056
-0.1200122072175236
-0.06462195773251911
-0.1261666793825056
-0.1692479845375183
-0.17540245670252808
-0.1938658731975296
-0.21232928969253104
-0.2246382340225228
-0.21232928969253104
-0.15078456804251686
-0.2061748175275213
-0.14463009587750708
-0.23079270618753256
-0.2431016505175243
-0.2184837618575408
-0.2061748175275213
-0.2061748175275213
-0.15693904020752658
-0.21232928969253104
-0.2184837618575408
-0.2061748175275213
-0.2061748175275213
-0.17540245670252808
-0.17540245670252808
-0.1692479845375183
-0.11385773505251384
-0.1384756237125251
-0.14463009587750708
-0.15078456804251686
-0.16309351237253633
-0.17540245670252808
-0.18771140103251985
-0.18771140103251985
-0.11385773505251384
-0.2061748175275213
-0.2246382340225228
-0.2000203453625393
-0.2000203453625393
-0.2000203453625393
-0.2184837618575408
-0.23079270618753256
-0.17540245670252808
-0.26771953917753555
-0.2800284835075273
-0.24925612268253405
-0.2061748175275213
-0.2184837618575408
-0.2246382340225228
-0.21232928969253104
-0.11385773505251384
-0.18155692886753785
-0.2000203453625393
-0.17540245670252808
-0.16309351237253633
-0.24925612268253405
-0.5569797309325776
-0.003077236082504875
0.08308537422752059
-0.10770326288750408
-0.11385773505251384
-0.1261666793825056
-0.16309351237253633
-0.14463009587750708
-0.14463009587750708
-0.1384756237125251
-0.07693090206251085
-0.15078456804251686
-0.16309351237253633
-0.14463009587750708
-0.15078456804251686
-0.18155692886753785
-0.14463009587750708
-0.16309351237253633
-0.13232115154751534
-0.2000203453625393
-0.21232928969253104
-0.2061748175275213
-0.1938658731975296
-0.1938658731975296
-0.18155692886753785
-0.17540245670252808
-0.1015487907225221
-0.1692479845375183
-0.18771140103251985
-0.18155692886753785
-0.18155692886753785
-0.15078456804251686
-0.13232115154751534
-0.15693904020752658
-0.1015487907225221
-0.15693904020752658
-0.18771140103251985
-0.2061748175275213
-0.17540245670252808
-0.1692479845375183
-0.1938658731975296
-0.2184837618575408
-0.16309351237253633
-0.2061748175275213
-0.2061748175275213
-0.2061748175275213
-0.1938658731975296
-0.2000203453625393
-0.1938658731975296
-0.18771140103251985
-0.1200122072175236
-0.17540245670252808
-0.17540245670252808
-0.18155692886753785
-0.1692479845375183
-0.18771140103251985
-0.18155692886753785
-0.1692479845375183
0.09539431855751236
0.3846545103125543
-0.15693904020752658
-0.15078456804251686
-0.18155692886753785
-0.1692479845375183
-0.1261666793825056
-0.13232115154751534
-0.23079270618753256
-0.575443147427579
-0.42158134330255725
-0.31695531649755804
-0.26771953917753555
-0.2431016505175243
-0.21232928969253104
-0.2184837618575408
-0.17540245670252808
-0.2431016505175243
-0.21232928969253104
-0.2061748175275213
-0.2246382340225228
-0.18771140103251985
-0.1938658731975296
-0.1938658731975296
-0.10770326288750408
-0.21232928969253104
-0.26771953917753555
-0.26771953917753555
-0.26771953917753555
-0.28618295567253704
-0.26771953917753555
-0.26156506701252585
-0.2000203453625393
-0.2554105948475438
-0.26771953917753555
-0.2554105948475438
-0.2554105948475438
-0.2061748175275213
-0.1692479845375183
-0.15078456804251686
-0.08308537422752059
-0.18155692886753785
-0.18155692886753785
-0.1938658731975296
-0.2246382340225228
-0.2800284835075273
-0.29233742783754685
-0.2738740113425453
-0.04615854123751762
0.23079270618753256
0.1261666793825056
0.08923984639250258
0.0707764298975011
-0.009231708247514623
-0.1261666793825056
-0.2246382340225228
-0.2738740113425453
-0.42158134330255725
-0.42158134330255725
-0.37850003814754446
-0.2984919000025288
-0.2554105948475438
-0.2554105948475438
-0.37850003814754446
-0.8585488670176111
-0.26156506701252585
-0.1261666793825056
-0.17540245670252808
-0.1384756237125251
-0.1015487907225221
-0.08923984639250258
-0.08923984639250258
-0.0707764298975011
-0.15693904020752658
-0.18771140103251985
-0.2184837618575408
-0.23079270618753256
-0.24925612268253405
-0.18155692886753785
-0.06462195773251911
-0.08308537422752059
-0.17540245670252808
-0.17540245670252808
-0.16309351237253633
-0.15693904020752658
-0.16309351237253633
-0.18771140103251985
-0.18155692886753785
-0.1261666793825056
-0.2000203453625393
-0.1938658731975296
-0.1938658731975296
-0.21232928969253104
-0.24925612268253405
-0.2431016505175243
-0.26156506701252585
-0.18155692886753785
-0.2738740113425453
-0.28618295567253704
-0.2800284835075273
-0.2738740113425453
-0.26156506701252585
-0.24925612268253405
-0.24925612268253405
-0.21232928969253104
-0.2800284835075273
-0.26771953917753555
-0.24925612268253405
-0.1938658731975296
-0.0707764298975011
-0.09539431855751236
-0.10770326288750408
-0.058467485567509365
-0.1261666793825056
-0.08923984639250258
-0.08308537422752059
-0.14463009587750708
-0.17540245670252808
-0.18771140103251985
-0.2431016505175243
-0.26156506701252585
-0.3354187329925596
-0.11385773505251384
0.2554105948475438
-0.31695531649755804
-0.2000203453625393
-0.17540245670252808
-0.18155692886753785
-0.2738740113425453
-0.6185244525825918
-0.4708171206225797
-0.3846545103125543
-0.360036621652543
-0.3415732051575415
-0.32310978866254003
-0.31695531649755804
-0.2554105948475438
-0.3415732051575415
-0.2800284835075273
-0.26156506701252585
-0.24925612268253405
-0.23079270618753256
-0.23079270618753256
-0.2554105948475438
-0.1938658731975296
-0.2738740113425453
-0.26771953917753555
-0.2431016505175243
-0.23694717835254234
-0.2554105948475438
-0.2246382340225228
-0.2000203453625393
-0.18771140103251985
-0.23694717835254234
-0.21232928969253104
-0.18771140103251985
-0.2000203453625393
-0.16309351237253633
-0.18771140103251985
-0.2246382340225228
-0.1938658731975296
-0.26156506701252585
-0.24925612268253405
-0.2246382340225228
-0.2431016505175243
-0.24925612268253405
-0.2184837618575408
-0.23694717835254234
-0.10770326288750408
0.1692479845375183
0.058467485567509365
-0.058467485567509365
-0.09539431855751236
-0.10770326288750408
-0.1200122072175236
-0.11385773505251384
0.2000203453625393
-0.08923984639250258
-0.15693904020752658
0.18155692886753785
-0.003077236082504875
-0.02769512474251612
-0.04000406907250786
-0.18155692886753785
-0.7108415350575992
-0.889321227842632
-0.5815976195925888
-0.4154268711375475
-0.3292642608275498
-0.26771953917753555
-0.23079270618753256
-0.21232928969253104
-0.15078456804251686
-0.23694717835254234
-0.2246382340225228
-0.2184837618575408
-0.21232928969253104
-0.2246382340225228
-0.1384756237125251
-0.033849596907498114
-0.08308537422752059
-0.17540245670252808
-0.17540245670252808
-0.16309351237253633
-0.16309351237253633
-0.17540245670252808
-0.18155692886753785
-0.15078456804251686
-0.0707764298975011
-0.18771140103251985
-0.2000203453625393
-0.18155692886753785
-0.18771140103251985
-0.1692479845375183
-0.16309351237253633
-0.17540245670252808
-0.15078456804251686
-0.2431016505175243
-0.2246382340225228
-0.21232928969253104
-0.1938658731975296
-0.1692479845375183
-0.15693904020752658
-0.14463009587750708
-0.0707764298975011
-0.15078456804251686
-0.15693904020752658
-0.15078456804251686
-0.1015487907225221
0.0707764298975011
-0.033849596907498114
-0.0707764298975011
-0.04615854123751762
-0.1384756237125251
-0.15693904020752658
-0.15078456804251686
-0.1384756237125251
-0.1384756237125251
-0.14463009587750708
-0.2738740113425453
-0.4708171206225797
0.04000406907250786
-0.0707764298975011
-0.1200122072175236
0.16309351237253633
0.6123699804175821
-0.1015487907225221
-0.07693090206251085
-0.21232928969253104
-0.5323618422725662
-0.3846545103125543
-0.30464637216753854
-0.24925612268253405
-0.23079270618753256
-0.2246382340225228
-0.2061748175275213
-0.1384756237125251
-0.2184837618575408
-0.23079270618753256
-0.427735815467567
-0.40927239897256545
-0.2984919000025288
-0.26156506701252585
-0.26771953917753555
-0.23079270618753256
-0.31695531649755804
-0.28618295567253704
-0.29233742783754685
-0.28618295567253704
-0.24925612268253405
-0.2554105948475438
-0.26156506701252585
-0.1938658731975296
-0.23079270618753256
-0.13232115154751534
-0.1261666793825056
-0.1384756237125251
-0.15078456804251686
-0.17540245670252808
-0.16309351237253633
-0.13232115154751534
-0.26156506701252585
-0.30464637216753854
-0.2800284835075273
-0.2061748175275213
-0.1015487907225221
-0.01538618041249662
0.02154065257750637
0.1200122072175236
0.033849596907498114
-0.08308537422752059
-0.15693904020752658
-0.2431016505175243
-0.30464637216753854
-0.3108008443325483
-0.3108008443325483
-0.2246382340225228
-0.2738740113425453
-0.2554105948475438
-0.23079270618753256
-0.1938658731975296
-0.15693904020752658
-0.11385773505251384
-0.058467485567509365
0.009231708247514623
-0.058467485567509365
-0.06462195773251911
-0.1384756237125251
-0.4708171206225797
0.02769512474251612
-0.003077236082504875
-0.1384756237125251
-0.1200122072175236
-0.21232928969253104
-0.21232928969253104
-0.1938658731975296
-0.17540245670252808
-0.18155692886753785
-0.14463009587750708
-0.06462195773251911
-0.01538618041249662
-0.13232115154751534
-0.15078456804251686
-0.15078456804251686
-0.15078456804251686
-0.1261666793825056
-0.15078456804251686
-0.16309351237253633
-0.08308537422752059
-0.1692479845375183
-0.17540245670252808
-0.1692479845375183
-0.1692479845375183
-0.1938658731975296
-0.2061748175275213
-0.26771953917753555
-0.18155692886753785
-0.2431016505175243
-0.2061748175275213
-0.2061748175275213
-0.2184837618575408
-0.21232928969253104
-0.2000203453625393
-0.16309351237253633
-0.1692479845375183
-0.23694717835254234
-0.2000203453625393
-0.1938658731975296
-0.10770326288750408
0.29233742783754685
0.29233742783754685
0.1200122072175236
0.08308537422752059
-0.02769512474251612
-0.058467485567509365
-0.09539431855751236
-0.1384756237125251
-0.2061748175275213
-0.2184837618575408
-0.1938658731975296
-0.16309351237253633
-0.2184837618575408
-0.18155692886753785
-0.17540245670252808
-0.5200528979425745
-0.5323618422725662
-0.15078456804251686
0.1938658731975296
-0.4154268711375475
-0.6616057577376044
-0.4892805371175811
-0.4400447597975588
-0.390808982477564
-0.32310978866254003
-0.2800284835075273
-0.2738740113425453
-0.2061748175275213
-0.26771953917753555
-0.2246382340225228
-0.15693904020752658
-0.1692479845375183
-0.1938658731975296
-0.21232928969253104
-0.2061748175275213
-0.16309351237253633
-0.23079270618753256
-0.2246382340225228
-0.2000203453625393
-0.18155692886753785
-0.18771140103251985
-0.18771140103251985
-0.1692479845375183
-0.1261666793825056
-0.17540245670252808
-0.11385773505251384
-0.18771140103251985
-0.18155692886753785
-0.16309351237253633
-0.17540245670252808
-0.18155692886753785
-0.1200122072175236
-0.21232928969253104
-0.2061748175275213
-0.2000203453625393
-0.18771140103251985
-0.16309351237253633
-0.18771140103251985
-0.18771140103251985
-0.1200122072175236
-0.21232928969253104
-0.2184837618575408
-0.21232928969253104
-0.2000203453625393
-0.18155692886753785
-0.18771140103251985
-0.18155692886753785
-0.13232115154751534
-0.2246382340225228
-0.21232928969253104
-0.18155692886753785
-0.1692479845375183
-0.18155692886753785
-0.1938658731975296
-0.14463009587750708
0.009231708247514623
-0.0707764298975011
-0.1261666793825056
-0.13232115154751534
-0.14463009587750708
-0.2184837618575408
-0.5323618422725662
-0.04615854123751762
0.04615854123751762
-0.1384756237125251
-0.14463009587750708
-0.15078456804251686
-0.15693904020752658
-0.15693904020752658
-0.1692479845375183
-0.18771140103251985
-0.1938658731975296
-0.2554105948475438
-0.2246382340225228
-0.23694717835254234
-0.23694717835254234
-0.2184837618575408
-0.2061748175275213
-0.1938658731975296
-0.16309351237253633
-0.2738740113425453
-0.24925612268253405
-0.24925612268253405
-0.2554105948475438
-0.2431016505175243
-0.21232928969253104
-0.1938658731975296
-0.15078456804251686
-0.23694717835254234
-0.2246382340225228
-0.2061748175275213
-0.2061748175275213
-0.1938658731975296
-0.2061748175275213
-0.18771140103251985
-0.13232115154751534
-0.2061748175275213
-0.18771140103251985
-0.21232928969253104
-0.21232928969253104
-0.21232928969253104
-0.23694717835254234
-0.21232928969253104
-0.16309351237253633
-0.29233742783754685
-0.26771953917753555
-0.2431016505175243
-0.23079270618753256
-0.21232928969253104
-0.21232928969253104
-0.1938658731975296
-0.14463009587750708
-0.2246382340225228
-0.2061748175275213
-0.2061748175275213
-0.1384756237125251
-0.1200122072175236
-0.1692479845375183
-0.15693904020752658
0.1015487907225221
0.4523537041275505
-0.1938658731975296
-0.1261666793825056
-0.13232115154751534
-0.1261666793825056
-0.14463009587750708
-0.2000203453625393
0.02769512474251612
-0.7785407288726233
-0.2184837618575408
-0.003077236082504875
-0.1200122072175236
-0.15693904020752658
-0.15078456804251686
-0.15693904020752658
-0.40311792680755576
-0.6431423412426028
-0.46466264845757
-0.37850003814754446
-0.31695531649755804
-0.2738740113425453
-0.2431016505175243
-0.24925612268253405
-0.21232928969253104
-0.30464637216753854
-0.28618295567253704
-0.28618295567253704
-0.23079270618753256
-0.2000203453625393
-0.2246382340225228
-0.24925612268253405
-0.2000203453625393
-0.32310978866254003
-0.31695531649755804
-0.3292642608275498
-0.3108008443325483
-0.2554105948475438
-0.1938658731975296
-0.1200122072175236
-0.06462195773251911
-0.09539431855751236
-0.10770326288750408
-0.18771140103251985
-0.28618295567253704
-0.36619109381755277
-0.4400447597975588
-0.44619923196256844
-0.40311792680755576
-0.46466264845757
-0.4154268711375475
-0.35388214948756097
-0.3108008443325483
-0.29233742783754685
-0.24925612268253405
-0.2246382340225228
-0.23694717835254234
-0.3723455659825625
-0.30464637216753854
-0.2738740113425453
-0.2738740113425453
-0.26156506701252585
-0.2738740113425453
-0.2554105948475438
-0.2246382340225228
-0.2984919000025288
-0.26156506701252585
-0.24925612268253405
-0.2431016505175243
-0.21232928969253104
-0.2246382340225228
-0.35388214948756097
-0.30464637216753854
0.09539431855751236
-0.07693090206251085
-0.1384756237125251
-0.1692479845375183
-0.18155692886753785
-0.1938658731975296
-0.18771140103251985
-0.11385773505251384
-0.2000203453625393
-0.18771140103251985
-0.16309351237253633
-0.13232115154751534
-0.1200122072175236
-0.07693090206251085
-0.08923984639250258
-0.0707764298975011
-0.13232115154751534
-0.07693090206251085
-0.04000406907250786
-0.02154065257750637
-0.009231708247514623
0.003077236082504875
0.04615854123751762
0.07693090206251085
-0.009231708247514623
0.003077236082504875
-0.003077236082504875
-0.009231708247514623
-0.003077236082504875
-0.04615854123751762
0.009231708247514623
0.05231301340249961
-0.003077236082504875
-0.02154065257750637
-0.06462195773251911
-0.09539431855751236
-0.15078456804251686
-0.2000203453625393
-0.2184837618575408
-0.18155692886753785
-0.30464637216753854
-0.29233742783754685
-0.2554105948475438
-0.10770326288750408
-0.1384756237125251
-0.1938658731975296
-0.14463009587750708
-0.14463009587750708
-0.26156506701252585
-0.058467485567509365
0.3723455659825625
-0.3108008443325483
-0.2800284835075273
-0.26771953917753555
-0.26771953917753555
-0.46466264845757
-0.6492968134075848
-0.46466264845757
-0.37850003814754446
-0.31695531649755804
-0.3108008443325483
-0.30464637216753854
-0.26771953917753555
-0.23694717835254234
-0.3415732051575415
-0.2984919000025288
-0.2800284835075273
-0.26771953917753555
-0.26771953917753555
-0.2431016505175243
-0.21232928969253104
-0.1938658731975296
-0.2800284835075273
-0.2431016505175243
-0.23694717835254234
-0.2554105948475438
-0.2738740113425453
-0.2800284835075273
-0.2738740113425453
-0.26771953917753555
-0.37850003814754446
-0.360036621652543
-0.3354187329925596
-0.36619109381755277
-0.40311792680755576
-0.396963454642546
-0.390808982477564
-0.360036621652543
-0.42158134330255725
-0.45850817629256013
-0.46466264845757
-0.45850817629256013
-0.44619923196256844
-0.433890287632549
-0.37850003814754446
-0.3292642608275498
-0.433890287632549
-0.4523537041275505
-0.45850817629256013
-0.4708171206225797
-0.4708171206225797
-0.4892805371175811
-0.5015894814475731
-0.37850003814754446
-0.31695531649755804
-0.40311792680755576
-0.46466264845757
-0.4892805371175811
-0.49543500928256323
-0.4831260649525715
-0.4400447597975588
-0.396963454642546
-0.4892805371175811
-0.7539228402126119
-0.21232928969253104
-0.18771140103251985
-0.2984919000025288
-0.3415732051575415
-0.35388214948756097
-0.5077439536125827
-0.5077439536125827
-0.396963454642546
-0.34772767732255133
-0.35388214948756097
-0.34772767732255133
-0.34772767732255133
-0.32310978866254003
-0.28618295567253704
-0.3846545103125543
-0.3723455659825625
-0.3354187329925596
-0.29233742783754685
-0.18771140103251985
-0.058467485567509365
-0.06462195773251911
-0.07693090206251085
-0.21232928969253104
-0.16309351237253633
-0.1261666793825056
-0.2061748175275213
-0.23694717835254234
-0.24925612268253405
-0.2984919000025288
-0.2431016505175243
-0.2738740113425453
-0.2984919000025288
-0.2800284835075273
-0.26156506701252585
-0.24925612268253405
-0.23694717835254234
-0.2000203453625393
-0.1384756237125251
-0.1200122072175236
-0.1200122072175236
-0.1200122072175236
-0.05231301340249961
-0.06462195773251911
-0.1015487907225221
-0.0707764298975011
-0.1015487907225221
-0.24925612268253405
-0.23079270618753256
-0.24925612268253405
-0.2061748175275213
-0.15078456804251686
-0.15078456804251686
-0.1015487907225221
-0.02769512474251612
-0.08923984639250258
-0.06462195773251911
-0.05231301340249961
0.1938658731975296
0.5138984257775646
-0.01538618041249662
0.04000406907250786
-0.2184837618575408
-0.3846545103125543
-0.23079270618753256
-0.07693090206251085
0.1692479845375183
0.04615854123751762
-0.01538618041249662
0.009231708247514623
0.05231301340249961
-0.02769512474251612
-0.05231301340249961
-0.11385773505251384
-0.15693904020752658
-0.2061748175275213
-0.2246382340225228
-0.18155692886753785
-0.14463009587750708
-0.23694717835254234
-0.28618295567253704
-0.40311792680755576
-0.31695531649755804
-0.24925612268253405
-0.23079270618753256
-0.18155692886753785
-0.11385773505251384
-0.1384756237125251
-0.16309351237253633
-0.17540245670252808
-0.1692479845375183
-0.15693904020752658
-0.18155692886753785
-0.2000203453625393
-0.2000203453625393
-0.1261666793825056
-0.003077236082504875
-0.04000406907250786
-0.02154065257750637
-0.0707764298975011
-0.1200122072175236
-0.16309351237253633
-0.26771953917753555
-0.40311792680755576
-0.433890287632549
-0.4523537041275505
-0.433890287632549
-0.390808982477564
-0.32310978866254003
-0.2800284835075273
-0.18155692886753785
-0.17540245670252808
-0.18155692886753785
-0.16309351237253633
-0.15078456804251686
-0.16309351237253633
-0.15693904020752658
-0.13232115154751534
-0.09539431855751236
-0.2184837618575408
-0.2061748175275213
-0.26156506701252585
-0.5631342030975872
-0.058467485567509365
-0.009231708247514623
-0.1384756237125251
-0.3415732051575415
-0.3354187329925596
-0.26771953917753555
-0.21232928969253104
-0.18155692886753785
-0.18155692886753785
-0.14463009587750708
-0.10770326288750408
-0.09539431855751236
-0.1692479845375183
-0.15693904020752658
-0.14463009587750708
-0.1200122072175236
-0.11385773505251384
-0.1200122072175236
-0.05231301340249961
0.47697159278756174
-0.04615854123751762
-0.058467485567509365
-0.09539431855751236
-0.13232115154751534
-0.15078456804251686
-0.18155692886753785
-0.2000203453625393
-0.45850817629256013
-0.5877520917575707
-0.40927239897256545
-0.3415732051575415
-0.30464637216753854
-0.26156506701252585
-0.26771953917753555
-0.23079270618753256
-0.18771140103251985
-0.26156506701252585
-0.23694717835254234
-0.1938658731975296
-0.1938658731975296
-0.1938658731975296
-0.1938658731975296
-0.1692479845375183
-0.1200122072175236
-0.2184837618575408
-0.2061748175275213
-0.23694717835254234
-0.1938658731975296
-0.1384756237125251
-0.13232115154751534
-0.1200122072175236
-0.09539431855751236
-0.18771140103251985
-0.1692479845375183
-0.14463009587750708
-0.15078456804251686
-0.2061748175275213
-0.05231301340249961
0.2800284835075273
-0.5200528979425745
-0.575443147427579
-0.42158134330255725
-0.32310978866254003
-0.29233742783754685
-0.360036621652543
-0.26771953917753555
-0.26771953917753555
-0.2738740113425453
-0.3292642608275498
-0.3108008443325483
-0.2800284835075273
-0.26771953917753555
-0.26771953917753555
-0.2554105948475438
-0.1938658731975296
-0.15693904020752658
-0.2431016505175243
-0.1938658731975296
-0.21232928969253104
-0.26771953917753555
-0.23694717835254234
-0.21232928969253104
-0.2246382340225228
-0.2184837618575408
-0.2554105948475438
-0.26156506701252585
-0.2800284835075273
-0.2800284835075273
-0.29233742783754685
-0.2800284835075273
-0.24925612268253405
-0.2431016505175243
-0.29233742783754685
-0.26156506701252585
-0.24925612268253405
-0.2431016505175243
-0.24925612268253405
-0.24925612268253405
-0.2184837618575408
-0.1692479845375183
-0.26156506701252585
-0.21232928969253104
-0.21232928969253104
-0.2061748175275213
-0.21232928969253104
-0.2061748175275213
-0.2000203453625393
-0.14463009587750708
-0.21232928969253104
-0.2000203453625393
-0.2061748175275213
-0.23079270618753256
-0.2061748175275213
-0.2000203453625393
-0.16309351237253633
-0.13232115154751534
-0.2246382340225228
-0.1938658731975296
-0.18771140103251985
-0.18771140103251985
-0.24925612268253405
-0.5631342030975872
-0.04000406907250786
0.01538618041249662
-0.15078456804251686
