-0.1692479845375183
-0.1692479845375183
-0.2431016505175243
-0.2246382340225228
-0.23694717835254234
-0.26156506701252585
-0.26771953917753555
-0.26771953917753555
-0.2738740113425453
-0.29233742783754685
-0.5138984257775646
-0.5877520917575707
-0.44619923196256844
-0.390808982477564
-0.3723455659825625
-0.15078456804251686
0.32310978866254003
-0.5939065639225805
-0.6492968134075848
-0.4708171206225797
-0.396963454642546
-0.36619109381755277
-0.360036621652543
-0.35388214948756097
-0.3292642608275498
-0.29233742783754685
-0.44619923196256844
-0.390808982477564
-0.36619109381755277
-0.3415732051575415
-0.3415732051575415
-0.3415732051575415
-0.3292642608275498
-0.2984919000025288
-0.3415732051575415
-0.3354187329925596
-0.3292642608275498
-0.31695531649755804
-0.3108008443325483
-0.32310978866254003
-0.1938658731975296
-0.14463009587750708
-0.2431016505175243
-0.23079270618753256
-0.2431016505175243
-0.29233742783754685
-0.32310978866254003
-0.36619109381755277
-0.34772767732255133
-0.3108008443325483
-0.3415732051575415
-0.30464637216753854
-0.2800284835075273
-0.2984919000025288
-0.30464637216753854
-0.3108008443325483
-0.2984919000025288
-0.2431016505175243
-0.3108008443325483
-0.28618295567253704
-0.3108008443325483
-0.31695531649755804
-0.32310978866254003
-0.3292642608275498
-0.3108008443325483
-0.29233742783754685
-0.32310978866254003
-0.28618295567253704
-0.2800284835075273
-0.2800284835075273
-0.360036621652543
-0.4154268711375475
-0.3354187329925596
-0.2984919000025288
-0.3415732051575415
-0.34772767732255133
-0.360036621652543
-0.3723455659825625
-0.4154268711375475
-0.7108415350575992
-0.17540245670252808
-0.14463009587750708
-0.29233742783754685
-0.32310978866254003
-0.3292642608275498
-0.18771140103251985
-0.17540245670252808
-0.2554105948475438
-0.2431016505175243
-0.2554105948475438
-0.29233742783754685
-0.28618295567253704
-0.2800284835075273
-0.29233742783754685
-0.29233742783754685
-0.31695531649755804
-0.2984919000025288
-0.2800284835075273
-0.3108008443325483
-0.29233742783754685
-0.23694717835254234
-0.31695531649755804
-0.28618295567253704
-0.23694717835254234
-0.2431016505175243
-0.2738740113425453
-0.3108008443325483
-0.2800284835075273
-0.2738740113425453
-0.2800284835075273
-0.2738740113425453
-0.2800284835075273
-0.2738740113425453
-0.29233742783754685
-0.3354187329925596
-0.30464637216753854
-0.30464637216753854
-0.3108008443325483
-0.30464637216753854
-0.28618295567253704
-0.29233742783754685
-0.29233742783754685
-0.32310978866254003
-0.31695531649755804
-0.28618295567253704
-0.29233742783754685
-0.2800284835075273
-0.2800284835075273
-0.29233742783754685
-0.2984919000025288
-0.2246382340225228
-0.23079270618753256
-0.24925612268253405
-0.26156506701252585
-0.2554105948475438
-0.2554105948475438
-0.08308537422752059
0.5815976195925888
-0.003077236082504875
-0.45850817629256013
-0.2431016505175243
-0.2184837618575408
-0.2246382340225228
-0.2246382340225228
-0.2246382340225228
-0.5877520917575707
-0.5631342030975872
-0.3723455659825625
-0.2984919000025288
-0.29233742783754685
-0.2800284835075273
-0.2738740113425453
-0.2554105948475438
-0.26156506701252585
-0.23079270618753256
-0.26156506701252585
-0.26771953917753555
-0.29233742783754685
-0.32310978866254003
-0.31695531649755804
-0.2431016505175243
-0.2554105948475438
-0.26156506701252585
-0.26156506701252585
-0.2431016505175243
-0.2431016505175243
-0.23694717835254234
-0.2431016505175243
-0.2184837618575408
-0.26156506701252585
-0.2431016505175243
-0.23079270618753256
-0.23694717835254234
-0.2246382340225228
-0.23079270618753256
-0.28618295567253704
-0.24925612268253405
-0.2431016505175243
-0.2738740113425453
-0.24925612268253405
-0.24925612268253405
-0.26156506701252585
-0.2554105948475438
-0.2738740113425453
-0.26156506701252585
-0.30464637216753854
-0.2984919000025288
-0.2800284835075273
-0.29233742783754685
-0.26771953917753555
-0.2184837618575408
-0.2554105948475438
0.07693090206251085
-0.18155692886753785
-0.4831260649525715
-0.34772767732255133
-0.2984919000025288
-0.30464637216753854
-0.28618295567253704
-0.2554105948475438
-0.2984919000025288
-0.6616057577376044
-0.1200122072175236
-0.08923984639250258
-0.18155692886753785
-0.18155692886753785
-0.26156506701252585
-0.2738740113425453
-0.2184837618575408
-0.2800284835075273
-0.28618295567253704
-0.2738740113425453
-0.29233742783754685
-0.26156506701252585
-0.26156506701252585
-0.28618295567253704
-0.2554105948475438
-0.31695531649755804
-0.2984919000025288
-0.2800284835075273
-0.34772767732255133
-0.3846545103125543
-0.3108008443325483
-0.2984919000025288
-0.26156506701252585
-0.29233742783754685
-0.30464637216753854
-0.30464637216753854
-0.29233742783754685
-0.2738740113425453
-0.26156506701252585
-0.2800284835075273
-0.23079270618753256
-0.29233742783754685
-0.24925612268253405
-0.15078456804251686
-0.2246382340225228
-0.23694717835254234
-0.26771953917753555
-0.26156506701252585
-0.2246382340225228
-0.28618295567253704
-0.2738740113425453
-0.26771953917753555
-0.26156506701252585
-0.24925612268253405
-0.2246382340225228
-0.24925612268253405
-0.2431016505175243
-0.28618295567253704
-0.24925612268253405
-0.30464637216753854
-0.28618295567253704
-0.2738740113425453
-0.2738740113425453
-0.2800284835075273
-0.2000203453625393
-0.26771953917753555
-0.26156506701252585
-0.058467485567509365
0.2800284835075273
-0.2000203453625393
-0.15078456804251686
-0.17540245670252808
-0.28618295567253704
-0.6000610360875902
-0.45850817629256013
-0.35388214948756097
-0.31695531649755804
-0.2984919000025288
-0.2800284835075273
-0.28618295567253704
-0.24925612268253405
-0.28618295567253704
-0.2800284835075273
-0.26156506701252585
-0.2184837618575408
-0.23079270618753256
-0.23694717835254234
-0.21232928969253104
-0.16309351237253633
-0.35388214948756097
-0.3354187329925596
-0.3354187329925596
-0.3108008443325483
-0.29233742783754685
-0.2800284835075273
-0.26156506701252585
-0.23694717835254234
-0.31695531649755804
-0.28618295567253704
-0.26771953917753555
-0.26771953917753555
-0.26771953917753555
-0.2554105948475438
-0.26771953917753555
-0.26771953917753555
-0.3292642608275498
-0.30464637216753854
-0.29233742783754685
-0.28618295567253704
-0.2738740113425453
-0.2554105948475438
-0.2000203453625393
-0.1015487907225221
-0.18771140103251985
-0.1938658731975296
-0.18771140103251985
-0.2246382340225228
-0.2431016505175243
-0.14463009587750708
-0.1938658731975296
-0.2000203453625393
-0.28618295567253704
-0.28618295567253704
-0.2800284835075273
-0.2738740113425453
-0.2738740113425453
-0.29233742783754685
-0.2800284835075273
-0.23079270618753256
-0.30464637216753854
-0.37850003814754446
-0.6985325907276074
-0.1200122072175236
-0.07693090206251085
-0.18155692886753785
-0.18771140103251985
-0.18155692886753785
-0.24925612268253405
-0.23079270618753256
-0.23079270618753256
-0.23079270618753256
-0.23694717835254234
-0.2184837618575408
-0.1938658731975296
-0.1692479845375183
-0.23694717835254234
-0.23694717835254234
-0.23694717835254234
-0.2431016505175243
-0.2738740113425453
-0.28618295567253704
-0.2431016505175243
-0.21232928969253104
-0.30464637216753854
-0.26771953917753555
-0.24925612268253405
-0.23079270618753256
-0.23079270618753256
-0.2431016505175243
-0.21232928969253104
-0.18771140103251985
-0.2800284835075273
-0.2184837618575408
-0.2184837618575408
-0.26771953917753555
-0.2800284835075273
-0.2738740113425453
-0.2984919000025288
-0.26771953917753555
-0.3108008443325483
-0.3108008443325483
-0.29233742783754685
-0.28618295567253704
-0.26156506701252585
-0.29233742783754685
-0.26771953917753555
-0.2184837618575408
-0.2246382340225228
-0.15693904020752658
-0.2184837618575408
-0.21232928969253104
-0.2184837618575408
-0.23079270618753256
-0.1938658731975296
-0.16309351237253633
-0.2184837618575408
-0.2000203453625393
-0.1938658731975296
-0.1938658731975296
0.009231708247514623
0.36619109381755277
-0.14463009587750708
-0.3354187329925596
-0.5262073701075842
-0.36619109381755277
-0.32310978866254003
-0.29233742783754685
-0.2800284835075273
-0.2800284835075273
-0.26771953917753555
-0.23694717835254234
-0.28618295567253704
-0.2738740113425453
-0.2738740113425453
-0.2738740113425453
-0.2738740113425453
-0.26771953917753555
-0.1692479845375183
0.05231301340249961
-0.15693904020752658
-0.2000203453625393
-0.2184837618575408
-0.2554105948475438
-0.26156506701252585
-0.2431016505175243
-0.2184837618575408
-0.1938658731975296
-0.2246382340225228
-0.18771140103251985
-0.18155692886753785
-0.18155692886753785
-0.18771140103251985
-0.26156506701252585
-0.40311792680755576
-0.2800284835075273
-0.2800284835075273
-0.24925612268253405
-0.2246382340225228
-0.2061748175275213
-0.2061748175275213
-0.1938658731975296
-0.1692479845375183
-0.16309351237253633
-0.21232928969253104
-0.2184837618575408
-0.2431016505175243
-0.2554105948475438
-0.23694717835254234
-0.31695531649755804
-0.3292642608275498
-0.31695531649755804
-0.3723455659825625
-0.3846545103125543
-0.396963454642546
-0.390808982477564
-0.390808982477564
-0.3846545103125543
-0.3846545103125543
-0.360036621652543
-0.2984919000025288
-0.26771953917753555
-0.29233742783754685
-0.40311792680755576
-0.7785407288726233
-0.1938658731975296
-0.1200122072175236
-0.21232928969253104
-0.26156506701252585
-0.26156506701252585
-0.26771953917753555
-0.28618295567253704
-0.31695531649755804
-0.32310978866254003
-0.24925612268253405
0.3415732051575415
-0.26771953917753555
-0.28618295567253704
-0.24925612268253405
-0.32310978866254003
-0.28618295567253704
-0.2554105948475438
-0.2738740113425453
-0.5692886752625692
-0.575443147427579
-0.4154268711375475
-0.31695531649755804
-0.26771953917753555
-0.2431016505175243
-0.2184837618575408
-0.18771140103251985
-0.18155692886753785
-0.17540245670252808
-0.04615854123751762
-0.003077236082504875
-0.058467485567509365
-0.08308537422752059
-0.09539431855751236
-0.06462195773251911
-0.06462195773251911
-0.1015487907225221
-0.05231301340249961
-0.02769512474251612
-0.033849596907498114
-0.04000406907250786
-0.033849596907498114
-0.02154065257750637
-0.05231301340249961
-0.1015487907225221
-0.08923984639250258
-0.1261666793825056
-0.11385773505251384
-0.1015487907225221
-0.08308537422752059
-0.07693090206251085
-0.08923984639250258
-0.14463009587750708
-0.15078456804251686
-0.13232115154751534
-0.15078456804251686
-0.14463009587750708
-0.17540245670252808
-0.009231708247514623
0.32310978866254003
-0.13232115154751534
-0.08308537422752059
-0.1015487907225221
-0.1200122072175236
-0.1200122072175236
-0.15078456804251686
-0.2061748175275213
-0.5446707866025856
-0.5138984257775646
-0.3846545103125543
-0.34772767732255133
-0.2984919000025288
-0.28618295567253704
-0.3108008443325483
-0.2061748175275213
-0.2061748175275213
-0.2246382340225228
-0.18155692886753785
-0.18155692886753785
-0.2000203453625393
-0.18155692886753785
-0.15078456804251686
-0.15078456804251686
-0.17540245670252808
-0.2061748175275213
-0.2000203453625393
-0.18771140103251985
-0.2246382340225228
-0.21232928969253104
-0.14463009587750708
-0.1015487907225221
-0.1261666793825056
-0.13232115154751534
-0.1200122072175236
-0.15693904020752658
-0.1938658731975296
-0.17540245670252808
-0.18155692886753785
-0.16309351237253633
-0.1692479845375183
-0.15078456804251686
-0.1200122072175236
-0.1200122072175236
-0.1015487907225221
-0.09539431855751236
-0.1938658731975296
-0.15693904020752658
-0.15693904020752658
-0.1692479845375183
-0.1938658731975296
-0.2184837618575408
-0.24925612268253405
-0.2800284835075273
-0.2984919000025288
-0.28618295567253704
-0.2984919000025288
-0.2554105948475438
-0.21232928969253104
-0.2061748175275213
-0.2000203453625393
-0.1938658731975296
-0.30464637216753854
-0.6677602299025863
-0.1938658731975296
-0.1384756237125251
-0.2554105948475438
-0.2800284835075273
-0.26771953917753555
-0.26771953917753555
-0.26771953917753555
-0.26771953917753555
-0.2984919000025288
-0.3108008443325483
-0.30464637216753854
-0.2554105948475438
-0.23079270618753256
-0.23694717835254234
-0.23079270618753256
0.1015487907225221
-0.15693904020752658
-0.427735815467567
-0.28618295567253704
-0.26771953917753555
-0.26771953917753555
-0.26771953917753555
-0.26156506701252585
-0.2431016505175243
-0.28618295567253704
-0.2554105948475438
-0.2061748175275213
-0.30464637216753854
-0.3108008443325483
-0.2984919000025288
-0.28618295567253704
-0.2431016505175243
-0.26771953917753555
-0.26156506701252585
-0.2431016505175243
-0.2431016505175243
-0.2431016505175243
-0.23694717835254234
-0.24925612268253405
-0.23694717835254234
-0.31695531649755804
-0.28618295567253704
-0.26771953917753555
-0.28618295567253704
-0.2800284835075273
-0.2554105948475438
-0.28618295567253704
-0.2554105948475438
-0.2184837618575408
-0.2000203453625393
-0.2184837618575408
-0.2246382340225228
-0.23079270618753256
-0.23694717835254234
-0.2800284835075273
-0.2431016505175243
-0.2431016505175243
-0.02769512474251612
0.44619923196256844
-0.18155692886753785
-0.1015487907225221
-0.09539431855751236
-0.11385773505251384
-0.2184837618575408
-0.5815976195925888
-0.427735815467567
-0.3108008443325483
-0.26771953917753555
-0.24925612268253405
-0.21232928969253104
-0.18155692886753785
-0.08308537422752059
-0.1200122072175236
-0.14463009587750708
-0.13232115154751534
-0.1384756237125251
-0.15078456804251686
-0.16309351237253633
-0.17540245670252808
-0.14463009587750708
-0.23694717835254234
-0.23079270618753256
-0.21232928969253104
-0.23079270618753256
-0.2554105948475438
-0.23694717835254234
-0.2184837618575408
-0.2246382340225228
-0.2431016505175243
-0.2184837618575408
-0.2246382340225228
-0.2184837618575408
-0.2061748175275213
-0.2184837618575408
-0.21232928969253104
-0.15078456804251686
-0.21232928969253104
-0.2061748175275213
-0.17540245670252808
-0.2184837618575408
-0.2184837618575408
-0.21232928969253104
-0.1938658731975296
-0.1384756237125251
-0.2184837618575408
-0.2246382340225228
-0.17540245670252808
-0.14463009587750708
-0.15078456804251686
-0.15078456804251686
-0.15078456804251686
-0.15693904020752658
-0.23079270618753256
-0.2000203453625393
-0.1938658731975296
-0.15693904020752658
-0.08923984639250258
-0.1384756237125251
-0.10770326288750408
-0.06462195773251911
-0.23079270618753256
-0.5692886752625692
-0.04000406907250786
-0.02769512474251612
-0.14463009587750708
-0.1692479845375183
-0.16309351237253633
-0.1692479845375183
-0.24925612268253405
-0.24925612268253405
-0.21232928969253104
-0.18155692886753785
-0.26771953917753555
-0.2184837618575408
-0.2000203453625393
-0.1384756237125251
-0.18155692886753785
-0.1692479845375183
-0.1692479845375183
-0.15693904020752658
-0.15693904020752658
-0.15693904020752658
-0.16309351237253633
-0.13232115154751534
-0.23079270618753256
-0.2061748175275213
-0.09539431855751236
-0.15693904020752658
-0.2061748175275213
-0.2246382340225228
-0.23694717835254234
-0.2431016505175243
-0.3354187329925596
-0.3292642608275498
-0.2984919000025288
-0.2800284835075273
-0.29233742783754685
-0.29233742783754685
-0.26156506701252585
-0.17540245670252808
-0.28618295567253704
-0.2738740113425453
-0.26156506701252585
-0.24925612268253405
-0.2431016505175243
-0.23079270618753256
-0.2061748175275213
-0.16309351237253633
-0.2431016505175243
-0.2246382340225228
-0.24925612268253405
-0.2738740113425453
-0.3108008443325483
-0.30464637216753854
-0.28618295567253704
-0.2554105948475438
-0.2800284835075273
-0.30464637216753854
-0.26156506701252585
-0.06462195773251911
0.2554105948475438
-0.23079270618753256
-0.17540245670252808
-0.40311792680755576
-0.5815976195925888
-0.37850003814754446
-0.31695531649755804
-0.2984919000025288
-0.30464637216753854
-0.30464637216753854
-0.2431016505175243
0.0707764298975011
-0.04000406907250786
-0.1384756237125251
-0.1384756237125251
-0.1692479845375183
-0.1938658731975296
-0.2000203453625393
-0.15078456804251686
-0.14463009587750708
-0.2246382340225228
-0.2000203453625393
-0.23079270618753256
-0.24925612268253405
-0.26156506701252585
-0.30464637216753854
-0.5569797309325776
-0.01538618041249662
-0.6616057577376044
-0.1384756237125251
-0.033849596907498114
-0.13232115154751534
-0.15078456804251686
-0.15693904020752658
-0.17540245670252808
-0.4154268711375475
-0.5692886752625692
-0.390808982477564
-0.32310978866254003
-0.29233742783754685
-0.2554105948475438
-0.1938658731975296
-0.18771140103251985
-0.16309351237253633
-0.2000203453625393
-0.18155692886753785
-0.17540245670252808
-0.17540245670252808
-0.2000203453625393
-0.23079270618753256
-0.2246382340225228
-0.2184837618575408
-0.26156506701252585
-0.2554105948475438
-0.2738740113425453
-0.23079270618753256
-0.009231708247514623
-0.06462195773251911
-0.1261666793825056
-0.1261666793825056
-0.16309351237253633
-0.1261666793825056
-0.1200122072175236
-0.1200122072175236
-0.14463009587750708
-0.1692479845375183
-0.21232928969253104
-0.2184837618575408
-0.26771953917753555
-0.2554105948475438
-0.23694717835254234
-0.35388214948756097
-0.3108008443325483
-0.23079270618753256
-0.18155692886753785
-0.2000203453625393
-0.2431016505175243
-0.23694717835254234
-0.26156506701252585
-0.29233742783754685
-0.28618295567253704
-0.26771953917753555
-0.2431016505175243
-0.21232928969253104
-0.2554105948475438
-0.2246382340225228
-0.2000203453625393
-0.2431016505175243
-0.2554105948475438
-0.26156506701252585
-0.5569797309325776
-0.35388214948756097
-0.01538618041249662
-0.14463009587750708
-0.18771140103251985
-0.2000203453625393
-0.1938658731975296
-0.2246382340225228
-0.23079270618753256
-0.23079270618753256
-0.23694717835254234
-0.05231301340249961
-0.1261666793825056
-0.18155692886753785
-0.2061748175275213
-0.1938658731975296
-0.2061748175275213
-0.1938658731975296
-0.21232928969253104
-0.2061748175275213
-0.1938658731975296
-0.15693904020752658
-0.16309351237253633
-0.18771140103251985
-0.18155692886753785
-0.16309351237253633
-0.2061748175275213
-0.2000203453625393
-0.21232928969253104
-0.26156506701252585
-0.2554105948475438
-0.033849596907498114
0.29233742783754685
-0.5262073701075842
-0.5015894814475731
-0.360036621652543
-0.24925612268253405
-0.2431016505175243
-0.24925612268253405
-0.24925612268253405
-0.2431016505175243
-0.29233742783754685
-0.3108008443325483
-0.26771953917753555
-0.2246382340225228
-0.2000203453625393
-0.1692479845375183
-0.15693904020752658
-0.15693904020752658
-0.15078456804251686
-0.18155692886753785
-0.18155692886753785
-0.2000203453625393
-0.21232928969253104
-0.23079270618753256
-0.2184837618575408
-0.23079270618753256
-0.2184837618575408
-0.2246382340225228
-0.21232928969253104
-0.2184837618575408
-0.18771140103251985
-0.18771140103251985
-0.18155692886753785
-0.1692479845375183
-0.17540245670252808
-0.18771140103251985
-0.18771140103251985
-0.2184837618575408
-0.2431016505175243
-0.1938658731975296
-0.1938658731975296
-0.1938658731975296
-0.1938658731975296
-0.23079270618753256
-0.18155692886753785
-0.18155692886753785
-0.1938658731975296
-0.21232928969253104
-0.21232928969253104
-0.18771140103251985
-0.2000203453625393
-0.23079270618753256
-0.2184837618575408
-0.2246382340225228
-0.21232928969253104
-0.2061748175275213
-0.18771140103251985
-0.15693904020752658
-0.18155692886753785
-0.21232928969253104
-0.2061748175275213
-0.17540245670252808
-0.18771140103251985
-0.2800284835075273
-0.6246789247476013
-0.08308537422752059
-0.058467485567509365
-0.16309351237253633
-0.2000203453625393
-0.15693904020752658
-0.04000406907250786
-0.1015487907225221
-0.15693904020752658
-0.1692479845375183
-0.17540245670252808
-0.1938658731975296
-0.1938658731975296
-0.2061748175275213
-0.2184837618575408
-0.23079270618753256
-0.2184837618575408
-0.21232928969253104
-0.2554105948475438
-0.2554105948475438
-0.2738740113425453
-0.3354187329925596
-0.28618295567253704
-0.24925612268253405
-0.2184837618575408
-0.18771140103251985
-0.2184837618575408
-0.2184837618575408
-0.21232928969253104
-0.2184837618575408
-0.2184837618575408
-0.1938658731975296
-0.18155692886753785
-0.1938658731975296
-0.23079270618753256
-0.17540245670252808
-0.09539431855751236
-0.13232115154751534
-0.16309351237253633
-0.18771140103251985
-0.18771140103251985
0.1261666793825056
-0.15078456804251686
-0.37850003814754446
-0.23694717835254234
-0.2246382340225228
-0.21232928969253104
-0.21232928969253104
-0.2061748175275213
-0.16309351237253633
-0.2738740113425453
-0.40927239897256545
-0.3108008443325483
-0.26156506701252585
-0.23079270618753256
-0.2246382340225228
-0.23694717835254234
-0.1692479845375183
0.003077236082504875
0.3415732051575415
-0.14463009587750708
-0.058467485567509365
-0.08923984639250258
-0.1200122072175236
-0.1384756237125251
-0.08923984639250258
-0.2246382340225228
-0.23694717835254234
-0.2061748175275213
-0.2000203453625393
-0.1938658731975296
-0.1692479845375183
-0.16309351237253633
-0.10770326288750408
-0.18155692886753785
-0.2061748175275213
-0.2184837618575408
-0.18771140103251985
-0.18771140103251985
-0.2061748175275213
-0.13232115154751534
0.058467485567509365
-0.0707764298975011
-0.14463009587750708
-0.15693904020752658
-0.16309351237253633
-0.16309351237253633
-0.14463009587750708
-0.14463009587750708
-0.09539431855751236
-0.15693904020752658
-0.1384756237125251
-0.15078456804251686
-0.15693904020752658
-0.17540245670252808
-0.31695531649755804
-0.5446707866025856
-0.34772767732255133
-0.3354187329925596
-0.2800284835075273
-0.23694717835254234
-0.2431016505175243
-0.2246382340225228
-0.2061748175275213
-0.21232928969253104
-0.15078456804251686
-0.21232928969253104
-0.1692479845375183
-0.17540245670252808
-0.17540245670252808
-0.16309351237253633
-0.17540245670252808
-0.2000203453625393
-0.2000203453625393
-0.23694717835254234
-0.23079270618753256
-0.21232928969253104
-0.18771140103251985
-0.17540245670252808
-0.17540245670252808
-0.16309351237253633
-0.18771140103251985
-0.6062155082525723
-0.0707764298975011
-0.009231708247514623
-0.10770326288750408
-0.23079270618753256
-0.1938658731975296
-0.16309351237253633
-0.13232115154751534
-0.18771140103251985
-0.18771140103251985
-0.16309351237253633
-0.15078456804251686
-0.1200122072175236
-0.08308537422752059
-0.07693090206251085
-0.04615854123751762
-0.13232115154751534
-0.15078456804251686
-0.02769512474251612
-0.10770326288750408
-0.13232115154751534
-0.1261666793825056
-0.1384756237125251
-0.10770326288750408
-0.18771140103251985
-0.18771140103251985
-0.2061748175275213
-0.2061748175275213
-0.18771140103251985
-0.16309351237253633
-0.1384756237125251
-0.1261666793825056
-0.18155692886753785
-0.04615854123751762
-0.08308537422752059
-0.11385773505251384
-0.10770326288750408
-0.10770326288750408
-0.10770326288750408
0.2431016505175243
0.1261666793825056
-0.06462195773251911
-0.08308537422752059
-0.08923984639250258
-0.08308537422752059
-0.08308537422752059
-0.08923984639250258
-0.24925612268253405
-0.46466264845757
-0.32310978866254003
-0.23079270618753256
-0.21232928969253104
-0.1938658731975296
-0.18155692886753785
-0.15693904020752658
-0.1200122072175236
-0.18155692886753785
-0.17540245670252808
0.01538618041249662
0.37850003814754446
-0.13232115154751534
-0.08308537422752059
-0.08308537422752059
-0.26771953917753555
-0.5262073701075842
-0.3354187329925596
-0.26156506701252585
-0.2246382340225228
-0.21232928969253104
-0.21232928969253104
-0.18771140103251985
-0.1200122072175236
-0.16309351237253633
-0.15693904020752658
-0.15078456804251686
-0.1384756237125251
-0.14463009587750708
-0.16309351237253633
-0.07693090206251085
-0.1261666793825056
-0.18771140103251985
-0.2000203453625393
-0.1938658731975296
-0.17540245670252808
-0.1692479845375183
-0.15693904020752658
-0.15078456804251686
-0.1384756237125251
-0.2184837618575408
-0.2061748175275213
-0.21232928969253104
-0.2246382340225228
-0.2184837618575408
-0.23694717835254234
-0.2184837618575408
-0.1384756237125251
-0.2184837618575408
-0.2000203453625393
-0.1938658731975296
-0.2061748175275213
-0.1938658731975296
-0.18155692886753785
-0.1938658731975296
-0.18771140103251985
-0.2246382340225228
-0.18771140103251985
-0.2000203453625393
-0.17540245670252808
-0.07693090206251085
-0.15693904020752658
-0.13232115154751534
-0.1200122072175236
-0.1938658731975296
-0.18771140103251985
-0.18771140103251985
-0.18771140103251985
-0.2000203453625393
-0.1938658731975296
-0.15693904020752658
-0.1261666793825056
-0.18155692886753785
-0.2800284835075273
-0.6000610360875902
-0.08923984639250258
-0.033849596907498114
-0.1200122072175236
-0.10770326288750408
-0.08923984639250258
-0.15693904020752658
-0.1261666793825056
-0.1015487907225221
-0.1200122072175236
-0.1200122072175236
-0.15078456804251686
-0.1200122072175236
-0.08308537422752059
-0.1692479845375183
-0.16309351237253633
-0.1261666793825056
-0.1384756237125251
-0.1261666793825056
-0.15078456804251686
-0.1692479845375183
-0.1384756237125251
-0.2061748175275213
-0.21232928969253104
-0.1938658731975296
-0.2061748175275213
-0.2246382340225228
-0.23079270618753256
-0.21232928969253104
-0.2000203453625393
-0.23694717835254234
-0.2000203453625393
-0.29233742783754685
-0.2554105948475438
-0.23079270618753256
-0.23694717835254234
-0.23694717835254234
-0.2184837618575408
-0.24925612268253405
-0.23694717835254234
-0.2554105948475438
-0.24925612268253405
-0.23079270618753256
-0.24925612268253405
-0.26156506701252585
-0.26156506701252585
-0.2554105948475438
-0.2431016505175243
-0.24925612268253405
-0.26156506701252585
-0.26156506701252585
-0.2554105948475438
-0.2431016505175243
-0.2184837618575408
-0.2554105948475438
-0.2431016505175243
-0.23079270618753256
-0.23079270618753256
-0.04000406907250786
0.31695531649755804
-0.21232928969253104
-0.47697159278756174
-0.6431423412426028
-0.4523537041275505
-0.36619109381755277
-0.35388214948756097
-0.34772767732255133
-0.3415732051575415
-0.32310978866254003
-0.31695531649755804
-0.3354187329925596
-0.3354187329925596
-0.32310978866254003
-0.3292642608275498
-0.3292642608275498
-0.2984919000025288
-0.21232928969253104
-0.2184837618575408
-0.30464637216753854
-0.2738740113425453
-0.2984919000025288
-0.29233742783754685
-0.2800284835075273
-0.2800284835075273
-0.26771953917753555
-0.2554105948475438
-0.28618295567253704
-0.29233742783754685
-0.26156506701252585
-0.2554105948475438
-0.26156506701252585
-0.29233742783754685
-0.29233742783754685
-0.23694717835254234
-0.29233742783754685
-0.2800284835075273
-0.2800284835075273
-0.26771953917753555
-0.29233742783754685
-0.2984919000025288
-0.2554105948475438
-0.24925612268253405
-0.28618295567253704
-0.28618295567253704
-0.2800284835075273
-0.29233742783754685
-0.2984919000025288
-0.28618295567253704
-0.23079270618753256
-0.23079270618753256
-0.2431016505175243
-0.2184837618575408
-0.2431016505175243
-0.26771953917753555
-0.26156506701252585
-0.2738740113425453
-0.26771953917753555
-0.26771953917753555
-0.3108008443325483
-0.29233742783754685
-0.26156506701252585
-0.36619109381755277
-0.7416138958825924
-0.15693904020752658
-0.08923984639250258
-0.18155692886753785
-0.23079270618753256
-0.24925612268253405
-0.2554105948475438
-0.24925612268253405
-0.2984919000025288
-0.3108008443325483
-0.2800284835075273
-0.2554105948475438
-0.2738740113425453
-0.2246382340225228
-0.10770326288750408
-0.1200122072175236
-0.1692479845375183
-0.2061748175275213
-0.23079270618753256
-0.2800284835075273
-0.28618295567253704
-0.29233742783754685
-0.2984919000025288
-0.2800284835075273
-0.30464637216753854
-0.29233742783754685
-0.26771953917753555
-0.31695531649755804
-0.32310978866254003
-0.30464637216753854
-0.36619109381755277
-0.3108008443325483
-0.26771953917753555
-0.23694717835254234
-0.21232928969253104
-0.2184837618575408
-0.2246382340225228
-0.2431016505175243
-0.24925612268253405
-0.2800284835075273
-0.2984919000025288
-0.28618295567253704
-0.26156506701252585
-0.2738740113425453
-0.2431016505175243
-0.2738740113425453
-0.24925612268253405
-0.2554105948475438
-0.2554105948475438
-0.26771953917753555
-0.26771953917753555
-0.2800284835075273
-0.2738740113425453
-0.24925612268253405
-0.26771953917753555
-0.26771953917753555
-0.2554105948475438
-0.2738740113425453
-0.08923984639250258
0.26156506701252585
-0.18155692886753785
-0.1692479845375183
-0.1938658731975296
-0.2000203453625393
-0.23079270618753256
-0.2554105948475438
-0.28618295567253704
-0.6246789247476013
-0.5323618422725662
-0.4154268711375475
-0.360036621652543
-0.3292642608275498
-0.3108008443325483
-0.2800284835075273
0.04615854123751762
-0.2184837618575408
-0.4892805371175811
-0.32310978866254003
-0.26156506701252585
-0.23694717835254234
-0.2184837618575408
-0.2000203453625393
-0.17540245670252808
-0.23694717835254234
-0.2246382340225228
-0.23694717835254234
-0.23694717835254234
-0.2984919000025288
-0.2061748175275213
-0.05231301340249961
-0.0707764298975011
-0.18155692886753785
-0.2061748175275213
-0.18771140103251985
-0.1692479845375183
-0.18771140103251985
-0.2246382340225228
-0.23079270618753256
-0.17540245670252808
-0.2184837618575408
-0.2246382340225228
-0.2554105948475438
-0.26156506701252585
-0.2738740113425453
-0.40311792680755576
-0.3723455659825625
-0.2738740113425453
-0.3108008443325483
-0.29233742783754685
-0.2738740113425453
-0.2800284835075273
-0.2800284835075273
-0.28618295567253704
-0.2800284835075273
0.01538618041249662
-0.04000406907250786
-0.427735815467567
0.04615854123751762
-0.09539431855751236
-0.10770326288750408
-0.1692479845375183
-0.18155692886753785
-0.2800284835075273
-0.6123699804175821
-0.4400447597975588
-0.34772767732255133
-0.32310978866254003
-0.32310978866254003
-0.30464637216753854
-0.2738740113425453
-0.23694717835254234
-0.30464637216753854
-0.2800284835075273
-0.23694717835254234
-0.23079270618753256
-0.26156506701252585
-0.26771953917753555
-0.26771953917753555
-0.2061748175275213
-0.28618295567253704
-0.2554105948475438
-0.26156506701252585
-0.26771953917753555
-0.26156506701252585
-0.24925612268253405
-0.26771953917753555
-0.23694717835254234
-0.32310978866254003
-0.26156506701252585
-0.29233742783754685
-0.32310978866254003
-0.29233742783754685
-0.29233742783754685
-0.26156506701252585
-0.21232928969253104
-0.26771953917753555
-0.2554105948475438
-0.2554105948475438
-0.26156506701252585
-0.26156506701252585
-0.24925612268253405
-0.2554105948475438
-0.2000203453625393
-0.2246382340225228
-0.2061748175275213
-0.2431016505175243
-0.24925612268253405
-0.23694717835254234
-0.21232928969253104
-0.2246382340225228
-0.2000203453625393
-0.23694717835254234
-0.2246382340225228
-0.2246382340225228
-0.2061748175275213
-0.2061748175275213
-0.2061748175275213
-0.3415732051575415
-0.5508252587675677
0.02769512474251612
0.1692479845375183
0.5323618422725662
-0.15078456804251686
-0.10770326288750408
-0.10770326288750408
-0.13232115154751534
-0.29233742783754685
-0.5877520917575707
-0.42158134330255725
-0.34772767732255133
-0.29233742783754685
-0.26156506701252585
-0.26771953917753555
-0.26156506701252585
-0.2800284835075273
-0.34772767732255133
-0.28618295567253704
-0.2738740113425453
-0.24925612268253405
-0.23694717835254234
-0.2554105948475438
-0.2431016505175243
-0.17540245670252808
-0.2800284835075273
-0.2431016505175243
-0.2184837618575408
-0.2246382340225228
-0.24925612268253405
-0.17540245670252808
0.003077236082504875
-0.04615854123751762
-0.18155692886753785
-0.18155692886753785
-0.2061748175275213
-0.23079270618753256
-0.23694717835254234
-0.2554105948475438
-0.23694717835254234
-0.1938658731975296
-0.28618295567253704
-0.26156506701252585
-0.28618295567253704
-0.28618295567253704
-0.1938658731975296
-0.05231301340249961
-0.1261666793825056
-0.15693904020752658
-0.23694717835254234
-0.2184837618575408
-0.1938658731975296
-0.2000203453625393
-0.18155692886753785
-0.15693904020752658
-0.1384756237125251
-0.1015487907225221
-0.21232928969253104
-0.23079270618753256
-0.23079270618753256
-0.396963454642546
-0.6800691742326058
-0.4708171206225797
-0.3354187329925596
-0.2800284835075273
-0.40927239897256545
-0.7108415350575992
-0.17540245670252808
-0.13232115154751534
-0.23079270618753256
-0.2246382340225228
-0.23079270618753256
-0.23694717835254234
-0.30464637216753854
-0.31695531649755804
-0.28618295567253704
-0.2000203453625393
-0.23694717835254234
-0.23079270618753256
-0.17540245670252808
-0.10770326288750408
-0.16309351237253633
-0.1384756237125251
-0.15693904020752658
-0.1938658731975296
-0.2246382340225228
-0.2431016505175243
-0.2554105948475438
-0.2554105948475438
-0.3354187329925596
-0.3292642608275498
-0.34772767732255133
-0.3354187329925596
-0.3292642608275498
-0.30464637216753854
-0.2800284835075273
-0.26771953917753555
-0.2984919000025288
-0.26156506701252585
-0.2554105948475438
-0.2554105948475438
-0.2431016505175243
-0.24925612268253405
-0.24925612268253405
-0.24925612268253405
-0.30464637216753854
-0.2984919000025288
-0.28618295567253704
-0.2738740113425453
-0.29233742783754685
-0.28618295567253704
-0.26771953917753555
-0.24925612268253405
-0.3108008443325483
-0.2984919000025288
-0.29233742783754685
-0.29233742783754685
-0.29233742783754685
-0.28618295567253704
-0.26156506701252585
-0.01538618041249662
0.17540245670252808
-0.009231708247514623
-0.0707764298975011
0.1200122072175236
0.42158134330255725
-0.09539431855751236
-0.058467485567509365
-0.360036621652543
-0.4523537041275505
-0.2738740113425453
-0.2184837618575408
-0.18771140103251985
-0.16309351237253633
-0.18155692886753785
-0.3292642608275498
-0.5262073701075842
-0.390808982477564
-0.2800284835075273
-0.2554105948475438
-0.2431016505175243
-0.18771140103251985
-0.17540245670252808
-0.18155692886753785
-0.1692479845375183
-0.1938658731975296
-0.1692479845375183
-0.15693904020752658
-0.17540245670252808
-0.18155692886753785
-0.08923984639250258
-0.15693904020752658
-0.1692479845375183
-0.18771140103251985
-0.17540245670252808
-0.17540245670252808
-0.18155692886753785
-0.18771140103251985
-0.18771140103251985
-0.18155692886753785
-0.18155692886753785
-0.2246382340225228
-0.21232928969253104
-0.2000203453625393
-0.2061748175275213
-0.2184837618575408
-0.21232928969253104
-0.23694717835254234
-0.24925612268253405
-0.30464637216753854
-0.28618295567253704
-0.29233742783754685
-0.3108008443325483
-0.29233742783754685
-0.2738740113425453
-0.26771953917753555
-0.26771953917753555
-0.29233742783754685
-0.28618295567253704
-0.3108008443325483
-0.23079270618753256
-0.2184837618575408
-0.2431016505175243
-0.23079270618753256
-0.2554105948475438
-0.2554105948475438
-0.2246382340225228
-0.3108008443325483
-0.6492968134075848
-0.10770326288750408
-0.058467485567509365
-0.15078456804251686
-0.18155692886753785
-0.2246382340225228
-0.2184837618575408
-0.23694717835254234
-0.2554105948475438
-0.24925612268253405
-0.24925612268253405
-0.23079270618753256
-0.2184837618575408
-0.2554105948475438
-0.26156506701252585
-0.26771953917753555
-0.26771953917753555
-0.24925612268253405
-0.2800284835075273
-0.2554105948475438
-0.2554105948475438
-0.3108008443325483
-0.26771953917753555
-0.34772767732255133
-0.3354187329925596
-0.30464637216753854
-0.2800284835075273
-0.24925612268253405
-0.2554105948475438
-0.2984919000025288
-0.2800284835075273
-0.2800284835075273
-0.2800284835075273
-0.2738740113425453
-0.26156506701252585
-0.21232928969253104
-0.23694717835254234
-0.2554105948475438
-0.2061748175275213
-0.2184837618575408
-0.21232928969253104
-0.2184837618575408
-0.2246382340225228
-0.1938658731975296
-0.2061748175275213
-0.2184837618575408
-0.23079270618753256
-0.2184837618575408
-0.21232928969253104
-0.1938658731975296
-0.21232928969253104
-0.2184837618575408
-0.23694717835254234
-0.2246382340225228
-0.23079270618753256
-0.2246382340225228
-0.2184837618575408
-0.2184837618575408
-0.02769512474251612
0.2800284835075273
-0.5262073701075842
-0.427735815467567
-0.35388214948756097
-0.3108008443325483
-0.28618295567253704
-0.2738740113425453
-0.26156506701252585
-0.1261666793825056
-0.04615854123751762
-0.6000610360875902
-0.003077236082504875
-0.13232115154751534
-0.2000203453625393
-0.2184837618575408
-0.23079270618753256
-0.26156506701252585
-0.5939065639225805
-0.5262073701075842
-0.427735815467567
-0.36619109381755277
-0.3415732051575415
-0.3354187329925596
-0.2184837618575408
-0.2061748175275213
-0.2800284835075273
-0.26156506701252585
-0.26156506701252585
-0.26156506701252585
-0.2738740113425453
-0.2800284835075273
-0.2800284835075273
-0.26156506701252585
-0.28618295567253704
-0.28618295567253704
-0.2984919000025288
-0.3108008443325483
-0.2984919000025288
-0.2431016505175243
-0.28618295567253704
0.3354187329925596
-0.15078456804251686
-0.6800691742326058
-0.433890287632549
-0.3415732051575415
-0.3415732051575415
-0.3415732051575415
-0.34772767732255133
-0.2984919000025288
-0.32310978866254003
-0.3108008443325483
-0.29233742783754685
-0.2738740113425453
-0.23079270618753256
-0.24925612268253405
-0.2984919000025288
-0.3354187329925596
-0.40927239897256545
-0.427735815467567
-0.4154268711375475
-0.390808982477564
-0.360036621652543
-0.3415732051575415
-0.35388214948756097
-0.31695531649755804
-0.34772767732255133
-0.34772767732255133
-0.31695531649755804
-0.26771953917753555
-0.28618295567253704
-0.26156506701252585
-0.3415732051575415
-0.6369878690775933
-0.15693904020752658
-0.15078456804251686
-0.26156506701252585
-0.2554105948475438
-0.23079270618753256
-0.21232928969253104
-0.2061748175275213
-0.23079270618753256
-0.26156506701252585
-0.2246382340225228
-0.2554105948475438
-0.34772767732255133
-0.32310978866254003
-0.32310978866254003
-0.3292642608275498
-0.28618295567253704
-0.30464637216753854
-0.2984919000025288
-0.30464637216753854
-0.3292642608275498
-0.31695531649755804
-0.29233742783754685
-0.3292642608275498
-0.2800284835075273
-0.2984919000025288
-0.26156506701252585
-0.26156506701252585
-0.24925612268253405
-0.2554105948475438
-0.2431016505175243
-0.26156506701252585
-0.23079270618753256
-0.3292642608275498
-0.3108008443325483
-0.29233742783754685
-0.2984919000025288
-0.30464637216753854
-0.31695531649755804
-0.2984919000025288
-0.23694717835254234
-0.3292642608275498
-0.37850003814754446
-0.32310978866254003
-0.28618295567253704
-0.3108008443325483
-0.30464637216753854
-0.31695531649755804
-0.29233742783754685
-0.1200122072175236
0.360036621652543
-0.31695531649755804
-0.28618295567253704
-0.2800284835075273
-0.2984919000025288
-0.30464637216753854
-0.35388214948756097
-0.6985325907276074
-0.5323618422725662
-0.433890287632549
-0.37850003814754446
-0.34772767732255133
-0.32310978866254003
-0.29233742783754685
-0.26771953917753555
-0.3292642608275498
-0.3108008443325483
-0.32310978866254003
-0.3292642608275498
-0.3292642608275498
-0.3108008443325483
-0.42158134330255725
-0.40311792680755576
-0.360036621652543
-0.3108008443325483
-0.2800284835075273
-0.26771953917753555
-0.2738740113425453
-0.2800284835075273
-0.2738740113425453
-0.2431016505175243
-0.30464637216753854
-0.3108008443325483
-0.31695531649755804
-0.34772767732255133
-0.32310978866254003
-0.16309351237253633
-0.1938658731975296
-0.1938658731975296
-0.28618295567253704
-0.2984919000025288
-0.3108008443325483
-0.3108008443325483
-0.31695531649755804
-0.360036621652543
-0.3723455659825625
-0.35388214948756097
-0.3846545103125543
-0.3723455659825625
-0.3723455659825625
-0.31695531649755804
-0.0707764298975011
-0.18155692886753785
-0.21232928969253104
-0.16309351237253633
-0.2554105948475438
-0.2738740113425453
-0.2738740113425453
-0.24925612268253405
-0.2431016505175243
-0.24925612268253405
-0.2431016505175243
-0.2738740113425453
-0.6800691742326058
-0.14463009587750708
-0.10770326288750408
-0.42158134330255725
-0.44619923196256844
-0.3723455659825625
-0.3108008443325483
-0.2738740113425453
-0.3354187329925596
-0.31695531649755804
-0.29233742783754685
-0.2984919000025288
-0.32310978866254003
-0.32310978866254003
-0.30464637216753854
-0.2800284835075273
-0.360036621652543
-0.3108008443325483
-0.2554105948475438
-0.2738740113425453
-0.2554105948475438
-0.26771953917753555
-0.26156506701252585
-0.21232928969253104
-0.29233742783754685
-0.2800284835075273
-0.2738740113425453
-0.26771953917753555
-0.2800284835075273
-0.2800284835075273
-0.2800284835075273
-0.23694717835254234
-0.3354187329925596
-0.3354187329925596
-0.3415732051575415
-0.35388214948756097
-0.3415732051575415
-0.34772767732255133
-0.34772767732255133
-0.2984919000025288
-0.3846545103125543
-0.36619109381755277
-0.34772767732255133
-0.31695531649755804
-0.3415732051575415
-0.34772767732255133
-0.3415732051575415
-0.26156506701252585
-0.1261666793825056
-0.1938658731975296
-0.2554105948475438
-0.26771953917753555
-0.28618295567253704
-0.29233742783754685
-0.26156506701252585
-0.2554105948475438
-0.30464637216753854
-0.28618295567253704
-0.08308537422752059
0.396963454642546
-0.2984919000025288
-0.23079270618753256
-0.26771953917753555
-0.7293049515526008
-0.8216220340276081
-0.575443147427579
-0.4523537041275505
-0.40311792680755576
-0.3723455659825625
-0.3354187329925596
-0.3108008443325483
-0.2554105948475438
-0.3415732051575415
-0.32310978866254003
-0.30464637216753854
-0.3108008443325483
-0.30464637216753854
-0.2738740113425453
0.009231708247514623
-0.07693090206251085
-0.23694717835254234
-0.2431016505175243
-0.2554105948475438
-0.2554105948475438
-0.24925612268253405
-0.23079270618753256
-0.23694717835254234
-0.2061748175275213
-0.24925612268253405
-0.23694717835254234
-0.24925612268253405
-0.26156506701252585
-0.28618295567253704
-0.5015894814475731
-0.396963454642546
-0.29233742783754685
-0.30464637216753854
-0.2554105948475438
-0.23079270618753256
-0.21232928969253104
-0.2246382340225228
-0.23079270618753256
-0.21232928969253104
-0.21232928969253104
-0.2554105948475438
-0.2246382340225228
-0.24925612268253405
-0.2000203453625393
-0.14463009587750708
-0.18155692886753785
-0.17540245670252808
-0.18155692886753785
-0.21232928969253104
-0.18155692886753785
-0.2000203453625393
-0.23694717835254234
-0.24925612268253405
-0.26156506701252585
-0.2554105948475438
-0.26771953917753555
-0.3108008443325483
-0.3846545103125543
-0.6369878690775933
0.15078456804251686
0.04615854123751762
-0.14463009587750708
-0.1938658731975296
-0.2246382340225228
-0.24925612268253405
-0.2554105948475438
-0.2738740113425453
-0.2800284835075273
-0.2984919000025288
-0.32310978866254003
-0.34772767732255133
-0.360036621652543
-0.4154268711375475
-0.45850817629256013
-0.6308333969125834
-0.4831260649525715
-0.396963454642546
-0.360036621652543
-0.24925612268253405
0.2246382340225228
-0.29233742783754685
-0.24925612268253405
-0.31695531649755804
-0.34772767732255133
-0.34772767732255133
-0.35388214948756097
-0.390808982477564
-0.6923781185625978
-0.6677602299025863
-0.46466264845757
-0.4154268711375475
-0.36619109381755277
-0.34772767732255133
-0.3354187329925596
-0.30464637216753854
-0.28618295567253704
-0.30464637216753854
-0.29233742783754685
-0.2800284835075273
-0.2800284835075273
-0.29233742783754685
-0.32310978866254003
-0.3415732051575415
-0.32310978866254003
-0.360036621652543
-0.3723455659825625
-0.37850003814754446
-0.35388214948756097
-0.32310978866254003
-0.3354187329925596
-0.3108008443325483
-0.3292642608275498
-0.36619109381755277
-0.3723455659825625
-0.3846545103125543
-0.3723455659825625
-0.1938658731975296
0.1261666793825056
-0.3292642608275498
-0.538516314437576
-0.5692886752625692
-0.46466264845757
-0.427735815467567
-0.396963454642546
-0.40927239897256545
-0.40311792680755576
-0.36619109381755277
-0.36619109381755277
-0.396963454642546
-0.36619109381755277
-0.3292642608275498
-0.31695531649755804
-0.30464637216753854
-0.3415732051575415
-0.37850003814754446
-0.3354187329925596
-0.3292642608275498
-0.3108008443325483
-0.32310978866254003
-0.31695531649755804
-0.28618295567253704
-0.2554105948475438
-0.2431016505175243
-0.2554105948475438
-0.2738740113425453
-0.26771953917753555
-0.26156506701252585
-0.23694717835254234
-0.21232928969253104
-0.26156506701252585
-0.2000203453625393
-0.2000203453625393
-0.23694717835254234
-0.2000203453625393
-0.15078456804251686
-0.15078456804251686
-0.1261666793825056
-0.13232115154751534
-0.1200122072175236
-0.14463009587750708
-0.1384756237125251
-0.16309351237253633
-0.18155692886753785
-0.15693904020752658
-0.13232115154751534
-0.13232115154751534
-0.13232115154751534
-0.16309351237253633
-0.15078456804251686
-0.1261666793825056
-0.08923984639250258
-0.1015487907225221
-0.11385773505251384
-0.1015487907225221
-0.11385773505251384
-0.17540245670252808
-0.1692479845375183
-0.18155692886753785
-0.1384756237125251
-0.2554105948475438
-0.6000610360875902
-0.08923984639250258
-0.003077236082504875
-0.1200122072175236
-0.07693090206251085
-0.08308537422752059
-0.08308537422752059
-0.1261666793825056
-0.15693904020752658
-0.1692479845375183
0.15078456804251686
-0.18155692886753785
-0.4831260649525715
-0.3354187329925596
-0.2984919000025288
-0.28618295567253704
-0.2738740113425453
-0.23694717835254234
-0.2000203453625393
-0.24925612268253405
-0.23694717835254234
-0.23694717835254234
-0.2246382340225228
-0.23079270618753256
-0.2246382340225228
-0.2061748175275213
-0.2000203453625393
-0.28618295567253704
-0.26771953917753555
-0.23694717835254234
-0.2184837618575408
-0.21232928969253104
-0.2000203453625393
-0.2000203453625393
-0.18155692886753785
-0.23694717835254234
-0.2431016505175243
-0.28618295567253704
-0.32310978866254003
-0.360036621652543
-0.40311792680755576
-0.46466264845757
-0.44619923196256844
-0.4400447597975588
-0.5508252587675677
-0.575443147427579
-0.5446707866025856
-0.5815976195925888
-0.5877520917575707
-0.5569797309325776
-0.5015894814475731
-0.5446707866025856
-0.5323618422725662
-0.5015894814475731
-0.46466264845757
-0.4400447597975588
-0.4523537041275505
-0.4400447597975588
-0.16309351237253633
0.1692479845375183
-0.4154268711375475
-0.2984919000025288
-0.23694717835254234
-0.1938658731975296
-0.15078456804251686
-0.13232115154751534
-0.21232928969253104
-0.5200528979425745
-0.3292642608275498
-0.2246382340225228
-0.16309351237253633
-0.1261666793825056
-0.09539431855751236
0.04000406907250786
0.15078456804251686
0.02769512474251612
0.04000406907250786
0.02154065257750637
-0.009231708247514623
0.009231708247514623
0.003077236082504875
-0.033849596907498114
-0.04615854123751762
-0.11385773505251384
-0.11385773505251384
-0.15078456804251686
-0.1692479845375183
-0.2000203453625393
-0.23079270618753256
-0.26156506701252585
-0.2184837618575408
-0.28618295567253704
-0.26771953917753555
-0.2800284835075273
-0.31695531649755804
-0.3108008443325483
-0.32310978866254003
-0.3354187329925596
-0.2800284835075273
-0.3354187329925596
-0.3292642608275498
-0.3354187329925596
-0.3292642608275498
-0.2800284835075273
-0.31695531649755804
-0.32310978866254003
-0.2738740113425453
-0.32310978866254003
-0.30464637216753854
-0.2984919000025288
-0.28618295567253704
-0.2554105948475438
-0.26771953917753555
-0.26156506701252585
-0.18771140103251985
-0.2184837618575408
-0.2246382340225228
-0.2431016505175243
-0.23694717835254234
-0.23694717835254234
-0.26771953917753555
-0.3723455659825625
-0.6739147020675963
-0.17540245670252808
-0.10770326288750408
-0.2000203453625393
-0.2000203453625393
-0.2184837618575408
-0.23694717835254234
-0.23694717835254234
-0.2000203453625393
-0.2800284835075273
-0.26156506701252585
-0.26771953917753555
-0.32310978866254003
-0.26771953917753555
-0.2738740113425453
-0.2984919000025288
-0.28618295567253704
-0.360036621652543
-0.3292642608275498
-0.2800284835075273
-0.23694717835254234
-0.23079270618753256
-0.21232928969253104
-0.18155692886753785
-0.1692479845375183
-0.2800284835075273
-0.23079270618753256
-0.2184837618575408
-0.2061748175275213
-0.2246382340225228
-0.23079270618753256
-0.2246382340225228
-0.1938658731975296
-0.2800284835075273
-0.29233742783754685
-0.2984919000025288
-0.29233742783754685
-0.28618295567253704
-0.26771953917753555
-0.24925612268253405
-0.23079270618753256
-0.2800284835075273
-0.2738740113425453
-0.23694717835254234
-0.2431016505175243
-0.2431016505175243
-0.2431016505175243
-0.23694717835254234
-0.2000203453625393
-0.26771953917753555
-0.26156506701252585
-0.24925612268253405
-0.21232928969253104
-0.2061748175275213
-0.2184837618575408
-0.18771140103251985
-0.09539431855751236
-0.2184837618575408
0.009231708247514623
0.34772767732255133
-0.1261666793825056
-0.0707764298975011
-0.10770326288750408
-0.14463009587750708
-0.360036621652543
-0.5631342030975872
-0.3846545103125543
-0.3108008443325483
-0.28618295567253704
-0.2800284835075273
-0.26156506701252585
-0.2246382340225228
-0.1938658731975296
-0.26156506701252585
-0.2431016505175243
-0.2554105948475438
-0.2738740113425453
-0.26156506701252585
-0.26771953917753555
-0.2738740113425453
-0.2431016505175243
-0.32310978866254003
-0.29233742783754685
-0.26771953917753555
-0.2800284835075273
-0.26156506701252585
-0.08923984639250258
-0.1015487907225221
-0.11385773505251384
-0.18155692886753785
-0.1938658731975296
-0.2061748175275213
-0.2431016505175243
-0.2431016505175243
-0.24925612268253405
-0.21232928969253104
0.2246382340225228
-0.5877520917575707
-0.02154065257750637
-0.033849596907498114
-0.18771140103251985
-0.3292642608275498
-0.3723455659825625
-0.29233742783754685
-0.5200528979425745
-0.6185244525825918
-0.4523537041275505
-0.4154268711375475
-0.390808982477564
-0.37850003814754446
-0.36619109381755277
-0.3292642608275498
-0.2984919000025288
-0.3292642608275498
-0.3108008443325483
-0.2800284835075273
-0.033849596907498114
-0.0707764298975011
-0.1692479845375183
-0.2000203453625393
-0.1938658731975296
-0.26156506701252585
-0.2554105948475438
-0.24925612268253405
-0.2431016505175243
-0.23694717835254234
-0.2184837618575408
-0.2061748175275213
-0.2000203453625393
-0.2431016505175243
-0.2554105948475438
-0.47697159278756174
-0.4708171206225797
-0.3723455659825625
-0.3415732051575415
-0.2984919000025288
-0.24925612268253405
-0.34772767732255133
-0.28618295567253704
-0.2800284835075273
-0.26156506701252585
-0.2554105948475438
-0.2554105948475438
-0.23694717835254234
-0.2246382340225228
-0.24925612268253405
-0.23079270618753256
-0.26771953917753555
-0.2184837618575408
-0.18771140103251985
-0.2554105948475438
-0.26771953917753555
-0.21232928969253104
-0.23694717835254234
-0.2184837618575408
-0.21232928969253104
-0.21232928969253104
-0.21232928969253104
-0.23079270618753256
-0.5323618422725662
-0.31695531649755804
0.033849596907498114
-0.1261666793825056
-0.18771140103251985
-0.2184837618575408
-0.2246382340225228
-0.23079270618753256
-0.2184837618575408
-0.2061748175275213
-0.26771953917753555
-0.2554105948475438
-0.24925612268253405
-0.23694717835254234
-0.23694717835254234
-0.24925612268253405
-0.2246382340225228
-0.2184837618575408
-0.31695531649755804
-0.2738740113425453
-0.26771953917753555
-0.0707764298975011
0.26771953917753555
-0.1938658731975296
-0.1938658731975296
-0.5262073701075842
-0.5200528979425745
-0.3846545103125543
-0.32310978866254003
-0.31695531649755804
-0.3108008443325483
-0.2738740113425453
-0.2061748175275213
-0.23694717835254234
-0.28618295567253704
-0.28618295567253704
-0.26156506701252585
-0.2554105948475438
-0.2738740113425453
-0.24925612268253405
-0.23079270618753256
-0.26156506701252585
-0.2800284835075273
-0.26156506701252585
-0.26771953917753555
-0.26771953917753555
-0.26156506701252585
-0.2800284835075273
-0.2554105948475438
-0.23694717835254234
-0.26156506701252585
-0.24925612268253405
-0.26156506701252585
-0.28618295567253704
-0.24925612268253405
-0.24925612268253405
-0.2061748175275213
-0.2061748175275213
-0.2246382340225228
-0.2000203453625393
-0.1938658731975296
-0.18155692886753785
-0.16309351237253633
-0.2184837618575408
-0.2000203453625393
-0.18771140103251985
-0.23079270618753256
-0.23694717835254234
-0.2554105948475438
-0.26771953917753555
-0.24925612268253405
-0.24925612268253405
-0.2246382340225228
-0.26771953917753555
-0.31695531649755804
-0.31695531649755804
-0.32310978866254003
-0.24925612268253405
-0.2738740113425453
-0.3108008443325483
-0.32310978866254003
-0.34772767732255133
-0.36619109381755277
-0.36619109381755277
-0.4523537041275505
-0.7723862567076134
-0.2184837618575408
-0.18155692886753785
-0.28618295567253704
-0.3354187329925596
-0.3723455659825625
-0.3723455659825625
-0.4154268711375475
-0.40927239897256545
-0.37850003814754446
-0.360036621652543
-0.30464637216753854
-0.3292642608275498
-0.29233742783754685
-0.2984919000025288
-0.28618295567253704
-0.2800284835075273
-0.2800284835075273
-0.2738740113425453
-0.23694717835254234
-0.28618295567253704
-0.28618295567253704
-0.28618295567253704
-0.3108008443325483
-0.30464637216753854
-0.26771953917753555
-0.2061748175275213
-0.15693904020752658
-0.15693904020752658
-0.13232115154751534
-0.14463009587750708
-0.1692479845375183
-0.2061748175275213
-0.23694717835254234
-0.2554105948475438
0.033849596907498114
-0.2184837618575408
-0.427735815467567
-0.3292642608275498
-0.31695531649755804
-0.2984919000025288
-0.2738740113425453
-0.30464637216753854
-0.29233742783754685
-0.32310978866254003
-0.32310978866254003
-0.29233742783754685
-0.2431016505175243
-0.26156506701252585
-0.26771953917753555
-0.28618295567253704
-0.16309351237253633
-0.1015487907225221
-0.1692479845375183
-0.18155692886753785
-0.2061748175275213
-0.2061748175275213
-0.2184837618575408
-0.033849596907498114
0.26771953917753555
-0.575443147427579
-0.36619109381755277
-0.2738740113425453
-0.2554105948475438
-0.23694717835254234
-0.24925612268253405
-0.23079270618753256
-0.21232928969253104
-0.24925612268253405
-0.2184837618575408
-0.21232928969253104
-0.2246382340225228
-0.2061748175275213
-0.17540245670252808
-0.2000203453625393
-0.16309351237253633
-0.23694717835254234
-0.2000203453625393
-0.18771140103251985
-0.1938658731975296
-0.23079270618753256
-0.2246382340225228
-0.21232928969253104
-0.17540245670252808
-0.2184837618575408
-0.2000203453625393
-0.18155692886753785
-0.17540245670252808
-0.1938658731975296
-0.2000203453625393
-0.2000203453625393
-0.15693904020752658
-0.2431016505175243
-0.21232928969253104
-0.18155692886753785
-0.1938658731975296
-0.1261666793825056
-0.02769512474251612
-0.1200122072175236
-0.1384756237125251
-0.2246382340225228
-0.2554105948475438
-0.26156506701252585
-0.2554105948475438
-0.26156506701252585
-0.29233742783754685
-0.2984919000025288
-0.26771953917753555
-0.34772767732255133
-0.3354187329925596
-0.35388214948756097
-0.40311792680755576
-0.5631342030975872
-0.45850817629256013
-0.390808982477564
-0.31695531649755804
-0.3846545103125543
-0.3723455659825625
-0.3723455659825625
-0.3846545103125543
-0.37850003814754446
-0.4523537041275505
-0.8154675618626261
-0.2246382340225228
-0.23079270618753256
-0.3354187329925596
-0.30464637216753854
-0.3415732051575415
-0.34772767732255133
-0.3292642608275498
-0.3292642608275498
-0.28618295567253704
-0.32310978866254003
-0.2984919000025288
-0.2984919000025288
-0.2738740113425453
-0.24925612268253405
-0.2246382340225228
-0.2061748175275213
-0.15693904020752658
-0.2246382340225228
-0.18771140103251985
-0.1384756237125251
-0.16309351237253633
-0.1938658731975296
-0.23079270618753256
-0.24925612268253405
-0.2184837618575408
-0.30464637216753854
-0.2800284835075273
-0.34772767732255133
-0.30464637216753854
-0.30464637216753854
-0.31695531649755804
-0.3292642608275498
-0.2984919000025288
-0.40311792680755576
-0.433890287632549
-0.390808982477564
-0.360036621652543
-0.3415732051575415
-0.32310978866254003
-0.29233742783754685
-0.2246382340225228
-0.2738740113425453
-0.26156506701252585
-0.2431016505175243
-0.23694717835254234
-0.23079270618753256
-0.23079270618753256
-0.2246382340225228
0.37850003814754446
0.2984919000025288
-0.09539431855751236
-0.10770326288750408
-0.15078456804251686
-0.2000203453625393
-0.18155692886753785
-0.18155692886753785
-0.37850003814754446
-0.396963454642546
0.2554105948475438
-0.30464637216753854
-0.2184837618575408
-0.24925612268253405
-0.26156506701252585
-0.2984919000025288
-0.6369878690775933
-0.7846952010376053
-0.5262073701075842
-0.390808982477564
-0.3415732051575415
-0.2984919000025288
-0.28618295567253704
-0.2800284835075273
-0.24925612268253405
-0.3292642608275498
-0.32310978866254003
-0.3108008443325483
-0.3354187329925596
-0.32310978866254003
-0.2246382340225228
-0.2554105948475438
-0.2061748175275213
-0.23079270618753256
-0.2431016505175243
-0.23694717835254234
-0.17540245670252808
-0.14463009587750708
-0.13232115154751534
-0.1015487907225221
-0.058467485567509365
-0.1384756237125251
-0.14463009587750708
-0.15693904020752658
-0.1938658731975296
-0.1384756237125251
-0.15078456804251686
-0.1692479845375183
-0.14463009587750708
-0.18771140103251985
-0.18771140103251985
-0.17540245670252808
-0.18771140103251985
-0.21232928969253104
-0.2246382340225228
-0.21232928969253104
-0.1938658731975296
-0.23079270618753256
-0.2246382340225228
-0.2061748175275213
-0.1938658731975296
-0.26771953917753555
-0.2184837618575408
-0.2000203453625393
-0.1692479845375183
-0.23079270618753256
-0.2061748175275213
-0.2184837618575408
-0.21232928969253104
-0.2246382340225228
-0.23694717835254234
-0.26156506701252585
-0.34772767732255133
-0.7477683680476023
-0.21232928969253104
-0.11385773505251384
-0.2061748175275213
-0.2738740113425453
-0.31695531649755804
-0.32310978866254003
-0.3108008443325483
-0.3846545103125543
-0.3846545103125543
-0.3846545103125543
-0.3846545103125543
-0.3723455659825625
-0.3723455659825625
-0.37850003814754446
-0.40311792680755576
-0.47697159278756174
-0.3108008443325483
-0.2800284835075273
-0.35388214948756097
-0.36619109381755277
-0.3723455659825625
-0.3723455659825625
-0.36619109381755277
-0.390808982477564
-0.396963454642546
-0.3846545103125543
-0.3723455659825625
-0.360036621652543
-0.3723455659825625
-0.36619109381755277
-0.36619109381755277
-0.5446707866025856
-0.6123699804175821
-0.538516314437576
-0.47697159278756174
-0.40311792680755576
-0.3354187329925596
-0.28618295567253704
-0.21232928969253104
-0.23694717835254234
-0.2431016505175243
-0.2800284835075273
-0.3108008443325483
-0.32310978866254003
-0.34772767732255133
-0.3415732051575415
-0.2738740113425453
-0.390808982477564
-0.37850003814754446
-0.396963454642546
-0.42158134330255725
-0.42158134330255725
-0.4523537041275505
-0.4708171206225797
-0.4400447597975588
-0.4892805371175811
-0.4523537041275505
-0.23079270618753256
0.2431016505175243
-0.427735815467567
-0.3723455659825625
-0.3846545103125543
-0.6800691742326058
-0.7108415350575992
-0.5508252587675677
-0.4523537041275505
-0.4154268711375475
-0.396963454642546
-0.36619109381755277
-0.3354187329925596
-0.30464637216753854
-0.3292642608275498
-0.2800284835075273
-0.26156506701252585
-0.2738740113425453
-0.2800284835075273
-0.24925612268253405
-0.2184837618575408
-0.2061748175275213
-0.2554105948475438
-0.2061748175275213
-0.1938658731975296
-0.1938658731975296
-0.17540245670252808
-0.18155692886753785
-0.16309351237253633
-0.1938658731975296
-0.21232928969253104
-0.1938658731975296
-0.1938658731975296
-0.2000203453625393
-0.2061748175275213
-0.2061748175275213
-0.1692479845375183
-0.1938658731975296
-0.2246382340225228
-0.2000203453625393
-0.1938658731975296
-0.18771140103251985
-0.16309351237253633
-0.16309351237253633
-0.1384756237125251
-0.1261666793825056
-0.1692479845375183
-0.16309351237253633
-0.1384756237125251
-0.1261666793825056
-0.17540245670252808
-0.16309351237253633
-0.1384756237125251
-0.14463009587750708
-0.17540245670252808
-0.15078456804251686
-0.13232115154751534
-0.1384756237125251
-0.1384756237125251
-0.16309351237253633
-0.14463009587750708
-0.15078456804251686
-0.17540245670252808
-0.24925612268253405
-0.5569797309325776
-0.009231708247514623
0.009231708247514623
-0.1261666793825056
-0.15693904020752658
-0.21232928969253104
-0.23694717835254234
-0.2738740113425453
-0.28618295567253704
-0.30464637216753854
-0.30464637216753854
-0.30464637216753854
-0.26771953917753555
-0.28618295567253704
-0.3354187329925596
-0.3354187329925596
-0.32310978866254003
-0.3108008443325483
-0.3292642608275498
-0.3354187329925596
-0.32310978866254003
-0.34772767732255133
-0.3723455659825625
-0.34772767732255133
-0.3354187329925596
-0.3354187329925596
-0.3354187329925596
-0.3354187329925596
-0.3108008443325483
-0.3354187329925596
-0.36619109381755277
-0.4154268711375475
-0.37850003814754446
-0.3354187329925596
-0.31695531649755804
-0.2984919000025288
-0.28618295567253704
-0.29233742783754685
-0.2738740113425453
-0.2800284835075273
-0.26156506701252585
-0.26771953917753555
-0.26771953917753555
-0.2184837618575408
-0.2184837618575408
-0.14463009587750708
-0.15693904020752658
-0.1938658731975296
-0.2431016505175243
-0.2738740113425453
-0.28618295567253704
-0.2800284835075273
-0.24925612268253405
-0.26771953917753555
-0.2738740113425453
-0.2738740113425453
-0.2738740113425453
-0.26771953917753555
-0.05231301340249961
0.36619109381755277
-0.08923984639250258
-0.575443147427579
-0.6800691742326058
-0.45850817629256013
-0.37850003814754446
-0.3354187329925596
-0.31695531649755804
-0.31695531649755804
-0.2554105948475438
-0.26771953917753555
-0.2431016505175243
-0.23694717835254234
-0.2431016505175243
-0.24925612268253405
-0.26156506701252585
-0.2738740113425453
-0.23694717835254234
-0.2984919000025288
-0.2800284835075273
-0.2554105948475438
-0.24925612268253405
-0.24925612268253405
-0.26771953917753555
-0.2738740113425453
-0.2431016505175243
-0.2800284835075273
-0.2554105948475438
-0.26771953917753555
-0.26771953917753555
-0.2554105948475438
-0.31695531649755804
-0.31695531649755804
-0.24925612268253405
-0.30464637216753854
-0.2800284835075273
-0.2554105948475438
-0.2554105948475438
-0.24925612268253405
-0.26771953917753555
-0.2554105948475438
-0.2246382340225228
-0.29233742783754685
-0.2738740113425453
-0.30464637216753854
-0.2554105948475438
-0.13232115154751534
-0.18155692886753785
-0.21232928969253104
-0.2061748175275213
-0.28618295567253704
-0.2738740113425453
-0.3108008443325483
-0.31695531649755804
-0.32310978866254003
-0.32310978866254003
-0.28618295567253704
-0.23079270618753256
-0.26156506701252585
-0.2246382340225228
-0.1938658731975296
-0.1692479845375183
-0.28618295567253704
-0.6000610360875902
-0.058467485567509365
0.2800284835075273
0.36619109381755277
-0.2061748175275213
-0.16309351237253633
-0.15693904020752658
-0.16309351237253633
-0.16309351237253633
-0.15078456804251686
-0.2554105948475438
-0.6000610360875902
-0.390808982477564
-0.28618295567253704
-0.26771953917753555
-0.24925612268253405
-0.23694717835254234
-0.26156506701252585
-0.23079270618753256
-0.26771953917753555
-0.26771953917753555
-0.2246382340225228
-0.18155692886753785
-0.18155692886753785
-0.2000203453625393
-0.2184837618575408
-0.18155692886753785
-0.23694717835254234
-0.2554105948475438
-0.2800284835075273
-0.2000203453625393
-0.2061748175275213
-0.21232928969253104
-0.21232928969253104
-0.15693904020752658
-0.18771140103251985
-0.15693904020752658
-0.15078456804251686
-0.14463009587750708
-0.14463009587750708
-0.15693904020752658
-0.16309351237253633
-0.1200122072175236
-0.21232928969253104
-0.2984919000025288
-0.2738740113425453
-0.24925612268253405
-0.23079270618753256
-0.2061748175275213
-0.1692479845375183
-0.1261666793825056
-0.21232928969253104
-0.2246382340225228
-0.2431016505175243
-0.24925612268253405
-0.2431016505175243
-0.23694717835254234
-0.18771140103251985
0.0707764298975011
0.2984919000025288
-0.15693904020752658
-0.08923984639250258
-0.1261666793825056
-0.14463009587750708
-0.1200122072175236
-0.1200122072175236
-0.2738740113425453
-0.4831260649525715
-0.28618295567253704
-0.2000203453625393
-0.18155692886753785
-0.16309351237253633
-0.11385773505251384
-0.07693090206251085
-0.0707764298975011
-0.1384756237125251
-0.10770326288750408
-0.11385773505251384
-0.1200122072175236
-0.1200122072175236
-0.1015487907225221
-0.10770326288750408
-0.08923984639250258
-0.13232115154751534
-0.15078456804251686
-0.1384756237125251
-0.1200122072175236
-0.07693090206251085
-0.06462195773251911
-0.1015487907225221
-0.06462195773251911
-0.15693904020752658
-0.1692479845375183
-0.15693904020752658
-0.15693904020752658
-0.18771140103251985
-0.2184837618575408
-0.21232928969253104
-0.14463009587750708
-0.23079270618753256
-0.18771140103251985
-0.15693904020752658
-0.11385773505251384
-0.1200122072175236
-0.1200122072175236
-0.0707764298975011
-0.05231301340249961
-0.11385773505251384
-0.08923984639250258
-0.10770326288750408
-0.09539431855751236
-0.07693090206251085
-0.10770326288750408
-0.09539431855751236
-0.058467485567509365
-0.10770326288750408
-0.13232115154751534
-0.11385773505251384
-0.05231301340249961
-0.08923984639250258
-0.1015487907225221
-0.18155692886753785
-0.5015894814475731
0.003077236082504875
0.04000406907250786
-0.08923984639250258
-0.08923984639250258
-0.07693090206251085
-0.04615854123751762
-0.02154065257750637
-0.033849596907498114
-0.1261666793825056
-0.04615854123751762
0.01538618041249662
-0.08308537422752059
-0.10770326288750408
-0.14463009587750708
-0.15693904020752658
-0.1200122072175236
-0.1938658731975296
-0.2061748175275213
-0.2000203453625393
-0.1938658731975296
-0.18771140103251985
-0.1938658731975296
-0.17540245670252808
-0.13232115154751534
-0.23694717835254234
-0.2984919000025288
-0.2000203453625393
-0.15078456804251686
-0.11385773505251384
-0.08923984639250258
-0.07693090206251085
-0.08308537422752059
-0.11385773505251384
-0.1015487907225221
-0.1200122072175236
-0.15078456804251686
-0.16309351237253633
-0.14463009587750708
-0.15693904020752658
-0.11385773505251384
-0.2061748175275213
-0.18155692886753785
-0.1384756237125251
-0.14463009587750708
-0.16309351237253633
-0.1261666793825056
-0.08923984639250258
-0.058467485567509365
-0.08923984639250258
-0.06462195773251911
-0.06462195773251911
-0.05231301340249961
-0.06462195773251911
-0.08308537422752059
0.02154065257750637
0.04615854123751762
-0.01538618041249662
0.18155692886753785
0.49543500928256323
0.01538618041249662
0.02769512474251612
-0.04615854123751762
-0.09539431855751236
-0.4154268711375475
-0.4708171206225797
-0.3108008443325483
-0.2554105948475438
-0.2246382340225228
-0.2246382340225228
-0.18771140103251985
-0.18771140103251985
-0.18155692886753785
-0.18771140103251985
-0.15693904020752658
-0.14463009587750708
-0.1384756237125251
-0.15078456804251686
-0.14463009587750708
-0.15693904020752658
-0.14463009587750708
-0.18155692886753785
-0.1692479845375183
-0.15693904020752658
-0.15078456804251686
-0.15693904020752658
-0.1938658731975296
-0.23079270618753256
-0.23694717835254234
-0.2984919000025288
-0.2984919000025288
-0.29233742783754685
-0.30464637216753854
-0.30464637216753854
-0.30464637216753854
-0.2800284835075273
-0.28618295567253704
-0.31695531649755804
-0.30464637216753854
-0.3108008443325483
-0.24925612268253405
-0.3108008443325483
-0.30464637216753854
-0.2184837618575408
-0.18155692886753785
-0.1938658731975296
-0.17540245670252808
-0.18155692886753785
-0.15693904020752658
-0.1692479845375183
-0.14463009587750708
-0.1200122072175236
-0.10770326288750408
-0.16309351237253633
-0.16309351237253633
-0.08308537422752059
-0.08923984639250258
-0.15693904020752658
-0.18771140103251985
-0.18771140103251985
-0.23079270618753256
-0.34772767732255133
-0.6369878690775933
-0.07693090206251085
-0.04615854123751762
-0.13232115154751534
-0.1384756237125251
-0.13232115154751534
-0.17540245670252808
-0.21232928969253104
-0.2061748175275213
-0.26771953917753555
-0.26156506701252585
-0.26771953917753555
-0.26771953917753555
-0.24925612268253405
-0.24925612268253405
-0.2738740113425453
-0.2554105948475438
-0.23694717835254234
-0.23079270618753256
-0.23079270618753256
-0.24925612268253405
-0.2431016505175243
-0.2738740113425453
-0.2000203453625393
-0.26771953917753555
-0.26156506701252585
-0.2431016505175243
-0.23079270618753256
-0.2246382340225228
-0.21232928969253104
-0.2431016505175243
-0.26771953917753555
-0.2554105948475438
-0.23079270618753256
-0.23079270618753256
-0.23079270618753256
-0.2184837618575408
-0.18771140103251985
-0.18155692886753785
-0.23079270618753256
-0.2184837618575408
-0.23694717835254234
-0.21232928969253104
-0.18155692886753785
-0.17540245670252808
-0.1692479845375183
-0.18155692886753785
-0.21232928969253104
-0.24925612268253405
-0.26156506701252585
-0.26156506701252585
-0.23079270618753256
-0.2184837618575408
-0.11385773505251384
-0.17540245670252808
-0.23694717835254234
-0.26156506701252585
-0.28618295567253704
-0.10770326288750408
0.23694717835254234
-0.2800284835075273
-0.28618295567253704
-0.6369878690775933
-0.538516314437576
-0.4154268711375475
-0.37850003814754446
-0.360036621652543
-0.36619109381755277
-0.2246382340225228
-0.26156506701252585
-0.2800284835075273
-0.2431016505175243
-0.23694717835254234
-0.23694717835254234
-0.23694717835254234
-0.26156506701252585
-0.28618295567253704
-0.13232115154751534
-0.0707764298975011
-0.5446707866025856
0.009231708247514623
-0.2000203453625393
-0.29233742783754685
-0.29233742783754685
-0.42158134330255725
-0.11385773505251384
-0.6677602299025863
-0.7908496732026148
-0.5077439536125827
-0.396963454642546
-0.3292642608275498
-0.2984919000025288
-0.29233742783754685
-0.2431016505175243
-0.26771953917753555
-0.2984919000025288
-0.2984919000025288
-0.2738740113425453
-0.18771140103251985
-0.2554105948475438
-0.2431016505175243
-0.23079270618753256
-0.29233742783754685
-0.2984919000025288
-0.2984919000025288
-0.2800284835075273
-0.2800284835075273
-0.26771953917753555
-0.24925612268253405
-0.1938658731975296
-0.2000203453625393
-0.2000203453625393
-0.18155692886753785
-0.16309351237253633
-0.16309351237253633
-0.1384756237125251
-0.1261666793825056
-0.08923984639250258
-0.15078456804251686
-0.14463009587750708
-0.15693904020752658
-0.16309351237253633
-0.1938658731975296
-0.18771140103251985
-0.1938658731975296
-0.18155692886753785
-0.2431016505175243
-0.23694717835254234
-0.2184837618575408
-0.23694717835254234
-0.2061748175275213
-0.1938658731975296
-0.1938658731975296
-0.18771140103251985
-0.24925612268253405
-0.24925612268253405
-0.23694717835254234
-0.23079270618753256
-0.2738740113425453
-0.26771953917753555
-0.3108008443325483
-0.6369878690775933
-0.15078456804251686
-0.10770326288750408
-0.2184837618575408
-0.2431016505175243
-0.30464637216753854
-0.30464637216753854
-0.30464637216753854
-0.26156506701252585
-0.32310978866254003
-0.30464637216753854
-0.2800284835075273
-0.2738740113425453
-0.26156506701252585
-0.26156506701252585
-0.2984919000025288
-0.23694717835254234
-0.24925612268253405
-0.2984919000025288
-0.2431016505175243
-0.2246382340225228
-0.2184837618575408
-0.2061748175275213
-0.18155692886753785
-0.16309351237253633
-0.2000203453625393
-0.1692479845375183
-0.1261666793825056
-0.1261666793825056
-0.11385773505251384
-0.1384756237125251
-0.1384756237125251
-0.08923984639250258
-0.1692479845375183
-0.15693904020752658
-0.17540245670252808
-0.2000203453625393
-0.2246382340225228
-0.2431016505175243
-0.033849596907498114
0.40927239897256545
-0.2984919000025288
-0.2246382340225228
-0.2184837618575408
-0.21232928969253104
-0.21232928969253104
-0.2184837618575408
-0.1200122072175236
-0.28618295567253704
-0.6185244525825918
-0.4154268711375475
-0.30464637216753854
-0.2554105948475438
-0.2246382340225228
-0.2246382340225228
-0.2184837618575408
-0.2000203453625393
-0.28618295567253704
-0.2738740113425453
-0.29233742783754685
-0.3108008443325483
-0.29233742783754685
-0.3292642608275498
-0.3846545103125543
-0.26771953917753555
-0.3354187329925596
-0.3415732051575415
-0.360036621652543
-0.35388214948756097
-0.390808982477564
-0.3846545103125543
-0.360036621652543
-0.28618295567253704
-0.3354187329925596
-0.31695531649755804
-0.28618295567253704
-0.23079270618753256
-0.15693904020752658
-0.14463009587750708
-0.15693904020752658
-0.15693904020752658
-0.23694717835254234
-0.23079270618753256
-0.24925612268253405
-0.26771953917753555
-0.26771953917753555
-0.28618295567253704
-0.2738740113425453
-0.2554105948475438
-0.3108008443325483
-0.2800284835075273
-0.29233742783754685
-0.3292642608275498
-0.360036621652543
-0.32310978866254003
-0.3354187329925596
-0.3108008443325483
-0.3415732051575415
-0.30464637216753854
-0.28618295567253704
-0.2738740113425453
-0.2554105948475438
-0.3108008443325483
-0.6308333969125834
-0.08923984639250258
-0.05231301340249961
-0.13232115154751534
-0.08923984639250258
-0.14463009587750708
-0.14463009587750708
-0.1384756237125251
-0.1384756237125251
-0.10770326288750408
-0.16309351237253633
-0.13232115154751534
-0.1261666793825056
-0.13232115154751534
-0.1384756237125251
-0.16309351237253633
-0.16309351237253633
-0.17540245670252808
-0.26156506701252585
-0.28618295567253704
-0.3108008443325483
-0.32310978866254003
-0.3108008443325483
-0.2984919000025288
-0.29233742783754685
-0.26771953917753555
-0.31695531649755804
-0.31695531649755804
-0.30464637216753854
-0.29233742783754685
-0.2800284835075273
-0.26156506701252585
-0.2246382340225228
-0.15078456804251686
-0.2061748175275213
-0.15078456804251686
-0.1261666793825056
-0.1384756237125251
-0.16309351237253633
-0.1938658731975296
-0.2061748175275213
-0.1692479845375183
-0.23079270618753256
-0.2554105948475438
-0.2738740113425453
-0.28618295567253704
-0.31695531649755804
-0.3354187329925596
-0.2984919000025288
-0.2554105948475438
-0.28618295567253704
-0.29233742783754685
-0.2984919000025288
-0.26156506701252585
-0.2738740113425453
-0.29233742783754685
-0.2738740113425453
-0.24925612268253405
-0.04615854123751762
0.5015894814475731
-0.13232115154751534
-0.058467485567509365
-0.06462195773251911
-0.07693090206251085
-0.15693904020752658
-0.47697159278756174
-0.5692886752625692
-0.40927239897256545
-0.3354187329925596
-0.3292642608275498
-0.3292642608275498
-0.34772767732255133
-0.3354187329925596
-0.29233742783754685
-0.35388214948756097
-0.360036621652543
-0.35388214948756097
-0.37850003814754446
-0.34772767732255133
-0.23079270618753256
-0.23694717835254234
-0.24925612268253405
-0.26156506701252585
-0.23079270618753256
-0.2431016505175243
-0.2554105948475438
-0.26771953917753555
-0.26771953917753555
-0.2738740113425453
-0.24925612268253405
-0.2800284835075273
-0.2738740113425453
-0.30464637216753854
-0.30464637216753854
-0.390808982477564
-0.36619109381755277
-0.3415732051575415
-0.32310978866254003
-0.3723455659825625
-0.36619109381755277
-0.3354187329925596
-0.32310978866254003
-0.3108008443325483
-0.3108008443325483
-0.3108008443325483
-0.28618295567253704
-0.31695531649755804
-0.3108008443325483
-0.23079270618753256
-0.003077236082504875
-0.06462195773251911
-0.11385773505251384
-0.1261666793825056
-0.1261666793825056
-0.15078456804251686
-0.11385773505251384
-0.1200122072175236
-0.1384756237125251
-0.1261666793825056
-0.1200122072175236
-0.1200122072175236
-0.2246382340225228
-0.6246789247476013
-0.1200122072175236
-0.21232928969253104
-0.26771953917753555
-0.2246382340225228
-0.2000203453625393
-0.1692479845375183
-0.15078456804251686
-0.1692479845375183
-0.16309351237253633
-0.15693904020752658
-0.1200122072175236
-0.10770326288750408
-0.1261666793825056
-0.1015487907225221
-0.07693090206251085
-0.08308537422752059
-0.08308537422752059
-0.11385773505251384
-0.08308537422752059
-0.10770326288750408
-0.1015487907225221
-0.07693090206251085
-0.0707764298975011
-0.15693904020752658
-0.13232115154751534
-0.1384756237125251
-0.14463009587750708
-0.1692479845375183
-0.18155692886753785
-0.08923984639250258
0.45850817629256013
-0.1938658731975296
-0.1692479845375183
-0.1692479845375183
-0.18771140103251985
-0.23079270618753256
-0.23694717835254234
-0.26771953917753555
-0.5939065639225805
-0.5508252587675677
-0.42158134330255725
-0.34772767732255133
-0.3108008443325483
-0.28618295567253704
-0.28618295567253704
-0.2554105948475438
-0.26771953917753555
-0.30464637216753854
-0.31695531649755804
-0.31695531649755804
-0.3415732051575415
-0.34772767732255133
-0.3354187329925596
-0.2984919000025288
-0.30464637216753854
-0.3354187329925596
-0.32310978866254003
-0.10770326288750408
0.2554105948475438
-0.2246382340225228
-0.16309351237253633
-0.2061748175275213
-0.5508252587675677
-0.5015894814475731
-0.36619109381755277
-0.31695531649755804
-0.2738740113425453
-0.24925612268253405
-0.23079270618753256
-0.1938658731975296
-0.21232928969253104
-0.24925612268253405
-0.2246382340225228
-0.2431016505175243
-0.24925612268253405
-0.23694717835254234
-0.2738740113425453
-0.23694717835254234
-0.24925612268253405
-0.26771953917753555
-0.26771953917753555
-0.2431016505175243
-0.23079270618753256
-0.2184837618575408
-0.2184837618575408
-0.18155692886753785
-0.1938658731975296
-0.18771140103251985
-0.2184837618575408
-0.2431016505175243
-0.2000203453625393
-0.14463009587750708
-0.2000203453625393
-0.2184837618575408
-0.23694717835254234
-0.2184837618575408
-0.2061748175275213
-0.21232928969253104
-0.2184837618575408
-0.23079270618753256
-0.2246382340225228
-0.2246382340225228
-0.26156506701252585
-0.26156506701252585
-0.2800284835075273
-0.2800284835075273
-0.2738740113425453
-0.2554105948475438
-0.2431016505175243
0.04615854123751762
-0.2000203453625393
-0.427735815467567
-0.30464637216753854
-0.3292642608275498
-0.31695531649755804
-0.2800284835075273
-0.2800284835075273
-0.2431016505175243
-0.29233742783754685
-0.31695531649755804
-0.37850003814754446
-0.6985325907276074
-0.18771140103251985
-0.1015487907225221
-0.16309351237253633
-0.13232115154751534
-0.2000203453625393
-0.15693904020752658
-0.14463009587750708
-0.18155692886753785
-0.17540245670252808
-0.17540245670252808
-0.2061748175275213
-0.16309351237253633
-0.1938658731975296
-0.18155692886753785
-0.1384756237125251
-0.15078456804251686
-0.16309351237253633
-0.18155692886753785
-0.18771140103251985
-0.14463009587750708
-0.2061748175275213
-0.18771140103251985
-0.21232928969253104
-0.2246382340225228
-0.2431016505175243
-0.24925612268253405
-0.26771953917753555
-0.23694717835254234
-0.26156506701252585
-0.23079270618753256
-0.2184837618575408
-0.2061748175275213
-0.2000203453625393
-0.1938658731975296
-0.1938658731975296
-0.18771140103251985
-0.23694717835254234
-0.2246382340225228
-0.21232928969253104
-0.1938658731975296
-0.1692479845375183
-0.1384756237125251
-0.09539431855751236
0.0707764298975011
0.07693090206251085
-0.01538618041249662
-0.0707764298975011
-0.14463009587750708
-0.15078456804251686
-0.15078456804251686
-0.15693904020752658
-0.1261666793825056
-0.1938658731975296
-0.18155692886753785
-0.18771140103251985
-0.18771140103251985
-0.2061748175275213
-0.003077236082504875
0.3292642608275498
-0.6739147020675963
-0.8093130896976164
-0.5692886752625692
-0.4708171206225797
-0.4154268711375475
-0.396963454642546
-0.34772767732255133
-0.32310978866254003
-0.2554105948475438
-0.2554105948475438
-0.2184837618575408
-0.2000203453625393
-0.23079270618753256
-0.2431016505175243
0.07693090206251085
0.28618295567253704
0.058467485567509365
-0.08308537422752059
-0.09539431855751236
-0.1261666793825056
-0.1384756237125251
-0.1384756237125251
-0.16309351237253633
-0.15078456804251686
-0.10770326288750408
-0.18771140103251985
-0.1692479845375183
-0.1692479845375183
-0.16309351237253633
-0.396963454642546
-0.6123699804175821
-0.40927239897256545
-0.2800284835075273
-0.3108008443325483
-0.26771953917753555
-0.23694717835254234
-0.23079270618753256
-0.24925612268253405
-0.2554105948475438
-0.2554105948475438
-0.2246382340225228
-0.2738740113425453
-0.2738740113425453
-0.26156506701252585
-0.18771140103251985
-0.16309351237253633
-0.18155692886753785
-0.15078456804251686
-0.10770326288750408
-0.17540245670252808
-0.18771140103251985
-0.2061748175275213
-0.2061748175275213
-0.2184837618575408
-0.2431016505175243
-0.2554105948475438
-0.2246382340225228
-0.29233742783754685
-0.26771953917753555
-0.21232928969253104
-0.21232928969253104
-0.360036621652543
-0.8093130896976164
-0.08923984639250258
-0.058467485567509365
-0.21232928969253104
-0.1692479845375183
-0.11385773505251384
-0.30464637216753854
-0.26156506701252585
-0.23694717835254234
-0.2000203453625393
-0.15693904020752658
-0.2184837618575408
-0.1015487907225221
-0.07693090206251085
-0.1200122072175236
-0.15693904020752658
-0.15693904020752658
-0.13232115154751534
-0.1200122072175236
-0.18155692886753785
-0.17540245670252808
-0.18771140103251985
-0.18771140103251985
-0.17540245670252808
-0.18155692886753785
-0.2000203453625393
-0.16309351237253633
-0.26156506701252585
-0.32310978866254003
-0.26156506701252585
-0.2554105948475438
-0.26771953917753555
-0.2554105948475438
-0.2184837618575408
-0.2061748175275213
-0.26771953917753555
-0.2431016505175243
-0.2246382340225228
-0.2184837618575408
-0.23694717835254234
-0.2431016505175243
-0.23694717835254234
-0.3846545103125543
-0.35388214948756097
-0.2184837618575408
-0.21232928969253104
-0.18771140103251985
-0.02154065257750637
-0.15693904020752658
-0.1938658731975296
-0.1692479845375183
-0.2184837618575408
-0.2000203453625393
-0.2061748175275213
-0.2246382340225228
-0.23694717835254234
-0.2061748175275213
-0.06462195773251911
0.1200122072175236
0.47697159278756174
-0.16309351237253633
-0.1261666793825056
-0.15693904020752658
-0.18155692886753785
-0.18155692886753785
-0.18155692886753785
-0.40927239897256545
-0.575443147427579
-0.3846545103125543
-0.3108008443325483
-0.30464637216753854
-0.2984919000025288
-0.2984919000025288
-0.2738740113425453
-0.2184837618575408
-0.24925612268253405
-0.23694717835254234
-0.23079270618753256
-0.2061748175275213
-0.2000203453625393
-0.2246382340225228
-0.23079270618753256
-0.2246382340225228
-0.30464637216753854
-0.28618295567253704
-0.28618295567253704
-0.2738740113425453
-0.31695531649755804
-0.37850003814754446
-0.2984919000025288
-0.26771953917753555
-0.3292642608275498
-0.3354187329925596
-0.2738740113425453
-0.24925612268253405
-0.2738740113425453
-0.23079270618753256
-0.2061748175275213
-0.16309351237253633
-0.1938658731975296
-0.1692479845375183
-0.15078456804251686
-0.06462195773251911
-0.05231301340249961
-0.07693090206251085
-0.06462195773251911
0.23694717835254234
-1.3816790010426905
-0.6246789247476013
-0.28618295567253704
-0.29233742783754685
-0.2554105948475438
-0.23079270618753256
0.02154065257750637
0.1200122072175236
-0.14463009587750708
-0.17540245670252808
-0.15078456804251686
-0.13232115154751534
-0.24925612268253405
-0.3108008443325483
-0.2184837618575408
-0.18155692886753785
-0.1692479845375183
-0.14463009587750708
-0.1261666793825056
-0.11385773505251384
-0.10770326288750408
-0.10770326288750408
-0.10770326288750408
-0.10770326288750408
-0.11385773505251384
-0.0707764298975011
-0.08308537422752059
-0.0707764298975011
-0.04000406907250786
-0.033849596907498114
-0.033849596907498114
-0.033849596907498114
-0.033849596907498114
-0.033849596907498114
-0.04000406907250786
-0.06462195773251911
-0.1015487907225221
-0.1200122072175236
-0.14463009587750708
-0.13232115154751534
-0.13232115154751534
-0.11385773505251384
-0.08308537422752059
-0.05231301340249961
-0.003077236082504875
0.003077236082504875
0.01538618041249662
0.02154065257750637
0.003077236082504875
-0.01538618041249662
-0.033849596907498114
-0.06462195773251911
-0.08308537422752059
0.08308537422752059
0.49543500928256323
0.34772767732255133
0.1384756237125251
0.16309351237253633
0.18771140103251985
0.16309351237253633
0.1384756237125251
0.1261666793825056
0.1015487907225221
0.08923984639250258
-0.003077236082504875
-0.04000406907250786
-0.04615854123751762
-0.04615854123751762
-0.07693090206251085
-0.06462195773251911
-0.003077236082504875
-0.04000406907250786
-0.04000406907250786
0.1692479845375183
0.390808982477564
-0.4708171206225797
0.29233742783754685
0.2738740113425453
0.09539431855751236
-0.2738740113425453
-0.2431016505175243
-0.10770326288750408
-0.08923984639250258
-0.1015487907225221
-0.04615854123751762
0.1384756237125251
0.1200122072175236
0.1384756237125251
0.1200122072175236
0.15078456804251686
0.14463009587750708
0.11385773505251384
0.05231301340249961
0.01538618041249662
0.009231708247514623
-0.033849596907498114
-0.05231301340249961
-0.009231708247514623
-0.04000406907250786
-0.05231301340249961
-0.15693904020752658
-0.2184837618575408
-0.15693904020752658
-0.1384756237125251
-0.11385773505251384
-0.0707764298975011
-0.04615854123751762
-0.02154065257750637
0.003077236082504875
0.009231708247514623
0.003077236082504875
-0.02154065257750637
-0.02769512474251612
-0.02769512474251612
-0.01538618041249662
-0.003077236082504875
-0.02154065257750637
0.033849596907498114
0.06462195773251911
0.02769512474251612
0.02154065257750637
0.02154065257750637
0.009231708247514623
0.02769512474251612
0.02769512474251612
0.033849596907498114
0.09539431855751236
0.0707764298975011
0.05231301340249961
0.058467485567509365
0.06462195773251911
0.01538618041249662
0.02154065257750637
0.01538618041249662
0.058467485567509365
0.05231301340249961
-0.05231301340249961
-0.3415732051575415
0.2246382340225228
0.1938658731975296
0.11385773505251384
0.1015487907225221
0.1384756237125251
0.10770326288750408
0.1384756237125251
0.15078456804251686
0.058467485567509365
0.033849596907498114
0.01538618041249662
0.02154065257750637
0.3415732051575415
0.1015487907225221
-0.08923984639250258
0.04000406907250786
0.06462195773251911
0.04615854123751762
0.04000406907250786
0.033849596907498114
0.02154065257750637
0.009231708247514623
0.009231708247514623
-0.06462195773251911
-0.05231301340249961
-0.05231301340249961
-0.08923984639250258
-0.1015487907225221
-0.01538618041249662
-0.033849596907498114
-0.02154065257750637
0.009231708247514623
0.003077236082504875
-0.02154065257750637
-0.009231708247514623
-0.033849596907498114
-0.033849596907498114
-0.2000203453625393
-0.2061748175275213
-0.15078456804251686
-0.08308537422752059
-0.02769512474251612
-0.003077236082504875
0.02154065257750637
0.04615854123751762
-0.033849596907498114
-0.02154065257750637
-0.01538618041249662
0.003077236082504875
0.05231301340249961
0.05231301340249961
0.1015487907225221
0.21232928969253104
0.06462195773251911
0.033849596907498114
0.02154065257750637
0.02769512474251612
0.2431016505175243
0.6492968134075848
0.08308537422752059
0.04000406907250786
-0.31695531649755804
-0.1261666793825056
-0.01538618041249662
-0.003077236082504875
0.003077236082504875
0.01538618041249662
-0.02769512474251612
-0.04000406907250786
-0.08308537422752059
-0.058467485567509365
-0.05231301340249961
-0.033849596907498114
-0.003077236082504875
0.02769512474251612
0.02769512474251612
0.08308537422752059
0.02154065257750637
0.02154065257750637
0.04000406907250786
0.009231708247514623
0.009231708247514623
-0.02769512474251612
-0.058467485567509365
0.01538618041249662
-0.04615854123751762
-0.009231708247514623
0.009231708247514623
0.009231708247514623
0.02154065257750637
0.033849596907498114
0.04615854123751762
0.08308537422752059
0.033849596907498114
0.04000406907250786
-0.01538618041249662
0.009231708247514623
0.05231301340249961
-0.003077236082504875
0.02154065257750637
0.058467485567509365
0.009231708247514623
0.04615854123751762
0.08923984639250258
0.058467485567509365
0.04615854123751762
0.07693090206251085
0.04000406907250786
0.02154065257750637
-0.06462195773251911
-0.058467485567509365
-0.009231708247514623
0.10770326288750408
0.08308537422752059
0.04000406907250786
0.04000406907250786
0.08308537422752059
-0.02154065257750637
-0.02769512474251612
-0.058467485567509365
-0.1692479845375183
-0.5262073701075842
0.003077236082504875
0.06462195773251911
0.02154065257750637
-0.02154065257750637
-0.02154065257750637
-0.1200122072175236
-0.13232115154751534
-0.1261666793825056
-0.13232115154751534
-0.1261666793825056
-0.08923984639250258
-0.18771140103251985
-0.16309351237253633
-0.1200122072175236
-0.1200122072175236
-0.1261666793825056
-0.1200122072175236
-0.13232115154751534
-0.10770326288750408
-0.15693904020752658
-0.13232115154751534
-0.08923984639250258
-0.07693090206251085
-0.058467485567509365
-0.07693090206251085
-0.0707764298975011
-0.009231708247514623
-0.08308537422752059
-0.06462195773251911
-0.04615854123751762
-0.009231708247514623
0.009231708247514623
0.058467485567509365
0.07693090206251085
0.11385773505251384
-0.003077236082504875
0.009231708247514623
0.02154065257750637
0.01538618041249662
0.02769512474251612
0.02769512474251612
0.02154065257750637
0.033849596907498114
-0.01538618041249662
0.02154065257750637
0.02154065257750637
0.02154065257750637
0.02769512474251612
0.04615854123751762
0.06462195773251911
0.07693090206251085
0.01538618041249662
0.02769512474251612
0.009231708247514623
0.003077236082504875
-0.02769512474251612
-0.003077236082504875
0.17540245670252808
0.7846952010376053
0.04615854123751762
-0.18771140103251985
0.009231708247514623
0.0707764298975011
0.08923984639250258
0.2061748175275213
0.26156506701252585
0.02769512474251612
-0.18771140103251985
-0.058467485567509365
-0.003077236082504875
-0.01538618041249662
-0.02769512474251612
0.003077236082504875
0.009231708247514623
0.02154065257750637
-0.04615854123751762
-0.02154065257750637
-0.003077236082504875
-0.009231708247514623
0.033849596907498114
0.058467485567509365
0.1261666793825056
0.15078456804251686
0.11385773505251384
0.14463009587750708
0.15693904020752658
0.18155692886753785
0.2000203453625393
0.2184837618575408
0.2431016505175243
0.2431016505175243
0.1692479845375183
0.15693904020752658
0.11385773505251384
0.16309351237253633
0.1938658731975296
0.17540245670252808
0.18155692886753785
0.1938658731975296
0.1692479845375183
0.17540245670252808
0.1692479845375183
0.1692479845375183
0.17540245670252808
0.18771140103251985
0.2000203453625393
0.21232928969253104
0.1384756237125251
0.1015487907225221
0.10770326288750408
0.08923984639250258
0.09539431855751236
0.1384756237125251
0.1938658731975296
0.26156506701252585
0.21232928969253104
0.2246382340225228
0.2554105948475438
0.2554105948475438
0.24925612268253405
0.2246382340225228
0.058467485567509365
-0.2061748175275213
0.29233742783754685
0.2184837618575408
0.14463009587750708
0.11385773505251384
0.1200122072175236
0.13232115154751534
0.18155692886753785
0.2061748175275213
0.15078456804251686
0.15078456804251686
0.10770326288750408
0.058467485567509365
0.04615854123751762
0.01538618041249662
0.01538618041249662
0.003077236082504875
-0.033849596907498114
-0.09539431855751236
-0.07693090206251085
-0.08923984639250258
-0.08308537422752059
-0.08308537422752059
-0.09539431855751236
-0.09539431855751236
-0.1384756237125251
-0.15693904020752658
-0.17540245670252808
-0.18771140103251985
-0.21232928969253104
-0.26156506701252585
-0.28618295567253704
-0.26771953917753555
-0.31695531649755804
-0.2984919000025288
-0.2554105948475438
-0.21232928969253104
-0.2184837618575408
-0.2061748175275213
-0.1938658731975296
-0.17540245670252808
-0.2061748175275213
-0.18155692886753785
-0.1384756237125251
-0.13232115154751534
-0.1384756237125251
-0.1938658731975296
-0.1692479845375183
-0.15693904020752658
-0.26156506701252585
-0.24925612268253405
-0.2554105948475438
-0.23694717835254234
-0.21232928969253104
-0.2431016505175243
-0.2184837618575408
-0.2061748175275213
-0.02154065257750637
0.396963454642546
-0.21232928969253104
-0.17540245670252808
-0.17540245670252808
-0.15078456804251686
-0.2184837618575408
-0.5692886752625692
-0.538516314437576
-0.3723455659825625
-0.32310978866254003
-0.26771953917753555
-0.2246382340225228
-0.18771140103251985
-0.14463009587750708
-0.13232115154751534
-0.18155692886753785
-0.1692479845375183
-0.17540245670252808
-0.18771140103251985
-0.23079270618753256
-0.2800284835075273
-0.29233742783754685
-0.3108008443325483
-0.3415732051575415
-0.2984919000025288
-0.26156506701252585
-0.23694717835254234
-0.2431016505175243
-0.21232928969253104
-0.18771140103251985
-0.2184837618575408
-0.24925612268253405
-0.24925612268253405
-0.2800284835075273
-0.3108008443325483
-0.3354187329925596
-0.34772767732255133
-0.30464637216753854
-0.29233742783754685
-0.30464637216753854
-0.2800284835075273
-0.24925612268253405
-0.21232928969253104
-0.2061748175275213
-0.18771140103251985
-0.18155692886753785
-0.2246382340225228
-0.24925612268253405
-0.2738740113425453
-0.2984919000025288
-0.31695531649755804
-0.3354187329925596
-0.34772767732255133
-0.2984919000025288
-0.2738740113425453
-0.29233742783754685
-0.24925612268253405
-0.2061748175275213
-0.2184837618575408
-0.24925612268253405
-0.2061748175275213
-0.23079270618753256
-0.3846545103125543
-0.7477683680476023
-0.18155692886753785
-0.18771140103251985
-0.26156506701252585
-0.2984919000025288
-0.29233742783754685
-0.2431016505175243
-0.23694717835254234
-0.2061748175275213
-0.1938658731975296
-0.18771140103251985
-0.2000203453625393
-0.2246382340225228
-0.23694717835254234
-0.26156506701252585
-0.3415732051575415
-0.37850003814754446
-0.37850003814754446
-0.37850003814754446
-0.360036621652543
-0.3354187329925596
-0.31695531649755804
-0.26771953917753555
-0.2554105948475438
-0.2246382340225228
-0.2184837618575408
-0.2800284835075273
-0.35388214948756097
-0.37850003814754446
-0.3846545103125543
-0.36619109381755277
-0.37850003814754446
-0.34772767732255133
-0.2984919000025288
-0.2984919000025288
-0.2554105948475438
-0.2184837618575408
-0.1938658731975296
0.07693090206251085
-0.21232928969253104
-0.4400447597975588
-0.3108008443325483
-0.31695531649755804
-0.3415732051575415
-0.3354187329925596
-0.3108008443325483
-0.26156506701252585
-0.2738740113425453
-0.18155692886753785
-0.11385773505251384
-0.06462195773251911
-0.05231301340249961
-0.06462195773251911
-0.1015487907225221
-0.1015487907225221
-0.2000203453625393
-0.23079270618753256
-0.2738740113425453
-0.07693090206251085
0.26771953917753555
-0.1938658731975296
-0.08308537422752059
-0.18771140103251985
-0.5200528979425745
-0.36619109381755277
-0.2738740113425453
-0.26156506701252585
-0.26156506701252585
-0.26771953917753555
-0.2800284835075273
-0.2431016505175243
-0.2800284835075273
-0.23694717835254234
-0.21232928969253104
-0.18771140103251985
-0.14463009587750708
-0.15693904020752658
-0.18155692886753785
-0.14463009587750708
-0.2554105948475438
-0.28618295567253704
-0.3108008443325483
-0.29233742783754685
-0.2984919000025288
-0.2738740113425453
-0.24925612268253405
-0.2000203453625393
-0.26156506701252585
-0.24925612268253405
-0.23694717835254234
-0.24925612268253405
-0.21232928969253104
-0.2246382340225228
-0.26156506701252585
-0.21232928969253104
-0.30464637216753854
-0.2800284835075273
-0.23694717835254234
-0.2246382340225228
-0.2061748175275213
-0.1938658731975296
-0.2000203453625393
-0.16309351237253633
-0.2431016505175243
-0.2738740113425453
-0.30464637216753854
-0.36619109381755277
-0.3723455659825625
-0.37850003814754446
-0.36619109381755277
-0.30464637216753854
-0.3292642608275498
-0.29233742783754685
-0.2738740113425453
-0.2738740113425453
-0.29233742783754685
-0.30464637216753854
-0.32310978866254003
-0.28618295567253704
-0.3846545103125543
-0.36619109381755277
-0.360036621652543
-0.6800691742326058
-0.1384756237125251
-0.06462195773251911
-0.13232115154751534
-0.1384756237125251
-0.2000203453625393
-0.23079270618753256
-0.2431016505175243
-0.28618295567253704
-0.30464637216753854
-0.31695531649755804
-0.30464637216753854
0.10770326288750408
0.14463009587750708
-0.34772767732255133
-0.31695531649755804
-0.3292642608275498
-0.35388214948756097
-0.35388214948756097
-0.36619109381755277
-0.5323618422725662
-0.8154675618626261
-0.6185244525825918
-0.5262073701075842
-0.4892805371175811
-0.4400447597975588
-0.40927239897256545
-0.3846545103125543
-0.28618295567253704
-0.2800284835075273
-0.26771953917753555
-0.2738740113425453
-0.28618295567253704
-0.29233742783754685
-0.29233742783754685
-0.2800284835075273
-0.23694717835254234
-0.3354187329925596
-0.3292642608275498
-0.31695531649755804
-0.3108008443325483
-0.29233742783754685
-0.2984919000025288
-0.31695531649755804
-0.28618295567253704
-0.42158134330255725
-0.427735815467567
-0.4154268711375475
-0.390808982477564
-0.3846545103125543
-0.360036621652543
-0.3415732051575415
-0.28618295567253704
-0.31695531649755804
-0.2800284835075273
-0.2554105948475438
-0.2431016505175243
-0.2800284835075273
-0.07693090206251085
0.42158134330255725
-0.4400447597975588
-0.5815976195925888
-0.40311792680755576
-0.3723455659825625
-0.32310978866254003
-0.2800284835075273
-0.23079270618753256
-0.1938658731975296
-0.1692479845375183
-0.2431016505175243
-0.26771953917753555
-0.2800284835075273
-0.32310978866254003
-0.3108008443325483
-0.30464637216753854
-0.3354187329925596
-0.28618295567253704
-0.32310978866254003
-0.26156506701252585
-0.2000203453625393
-0.2000203453625393
-0.18771140103251985
-0.18155692886753785
-0.2000203453625393
-0.16309351237253633
-0.2431016505175243
-0.23694717835254234
-0.2738740113425453
-0.28618295567253704
-0.2554105948475438
-0.23694717835254234
-0.1938658731975296
-0.14463009587750708
-0.1938658731975296
-0.1938658731975296
-0.23694717835254234
-0.28618295567253704
-0.3108008443325483
-0.31695531649755804
-0.31695531649755804
-0.29233742783754685
-0.3415732051575415
-0.32310978866254003
-0.2738740113425453
-0.23694717835254234
-0.28618295567253704
-0.28618295567253704
-0.26156506701252585
-0.2738740113425453
-0.3415732051575415
-0.31695531649755804
-0.31695531649755804
-0.3108008443325483
-0.29233742783754685
-0.2738740113425453
-0.24925612268253405
-0.2246382340225228
-0.2984919000025288
-0.2800284835075273
-0.29233742783754685
-0.30464637216753854
-0.34772767732255133
-0.6492968134075848
-0.08923984639250258
-0.01538618041249662
-0.18155692886753785
-0.18771140103251985
-0.2061748175275213
-0.2000203453625393
-0.21232928969253104
-0.16309351237253633
-0.1261666793825056
-0.1261666793825056
-0.1692479845375183
-0.1261666793825056
-0.2061748175275213
-0.21232928969253104
-0.2246382340225228
-0.2431016505175243
-0.16309351237253633
-0.1015487907225221
-0.13232115154751534
-0.1261666793825056
-0.11385773505251384
-0.1384756237125251
-0.14463009587750708
-0.14463009587750708
-0.17540245670252808
-0.1261666793825056
-0.01538618041249662
-0.05231301340249961
-0.07693090206251085
-0.11385773505251384
-0.1200122072175236
-0.1261666793825056
-0.14463009587750708
-0.1692479845375183
-0.23079270618753256
-0.2431016505175243
-0.2554105948475438
-0.23079270618753256
-0.23694717835254234
-0.23079270618753256
-0.2246382340225228
-0.2184837618575408
-0.23079270618753256
-0.2246382340225228
-0.18771140103251985
-0.1938658731975296
-0.2184837618575408
-0.2431016505175243
-0.24925612268253405
-0.26771953917753555
-0.3108008443325483
-0.2984919000025288
-0.31695531649755804
-0.32310978866254003
-0.3292642608275498
-0.31695531649755804
-0.2984919000025288
-0.1261666793825056
0.2061748175275213
-0.360036621652543
-0.3108008443325483
-0.32310978866254003
-0.35388214948756097
-0.3723455659825625
-0.4154268711375475
-0.7354594237176103
-0.7662317845426038
-0.6308333969125834
-0.5631342030975872
-0.5446707866025856
-0.5508252587675677
-0.5446707866025856
-0.46466264845757
-0.4400447597975588
-0.4400447597975588
-0.40311792680755576
-0.4154268711375475
-0.44619923196256844
-0.46466264845757
-0.45850817629256013
-0.40927239897256545
-0.40311792680755576
-0.37850003814754446
-0.3292642608275498
-0.3108008443325483
-0.2984919000025288
-0.3415732051575415
-0.32310978866254003
-0.3108008443325483
-0.3108008443325483
-0.3292642608275498
-0.3108008443325483
-0.28618295567253704
-0.2800284835075273
-0.2738740113425453
-0.29233742783754685
-0.29233742783754685
-0.2984919000025288
-0.35388214948756097
-0.35388214948756097
-0.29233742783754685
-0.29233742783754685
-0.28618295567253704
-0.29233742783754685
-0.2800284835075273
-0.2738740113425453
-0.3354187329925596
-0.3723455659825625
-0.396963454642546
-0.396963454642546
-0.37850003814754446
-0.35388214948756097
-0.30464637216753854
-0.2984919000025288
-0.3354187329925596
-0.29233742783754685
-0.29233742783754685
-0.2984919000025288
-0.2984919000025288
-0.28618295567253704
-0.35388214948756097
-0.7231504793875909
-0.2184837618575408
-0.1384756237125251
-0.2554105948475438
-0.2554105948475438
-0.2431016505175243
-0.2554105948475438
-0.24925612268253405
-0.2800284835075273
-0.2738740113425453
-0.2800284835075273
-0.28618295567253704
-0.28618295567253704
-0.2738740113425453
-0.26771953917753555
-0.24925612268253405
-0.2554105948475438
-0.2738740113425453
-0.2554105948475438
-0.2431016505175243
-0.26771953917753555
-0.2738740113425453
-0.2984919000025288
-0.28618295567253704
-0.2246382340225228
-0.2800284835075273
-0.26771953917753555
-0.24925612268253405
-0.26156506701252585
-0.2738740113425453
-0.26771953917753555
-0.24925612268253405
-0.29233742783754685
-0.2800284835075273
-0.26771953917753555
-0.2554105948475438
-0.23694717835254234
-0.2554105948475438
-0.24925612268253405
-0.1384756237125251
-0.1692479845375183
-0.21232928969253104
-0.1938658731975296
-0.21232928969253104
-0.2246382340225228
-0.23694717835254234
-0.2554105948475438
-0.24925612268253405
-0.26771953917753555
-0.26771953917753555
-0.2800284835075273
-0.26771953917753555
-0.26156506701252585
-0.2800284835075273
-0.28618295567253704
-0.02154065257750637
-0.26156506701252585
-0.46466264845757
-0.15078456804251686
0.21232928969253104
-0.24925612268253405
-0.2000203453625393
-0.2000203453625393
-0.29233742783754685
-0.6492968134075848
-0.5015894814475731
-0.40311792680755576
-0.396963454642546
-0.37850003814754446
-0.3354187329925596
-0.3354187329925596
-0.2984919000025288
-0.35388214948756097
-0.36619109381755277
-0.3723455659825625
-0.37850003814754446
-0.3846545103125543
-0.3846545103125543
-0.3846545103125543
-0.3292642608275498
-0.34772767732255133
-0.30464637216753854
-0.26771953917753555
-0.23694717835254234
-0.15693904020752658
-0.2061748175275213
-0.17540245670252808
0.08308537422752059
-0.01538618041249662
-0.30464637216753854
0.2061748175275213
0.04000406907250786
0.02769512474251612
-0.009231708247514623
-0.06462195773251911
-0.1692479845375183
-0.5446707866025856
-0.4523537041275505
-0.42158134330255725
-0.4400447597975588
-0.5077439536125827
-0.6185244525825918
-0.7108415350575992
-0.7723862567076134
-0.8831667556776225
-0.9570204216576284
-1.0124106711426328
-1.073955392792647
-1.1231911701126696
-1.1478090587726528
-1.1539635309376628
-1.1478090587726528
-1.2339716690826785
-1.2832074464026733
-1.2031993082576575
-1.215508252587677
-1.2278171969176688
-1.215508252587677
-1.215508252587677
-1.1908903639276658
-1.221662724752659
-1.1970448360926755
-1.2031993082576575
-1.2093537804226673
-1.1662724752676545
-1.104727753617668
-1.0124106711426328
-0.8523943948526291
-0.8031586175326066
-0.7231504793875909
-0.6554512855725947
-0.5323618422725662
-0.4400447597975588
-0.35388214948756097
-0.26771953917753555
-0.14463009587750708
-0.15693904020752658
-0.07693090206251085
-0.02154065257750637
0.02769512474251612
0.058467485567509365
0.1015487907225221
0.21232928969253104
0.32310978866254003
0.42158134330255725
0.46466264845757
0.4892805371175811
0.5200528979425745
0.5262073701075842
0.4892805371175811
0.37850003814754446
0.08308537422752059
0.5692886752625692
0.5631342030975872
0.44619923196256844
0.40927239897256545
0.360036621652543
0.30464637216753854
0.30464637216753854
0.5446707866025856
0.49543500928256323
0.36619109381755277
0.3292642608275498
0.30464637216753854
0.2800284835075273
0.2800284835075273
0.26156506701252585
0.26771953917753555
0.18771140103251985
0.17540245670252808
0.15078456804251686
0.1261666793825056
0.04000406907250786
-0.033849596907498114
-0.3108008443325483
-0.40311792680755576
-0.34772767732255133
-0.3292642608275498
-0.32310978866254003
-0.34772767732255133
-0.18155692886753785
0.21232928969253104
-0.427735815467567
-0.5138984257775646
-0.7970041453676248
-0.6369878690775933
-0.5446707866025856
-0.5446707866025856
-0.5077439536125827
-0.390808982477564
-0.4523537041275505
-0.396963454642546
-0.4523537041275505
-0.42158134330255725
-0.4154268711375475
-0.3846545103125543
-0.360036621652543
-0.34772767732255133
-0.3354187329925596
-0.26156506701252585
-0.31695531649755804
-0.2984919000025288
-0.2800284835075273
-0.2246382340225228
-0.21232928969253104
-0.2000203453625393
-0.17540245670252808
-0.13232115154751534
-0.1692479845375183
-0.15693904020752658
-0.1384756237125251
-0.09539431855751236
-0.07693090206251085
-0.07693090206251085
-0.04615854123751762
-0.02769512474251612
-0.1200122072175236
-0.10770326288750408
-0.10770326288750408
-0.16309351237253633
-0.18155692886753785
-0.16309351237253633
-0.17540245670252808
-0.15693904020752658
-0.2738740113425453
-0.24925612268253405
-0.2246382340225228
-0.2554105948475438
-0.26156506701252585
-0.28618295567253704
-0.29233742783754685
-0.26771953917753555
-0.37850003814754446
-0.3415732051575415
-0.2246382340225228
-0.34772767732255133
-0.35388214948756097
-0.35388214948756097
-0.360036621652543
-0.31695531649755804
-0.390808982477564
-0.3846545103125543
-0.37850003814754446
-0.4400447597975588
-0.7416138958825924
-0.2246382340225228
-0.15693904020752658
-0.23079270618753256
-0.3292642608275498
-0.4154268711375475
-0.5077439536125827
-0.3846545103125543
-0.36619109381755277
-0.3354187329925596
-0.2984919000025288
-0.2800284835075273
-0.2984919000025288
-0.24925612268253405
-0.2184837618575408
-0.2184837618575408
-0.2246382340225228
-0.21232928969253104
-0.23079270618753256
-0.1938658731975296
-0.1261666793825056
-0.14463009587750708
-0.2000203453625393
-0.2184837618575408
-0.23079270618753256
-0.23079270618753256
-0.23694717835254234
-0.2184837618575408
-0.2738740113425453
-0.2738740113425453
-0.26771953917753555
-0.26771953917753555
-0.29233742783754685
-0.2984919000025288
-0.2738740113425453
-0.2184837618575408
-0.29233742783754685
-0.2800284835075273
-0.24925612268253405
-0.24925612268253405
-0.24925612268253405
-0.2738740113425453
-0.2738740113425453
-0.24925612268253405
-0.2984919000025288
-0.26771953917753555
-0.2554105948475438
-0.26771953917753555
-0.28618295567253704
-0.2431016505175243
-0.23694717835254234
-0.2800284835075273
-0.29233742783754685
-0.26156506701252585
-0.26156506701252585
-0.26156506701252585
-0.2554105948475438
-0.23694717835254234
-0.033849596907498114
0.2984919000025288
-0.18155692886753785
-0.11385773505251384
-0.1015487907225221
-0.09539431855751236
-0.0707764298975011
-0.07693090206251085
-0.1015487907225221
-0.34772767732255133
-0.4154268711375475
-0.23694717835254234
-0.15693904020752658
-0.1200122072175236
-0.1015487907225221
-0.11385773505251384
-0.1015487907225221
-0.07693090206251085
-0.1015487907225221
-0.06462195773251911
-0.07693090206251085
-0.033849596907498114
-0.02154065257750637
-0.04000406907250786
0.003077236082504875
0.003077236082504875
-0.02154065257750637
-0.02154065257750637
-0.01538618041249662
-0.01538618041249662
0.033849596907498114
0.04615854123751762
0.05231301340249961
0.06462195773251911
0.06462195773251911
0.05231301340249961
0.05231301340249961
0.10770326288750408
0.08923984639250258
0.08923984639250258
0.1261666793825056
0.13232115154751534
0.1384756237125251
0.15078456804251686
0.1384756237125251
0.1261666793825056
0.1384756237125251
0.1015487907225221
0.14463009587750708
0.21232928969253104
0.18155692886753785
0.1938658731975296
0.29233742783754685
0.2984919000025288
0.26156506701252585
0.26771953917753555
0.26156506701252585
0.23694717835254234
0.16309351237253633
0.1200122072175236
0.13232115154751534
0.14463009587750708
0.1261666793825056
0.02154065257750637
-0.28618295567253704
0.2431016505175243
0.3354187329925596
0.28618295567253704
0.2061748175275213
0.15078456804251686
0.1261666793825056
0.1200122072175236
0.14463009587750708
0.08308537422752059
0.02154065257750637
0.04615854123751762
0.05231301340249961
0.01538618041249662
-0.02769512474251612
-0.01538618041249662
0.04000406907250786
-0.02769512474251612
-0.2431016505175243
-0.2554105948475438
-0.23079270618753256
-0.2184837618575408
-0.18155692886753785
-0.15693904020752658
-0.09539431855751236
-0.1384756237125251
-0.17540245670252808
-0.1384756237125251
-0.1200122072175236
-0.04615854123751762
-0.003077236082504875
0.009231708247514623
0.15078456804251686
0.2984919000025288
0.2738740113425453
0.1938658731975296
0.1384756237125251
0.15078456804251686
0.15693904020752658
0.13232115154751534
0.31695531649755804
0.8339309783576276
0.2061748175275213
0.2800284835075273
0.30464637216753854
0.31695531649755804
0.30464637216753854
0.2184837618575408
0.058467485567509365
-0.2554105948475438
-0.18771140103251985
-0.058467485567509365
-0.04000406907250786
-0.02769512474251612
0.04615854123751762
0.08923984639250258
0.1261666793825056
0.1261666793825056
0.3415732051575415
0.6616057577376044
0.2431016505175243
0.3415732051575415
0.390808982477564
0.5508252587675677
0.46466264845757
0.05231301340249961
0.06462195773251911
0.1692479845375183
0.2246382340225228
0.18155692886753785
0.15078456804251686
0.15078456804251686
0.11385773505251384
0.04615854123751762
0.02769512474251612
0.01538618041249662
-0.003077236082504875
0.02154065257750637
0.1015487907225221
0.01538618041249662
-0.04615854123751762
-0.06462195773251911
-0.09539431855751236
-0.11385773505251384
-0.13232115154751534
-0.1200122072175236
-0.09539431855751236
-0.08308537422752059
0.2246382340225228
-0.02154065257750637
-0.2184837618575408
-0.08923984639250258
-0.09539431855751236
-0.058467485567509365
-0.06462195773251911
-0.06462195773251911
-0.06462195773251911
-0.1692479845375183
-0.2000203453625393
-0.2000203453625393
-0.24925612268253405
-0.26156506701252585
-0.2800284835075273
-0.32310978866254003
-0.3354187329925596
-0.42158134330255725
-0.44619923196256844
-0.5446707866025856
-0.7846952010376053
-0.7354594237176103
-0.7354594237176103
-0.8031586175326066
-0.8400854505226096
-0.9324025329976448
-0.9754838381526297
-1.0185651433076426
-1.0062561989776508
-0.9693293659876481
-0.9324025329976448
-0.901630172172624
-0.8585488670176111
-1.000101726812641
-1.2955163907326928
-0.7539228402126119
-0.7354594237176103
-0.8277765061926179
-0.8339309783576276
-0.8154675618626261
-0.7600773123775938
-0.7662317845426038
-0.7231504793875909
-0.7293049515526008
-0.7169960072226089
-0.6677602299025863
-0.6616057577376044
-0.7477683680476023
-0.7354594237176103
-0.7908496732026148
-0.7600773123775938
-0.6985325907276074
-0.6677602299025863
-0.6616057577376044
-0.6369878690775933
-0.6246789247476013
-0.5939065639225805
-0.6308333969125834
-0.6492968134075848
-0.6616057577376044
-0.6308333969125834
-0.6062155082525723
-0.5939065639225805
-0.575443147427579
-0.4400447597975588
-0.4831260649525715
-0.5077439536125827
-0.49543500928256323
-0.46466264845757
-0.4831260649525715
-0.4892805371175811
-0.4892805371175811
-0.4400447597975588
-0.5015894814475731
-0.5077439536125827
-0.5262073701075842
-0.5015894814475731
-0.360036621652543
-0.15693904020752658
0.003077236082504875
0.02154065257750637
-0.18155692886753785
-0.29233742783754685
-0.31695531649755804
-0.2800284835075273
-0.2554105948475438
-0.24925612268253405
-0.2431016505175243
-0.2184837618575408
-0.29233742783754685
-0.2800284835075273
-0.26771953917753555
-0.06462195773251911
0.3723455659825625
-0.21232928969253104
-0.1692479845375183
-0.32310978866254003
-0.6062155082525723
-0.433890287632549
-0.35388214948756097
-0.2984919000025288
-0.26156506701252585
-0.24925612268253405
-0.23079270618753256
-0.18155692886753785
-0.2554105948475438
-0.23079270618753256
-0.23694717835254234
-0.21232928969253104
-0.18155692886753785
-0.1938658731975296
-0.18771140103251985
-0.14463009587750708
-0.2061748175275213
-0.18155692886753785
-0.2000203453625393
-0.2184837618575408
-0.18771140103251985
-0.1938658731975296
-0.21232928969253104
-0.15078456804251686
-0.2061748175275213
-0.2061748175275213
-0.1938658731975296
-0.16309351237253633
-0.16309351237253633
-0.2000203453625393
-0.23079270618753256
-0.23079270618753256
-0.31695531649755804
-0.30464637216753854
-0.2738740113425453
-0.28618295567253704
-0.3108008443325483
-0.30464637216753854
-0.2800284835075273
-0.23079270618753256
-0.3108008443325483
-0.30464637216753854
-0.2246382340225228
-0.2800284835075273
-0.2984919000025288
-0.2984919000025288
-0.2800284835075273
-0.23694717835254234
-0.31695531649755804
-0.2984919000025288
-0.28618295567253704
-0.26156506701252585
-0.26771953917753555
-0.2738740113425453
-0.26771953917753555
-0.26156506701252585
-0.30464637216753854
-0.26771953917753555
-0.34772767732255133
-0.6677602299025863
-0.1261666793825056
-0.09539431855751236
-0.18155692886753785
-0.16309351237253633
-0.2554105948475438
-0.2554105948475438
-0.26156506701252585
-0.23694717835254234
-0.26771953917753555
-0.2738740113425453
-0.26156506701252585
-0.2431016505175243
-0.06462195773251911
0.08308537422752059
-0.08308537422752059
-0.16309351237253633
-0.2000203453625393
-0.1938658731975296
-0.17540245670252808
-0.16309351237253633
-0.2184837618575408
-0.2000203453625393
-0.18771140103251985
-0.2061748175275213
-0.23694717835254234
-0.24925612268253405
-0.24925612268253405
-0.40927239897256545
-0.5815976195925888
-0.42158134330255725
-0.35388214948756097
-0.3415732051575415
-0.31695531649755804
-0.30464637216753854
-0.2800284835075273
-0.26156506701252585
-0.32310978866254003
-0.30464637216753854
-0.26771953917753555
-0.26771953917753555
-0.2984919000025288
-0.30464637216753854
-0.3354187329925596
-0.35388214948756097
-0.40311792680755576
-0.3415732051575415
-0.26156506701252585
-0.24925612268253405
-0.2184837618575408
-0.2184837618575408
-0.2246382340225228
-0.2184837618575408
-0.30464637216753854
-0.2984919000025288
-0.29233742783754685
-0.30464637216753854
-0.2984919000025288
-0.058467485567509365
0.3723455659825625
-0.5446707866025856
-0.6185244525825918
-0.4400447597975588
-0.40311792680755576
-0.35388214948756097
-0.3354187329925596
-0.29233742783754685
-0.2431016505175243
-0.23079270618753256
-0.23079270618753256
-0.21232928969253104
-0.2246382340225228
-0.2000203453625393
-0.14463009587750708
-0.18155692886753785
-0.18771140103251985
-0.18155692886753785
-0.23694717835254234
-0.2061748175275213
-0.2061748175275213
-0.21232928969253104
-0.1938658731975296
-0.1938658731975296
-0.1938658731975296
-0.1692479845375183
-0.2061748175275213
-0.2061748175275213
-0.21232928969253104
-0.2000203453625393
-0.1938658731975296
-0.17540245670252808
-0.18771140103251985
-0.1692479845375183
-0.2000203453625393
-0.2000203453625393
-0.1938658731975296
-0.18155692886753785
-0.18771140103251985
-0.2061748175275213
-0.2000203453625393
-0.1938658731975296
-0.23694717835254234
-0.21232928969253104
-0.21232928969253104
-0.2061748175275213
-0.2061748175275213
-0.2000203453625393
-0.1692479845375183
-0.16309351237253633
-0.2000203453625393
-0.18155692886753785
-0.16309351237253633
-0.15078456804251686
-0.14463009587750708
-0.1384756237125251
-0.04000406907250786
0.23694717835254234
-0.538516314437576
0.15693904020752658
0.02769512474251612
-0.0707764298975011
-0.1261666793825056
-0.13232115154751534
-0.18155692886753785
-0.49543500928256323
-0.5015894814475731
-0.35388214948756097
-0.2984919000025288
-0.24925612268253405
-0.2184837618575408
-0.21232928969253104
-0.17540245670252808
-0.18155692886753785
-0.2061748175275213
-0.2000203453625393
-0.1938658731975296
-0.2061748175275213
-0.21232928969253104
-0.2061748175275213
-0.17540245670252808
-0.15078456804251686
-0.2000203453625393
-0.2061748175275213
-0.1938658731975296
-0.18155692886753785
-0.2000203453625393
-0.2184837618575408
-0.2061748175275213
-0.14463009587750708
-0.18771140103251985
-0.1938658731975296
-0.2000203453625393
-0.2000203453625393
-0.2000203453625393
-0.2061748175275213
-0.18155692886753785
-0.1938658731975296
-0.23079270618753256
-0.2061748175275213
-0.2246382340225228
-0.2061748175275213
-0.21232928969253104
-0.2000203453625393
-0.2061748175275213
-0.30464637216753854
-0.2984919000025288
-0.2738740113425453
-0.2554105948475438
-0.26156506701252585
-0.2738740113425453
-0.23694717835254234
-0.2000203453625393
-0.24925612268253405
-0.28618295567253704
-0.24925612268253405
-0.2431016505175243
-0.24925612268253405
-0.23079270618753256
-0.18771140103251985
-0.538516314437576
0.02154065257750637
0.6369878690775933
-0.15078456804251686
-0.1261666793825056
-0.14463009587750708
-0.15078456804251686
-0.15693904020752658
-0.21232928969253104
-0.5692886752625692
-0.45850817629256013
-0.3108008443325483
-0.2800284835075273
-0.2246382340225228
0.033849596907498114
-0.04615854123751762
-0.07693090206251085
-0.1200122072175236
-0.1938658731975296
-0.17540245670252808
-0.18155692886753785
-0.21232928969253104
-0.18771140103251985
-0.2000203453625393
-0.1938658731975296
-0.2000203453625393
-0.2061748175275213
-0.23694717835254234
-0.2246382340225228
-0.3723455659825625
-0.390808982477564
-0.3108008443325483
-0.26156506701252585
-0.2800284835075273
-0.23694717835254234
-0.2000203453625393
-0.2061748175275213
-0.2000203453625393
-0.2061748175275213
-0.2184837618575408
-0.2000203453625393
-0.2184837618575408
-0.2184837618575408
-0.2184837618575408
-0.2061748175275213
-0.2184837618575408
-0.21232928969253104
-0.2246382340225228
-0.1938658731975296
-0.2184837618575408
-0.1938658731975296
-0.2000203453625393
-0.18771140103251985
-0.1692479845375183
-0.16309351237253633
-0.1692479845375183
0.1384756237125251
-0.1384756237125251
-0.360036621652543
-0.18771140103251985
-0.2000203453625393
-0.2000203453625393
-0.1938658731975296
-0.2000203453625393
-0.26156506701252585
-0.6616057577376044
-0.11385773505251384
-0.05231301340249961
-0.15693904020752658
-0.2000203453625393
-0.1938658731975296
-0.2061748175275213
-0.18771140103251985
-0.24925612268253405
-0.2431016505175243
-0.2554105948475438
-0.23694717835254234
-0.23694717835254234
-0.23079270618753256
-0.21232928969253104
-0.1938658731975296
-0.21232928969253104
-0.2061748175275213
-0.18155692886753785
-0.18155692886753785
-0.18155692886753785
-0.18155692886753785
-0.1938658731975296
-0.15693904020752658
-0.23694717835254234
-0.2246382340225228
-0.21232928969253104
-0.2000203453625393
-0.1938658731975296
-0.2061748175275213
-0.21232928969253104
-0.18155692886753785
-0.26156506701252585
-0.23079270618753256
-0.2000203453625393
-0.18155692886753785
-0.16309351237253633
-0.15078456804251686
-0.15078456804251686
-0.1384756237125251
-0.28618295567253704
-0.29233742783754685
-0.26771953917753555
-0.24925612268253405
-0.2246382340225228
-0.2061748175275213
-0.2000203453625393
-0.14463009587750708
-0.2246382340225228
-0.2246382340225228
-0.1938658731975296
-0.21232928969253104
-0.2000203453625393
-0.16309351237253633
-0.1384756237125251
-0.1261666793825056
-0.2061748175275213
-0.23079270618753256
-0.06462195773251911
0.3292642608275498
-0.23079270618753256
-0.1384756237125251
-0.10770326288750408
-0.2000203453625393
-0.5200528979425745
-0.3415732051575415
-0.2800284835075273
-0.26771953917753555
-0.2554105948475438
-0.2800284835075273
-0.2984919000025288
-0.2184837618575408
-0.2984919000025288
-0.28618295567253704
-0.2738740113425453
-0.2554105948475438
-0.2554105948475438
-0.23694717835254234
-0.21232928969253104
-0.18771140103251985
-0.23694717835254234
-0.2184837618575408
-0.21232928969253104
-0.15693904020752658
-0.14463009587750708
-0.1938658731975296
-0.18155692886753785
-0.15078456804251686
-0.23079270618753256
-0.23694717835254234
-0.21232928969253104
-0.2000203453625393
-0.2061748175275213
-0.15693904020752658
-0.1261666793825056
-0.0707764298975011
-0.16309351237253633
-0.14463009587750708
-0.11385773505251384
-0.24925612268253405
-0.23079270618753256
-0.13232115154751534
-0.11385773505251384
-0.04000406907250786
-0.09539431855751236
-0.08923984639250258
-0.0707764298975011
-0.08308537422752059
-0.07693090206251085
-0.0707764298975011
-0.08923984639250258
-0.05231301340249961
-0.15693904020752658
-0.01538618041249662
0.31695531649755804
0.1200122072175236
0.003077236082504875
-0.06462195773251911
-0.08923984639250258
-0.08308537422752059
-0.18155692886753785
-0.23694717835254234
-0.5939065639225805
-0.08308537422752059
-0.02154065257750637
-0.1384756237125251
-0.14463009587750708
-0.1015487907225221
-0.2984919000025288
-0.5508252587675677
-0.3846545103125543
-0.28618295567253704
-0.2554105948475438
-0.2246382340225228
-0.1938658731975296
-0.15693904020752658
-0.2000203453625393
-0.1692479845375183
-0.16309351237253633
-0.15078456804251686
-0.14463009587750708
-0.15078456804251686
-0.1384756237125251
-0.04615854123751762
-0.09539431855751236
-0.1015487907225221
-0.08308537422752059
-0.10770326288750408
-0.1261666793825056
-0.1261666793825056
-0.15078456804251686
-0.15078456804251686
-0.2431016505175243
-0.23079270618753256
-0.2184837618575408
-0.2184837618575408
-0.23079270618753256
-0.2246382340225228
-0.17540245670252808
-0.09539431855751236
-0.23694717835254234
-0.26771953917753555
-0.24925612268253405
-0.23694717835254234
-0.2554105948475438
-0.24925612268253405
-0.23079270618753256
-0.18771140103251985
-0.2246382340225228
-0.21232928969253104
-0.1938658731975296
