-0.2800284835075273
-0.28618295567253704
-0.28618295567253704
-0.28618295567253704
-0.28618295567253704
-0.2800284835075273
-0.28618295567253704
-0.2738740113425453
-0.2738740113425453
-0.2738740113425453
-0.2738740113425453
-0.2738740113425453
-0.2800284835075273
-0.2738740113425453
-0.2800284835075273
-0.2738740113425453
-0.2800284835075273
-0.2738740113425453
-0.2800284835075273
-0.2800284835075273
-0.2738740113425453
-0.2800284835075273
-0.2800284835075273
-0.28618295567253704
-0.2738740113425453
-0.2738740113425453
-0.28618295567253704
-0.28618295567253704
-0.2800284835075273
-0.28618295567253704
-0.2800284835075273
-0.28618295567253704
-0.2800284835075273
-0.2800284835075273
-0.28618295567253704
-0.2800284835075273
-0.2800284835075273
-0.28618295567253704
-0.2800284835075273
-0.2800284835075273
-0.28618295567253704
-0.2800284835075273
-0.28618295567253704
-0.28618295567253704
-0.28618295567253704
-0.29233742783754685
-0.2800284835075273
-0.28618295567253704
-0.28618295567253704
-0.2800284835075273
-0.2800284835075273
-0.28618295567253704
-0.2800284835075273
-0.2800284835075273
-0.2800284835075273
-0.28618295567253704
-0.2800284835075273
-0.2800284835075273
-0.28618295567253704
-0.28618295567253704
-0.28618295567253704
-0.2800284835075273
-0.2800284835075273
-0.28618295567253704
-0.28618295567253704
-0.2738740113425453
-0.2800284835075273
-0.2738740113425453
-0.2738740113425453
-0.2738740113425453
-0.2800284835075273
-0.2800284835075273
-0.2800284835075273
-0.2738740113425453
-0.2738740113425453
-0.2738740113425453
-0.2800284835075273
-0.2800284835075273
-0.2800284835075273
-0.2800284835075273
-0.26771953917753555
-0.26771953917753555
-0.26771953917753555
-0.2738740113425453
-0.26771953917753555
-0.2738740113425453
-0.26771953917753555
-0.2738740113425453
-0.2800284835075273
-0.2738740113425453
-0.2800284835075273
-0.2738740113425453
-0.2738740113425453
-0.2738740113425453
-0.2800284835075273
-0.2800284835075273
-0.2800284835075273
-0.2738740113425453
-0.2800284835075273
-0.2738740113425453
-0.2738740113425453
-0.26771953917753555
-0.2800284835075273
-0.2800284835075273
-0.30464637216753854
-0.2738740113425453
-0.2554105948475438
-0.26156506701252585
-0.2554105948475438
-0.26156506701252585
-0.26156506701252585
-0.2800284835075273
-0.2800284835075273
-0.26771953917753555
-0.2738740113425453
-0.26771953917753555
-0.2738740113425453
-0.26771953917753555
-0.2738740113425453
-0.26771953917753555
-0.26771953917753555
-0.2738740113425453
-0.2738740113425453
-0.2738740113425453
-0.2738740113425453
-0.2738740113425453
-0.2800284835075273
-0.2800284835075273
-0.2800284835075273
-0.2800284835075273
-0.29233742783754685
-0.2984919000025288
-0.30464637216753854
-0.29233742783754685
-0.2800284835075273
-0.24925612268253405
-0.2061748175275213
-0.18155692886753785
-0.1692479845375183
-0.2061748175275213
-0.2738740113425453
-0.32310978866254003
-0.36619109381755277
-0.3723455659825625
-0.360036621652543
-0.3354187329925596
-0.3108008443325483
-0.2984919000025288
-0.29233742783754685
-0.29233742783754685
-0.28618295567253704
-0.2800284835075273
-0.2800284835075273
-0.2738740113425453
-0.2738740113425453
-0.2738740113425453
-0.2738740113425453
-0.2738740113425453
-0.2738740113425453
-0.2738740113425453
-0.26156506701252585
-0.26771953917753555
-0.26156506701252585
-0.26156506701252585
-0.26156506701252585
-0.26156506701252585
-0.26771953917753555
-0.26771953917753555
-0.26156506701252585
-0.26156506701252585
-0.2554105948475438
-0.2554105948475438
-0.2554105948475438
-0.2554105948475438
-0.2554105948475438
-0.2554105948475438
-0.26156506701252585
-0.2554105948475438
-0.2554105948475438
-0.2554105948475438
-0.2554105948475438
-0.2554105948475438
-0.24925612268253405
-0.24925612268253405
-0.24925612268253405
-0.2554105948475438
-0.2554105948475438
-0.2554105948475438
-0.2554105948475438
-0.2554105948475438
-0.26156506701252585
-0.2554105948475438
-0.26156506701252585
-0.26156506701252585
-0.24925612268253405
-0.24925612268253405
-0.2554105948475438
-0.2554105948475438
-0.2554105948475438
-0.2554105948475438
-0.2554105948475438
-0.24925612268253405
-0.24925612268253405
-0.24925612268253405
-0.24925612268253405
-0.24925612268253405
-0.24925612268253405
-0.2431016505175243
-0.24925612268253405
-0.24925612268253405
-0.2431016505175243
-0.2431016505175243
-0.24925612268253405
-0.24925612268253405
-0.26771953917753555
-0.28618295567253704
-0.2554105948475438
-0.2554105948475438
-0.24925612268253405
-0.2554105948475438
-0.26156506701252585
-0.2554105948475438
-0.26156506701252585
-0.2738740113425453
-0.26771953917753555
-0.2738740113425453
-0.29233742783754685
-0.26156506701252585
-0.2554105948475438
-0.26156506701252585
-0.26771953917753555
-0.2738740113425453
-0.26771953917753555
-0.26771953917753555
-0.26771953917753555
-0.26771953917753555
-0.26156506701252585
-0.2554105948475438
-0.26771953917753555
-0.26771953917753555
-0.2554105948475438
-0.26156506701252585
-0.2554105948475438
-0.2554105948475438
-0.26156506701252585
-0.26156506701252585
-0.2554105948475438
-0.26156506701252585
-0.26156506701252585
-0.26156506701252585
-0.2554105948475438
-0.26156506701252585
-0.2554105948475438
-0.2554105948475438
-0.26156506701252585
-0.2554105948475438
-0.26156506701252585
-0.2554105948475438
-0.2554105948475438
-0.26156506701252585
-0.2554105948475438
-0.24925612268253405
-0.2554105948475438
-0.26156506701252585
-0.2554105948475438
-0.2554105948475438
-0.2554105948475438
-0.2554105948475438
-0.26156506701252585
-0.26156506701252585
-0.2554105948475438
-0.2554105948475438
-0.26156506701252585
-0.26156506701252585
-0.26156506701252585
-0.26156506701252585
-0.2554105948475438
-0.2554105948475438
-0.26156506701252585
-0.2554105948475438
-0.26156506701252585
-0.26156506701252585
-0.2554105948475438
-0.2554105948475438
-0.26156506701252585
-0.26156506701252585
-0.26156506701252585
-0.2554105948475438
-0.2554105948475438
-0.26156506701252585
-0.26156506701252585
-0.2554105948475438
-0.2554105948475438
-0.26156506701252585
-0.26156506701252585
-0.26771953917753555
-0.2554105948475438
-0.26156506701252585
-0.2554105948475438
-0.26156506701252585
-0.2554105948475438
-0.26156506701252585
-0.2554105948475438
-0.2554105948475438
-0.26156506701252585
-0.26156506701252585
-0.2554105948475438
-0.2554105948475438
-0.2554105948475438
-0.2554105948475438
-0.2554105948475438
-0.24925612268253405
-0.2554105948475438
-0.24925612268253405
-0.2554105948475438
-0.2554105948475438
-0.24925612268253405
-0.24925612268253405
-0.24925612268253405
-0.24925612268253405
-0.2554105948475438
-0.24925612268253405
-0.24925612268253405
-0.2554105948475438
-0.2554105948475438
-0.2554105948475438
-0.2554105948475438
-0.2554105948475438
-0.2554105948475438
-0.24925612268253405
-0.2554105948475438
-0.24925612268253405
-0.24925612268253405
-0.2554105948475438
-0.24925612268253405
-0.24925612268253405
-0.2431016505175243
-0.23079270618753256
-0.23694717835254234
-0.23079270618753256
-0.23079270618753256
-0.23694717835254234
-0.23694717835254234
-0.23079270618753256
-0.23079270618753256
-0.23079270618753256
-0.23079270618753256
-0.2431016505175243
-0.26771953917753555
-0.23079270618753256
-0.23694717835254234
-0.2431016505175243
-0.24925612268253405
-0.2431016505175243
-0.2431016505175243
-0.2431016505175243
-0.2431016505175243
-0.23079270618753256
-0.23694717835254234
-0.23694717835254234
-0.2431016505175243
-0.24925612268253405
-0.26156506701252585
-0.26771953917753555
-0.2554105948475438
-0.23694717835254234
-0.2061748175275213
-0.1692479845375183
-0.1384756237125251
-0.1200122072175236
-0.1384756237125251
-0.2000203453625393
-0.2554105948475438
-0.30464637216753854
-0.3108008443325483
-0.2984919000025288
-0.28618295567253704
-0.2738740113425453
-0.2554105948475438
-0.24925612268253405
-0.2431016505175243
-0.23694717835254234
-0.2431016505175243
-0.2431016505175243
-0.23694717835254234
-0.2431016505175243
-0.23694717835254234
-0.2431016505175243
-0.2431016505175243
-0.23694717835254234
-0.2431016505175243
-0.2431016505175243
-0.23079270618753256
-0.23694717835254234
-0.2431016505175243
-0.23694717835254234
-0.24925612268253405
-0.2431016505175243
-0.2431016505175243
-0.2431016505175243
-0.2431016505175243
-0.23694717835254234
-0.2431016505175243
-0.23694717835254234
-0.2431016505175243
-0.2431016505175243
-0.2431016505175243
-0.23694717835254234
-0.23694717835254234
-0.23694717835254234
-0.2431016505175243
-0.24925612268253405
-0.23694717835254234
-0.2431016505175243
-0.2431016505175243
-0.23694717835254234
-0.2431016505175243
-0.2431016505175243
-0.23694717835254234
-0.2431016505175243
-0.24925612268253405
-0.23694717835254234
-0.23694717835254234
-0.23694717835254234
-0.23694717835254234
-0.2431016505175243
-0.24925612268253405
-0.24925612268253405
-0.24925612268253405
-0.24925612268253405
-0.2431016505175243
-0.2431016505175243
-0.2431016505175243
-0.24925612268253405
-0.2431016505175243
-0.23694717835254234
-0.2431016505175243
-0.2431016505175243
-0.23694717835254234
-0.2431016505175243
-0.2431016505175243
-0.23694717835254234
-0.2431016505175243
-0.2431016505175243
-0.2431016505175243
-0.2431016505175243
-0.2431016505175243
-0.23694717835254234
-0.23694717835254234
-0.23694717835254234
-0.23694717835254234
-0.2431016505175243
-0.2431016505175243
-0.23694717835254234
-0.2431016505175243
-0.23694717835254234
-0.23694717835254234
-0.23079270618753256
-0.23694717835254234
-0.23694717835254234
-0.2431016505175243
-0.24925612268253405
-0.2431016505175243
-0.2431016505175243
-0.2431016505175243
-0.2431016505175243
-0.24925612268253405
-0.24925612268253405
-0.24925612268253405
-0.2554105948475438
-0.2800284835075273
-0.2431016505175243
-0.23694717835254234
-0.2431016505175243
-0.2431016505175243
-0.2431016505175243
-0.23694717835254234
-0.2431016505175243
-0.26156506701252585
-0.2554105948475438
-0.26156506701252585
-0.24925612268253405
-0.2554105948475438
-0.24925612268253405
-0.24925612268253405
-0.24925612268253405
-0.24925612268253405
-0.2554105948475438
-0.24925612268253405
-0.24925612268253405
-0.24925612268253405
-0.2554105948475438
-0.24925612268253405
-0.24925612268253405
-0.2554105948475438
-0.2554105948475438
-0.2554105948475438
-0.2554105948475438
-0.24925612268253405
-0.2554105948475438
-0.24925612268253405
-0.2554105948475438
-0.2554105948475438
-0.2554105948475438
-0.2554105948475438
-0.2554105948475438
-0.24925612268253405
-0.24925612268253405
-0.24925612268253405
-0.2554105948475438
-0.2554105948475438
-0.24925612268253405
-0.2554105948475438
-0.24925612268253405
-0.2554105948475438
-0.24925612268253405
-0.2554105948475438
-0.26156506701252585
-0.26156506701252585
-0.26156506701252585
-0.2554105948475438
-0.2554105948475438
-0.2554105948475438
-0.2554105948475438
-0.26156506701252585
-0.26156506701252585
-0.26156506701252585
-0.2554105948475438
-0.2554105948475438
-0.2554105948475438
-0.2554105948475438
-0.24925612268253405
-0.2431016505175243
-0.2554105948475438
-0.29233742783754685
-0.2554105948475438
-0.2431016505175243
-0.2554105948475438
-0.24925612268253405
-0.24925612268253405
-0.24925612268253405
-0.2554105948475438
-0.26771953917753555
-0.26771953917753555
-0.26156506701252585
-0.2554105948475438
-0.26771953917753555
-0.26771953917753555
-0.26156506701252585
-0.26156506701252585
-0.26156506701252585
-0.26156506701252585
-0.2554105948475438
-0.2554105948475438
-0.2554105948475438
-0.2554105948475438
-0.24925612268253405
-0.2554105948475438
-0.2554105948475438
-0.26156506701252585
-0.24925612268253405
-0.2554105948475438
-0.26156506701252585
-0.26156506701252585
-0.26771953917753555
-0.26771953917753555
-0.26771953917753555
-0.26156506701252585
-0.2554105948475438
-0.26156506701252585
-0.2554105948475438
-0.26156506701252585
-0.26156506701252585
-0.24925612268253405
-0.24925612268253405
-0.26156506701252585
-0.2554105948475438
-0.26771953917753555
-0.26156506701252585
-0.26771953917753555
-0.26771953917753555
-0.26156506701252585
-0.26771953917753555
-0.26771953917753555
-0.2554105948475438
-0.2554105948475438
-0.24925612268253405
-0.2554105948475438
-0.24925612268253405
-0.24925612268253405
-0.26156506701252585
-0.2800284835075273
-0.31695531649755804
-0.2800284835075273
-0.26771953917753555
-0.2431016505175243
-0.1938658731975296
-0.15693904020752658
-0.1261666793825056
-0.11385773505251384
-0.1692479845375183
-0.23694717835254234
-0.28618295567253704
-0.32310978866254003
-0.31695531649755804
-0.30464637216753854
-0.28618295567253704
-0.2738740113425453
-0.26156506701252585
-0.2554105948475438
-0.26156506701252585
-0.24925612268253405
-0.2554105948475438
-0.2554105948475438
-0.2554105948475438
-0.24925612268253405
-0.2431016505175243
-0.24925612268253405
-0.2431016505175243
-0.2431016505175243
-0.23694717835254234
-0.23694717835254234
-0.2431016505175243
-0.23694717835254234
-0.23079270618753256
-0.23079270618753256
-0.23694717835254234
-0.23079270618753256
-0.23079270618753256
-0.23079270618753256
-0.2246382340225228
-0.2246382340225228
-0.23079270618753256
-0.2246382340225228
-0.2246382340225228
-0.2246382340225228
-0.23079270618753256
-0.23079270618753256
-0.23079270618753256
-0.23079270618753256
-0.2246382340225228
-0.2246382340225228
-0.2184837618575408
-0.2184837618575408
-0.2184837618575408
-0.2184837618575408
-0.2184837618575408
-0.2246382340225228
-0.2246382340225228
-0.2246382340225228
-0.2246382340225228
-0.2246382340225228
-0.2184837618575408
-0.2184837618575408
-0.2246382340225228
-0.23079270618753256
-0.2184837618575408
-0.2246382340225228
-0.2184837618575408
-0.2246382340225228
-0.2246382340225228
-0.2184837618575408
-0.2184837618575408
-0.2184837618575408
-0.21232928969253104
-0.21232928969253104
-0.21232928969253104
-0.2184837618575408
-0.2184837618575408
-0.21232928969253104
-0.21232928969253104
-0.21232928969253104
-0.2184837618575408
-0.21232928969253104
-0.2184837618575408
-0.21232928969253104
-0.21232928969253104
-0.2184837618575408
-0.2246382340225228
-0.21232928969253104
-0.2246382340225228
-0.2184837618575408
-0.21232928969253104
-0.21232928969253104
-0.21232928969253104
-0.2184837618575408
-0.2184837618575408
-0.2184837618575408
-0.2246382340225228
-0.2246382340225228
-0.2246382340225228
-0.2246382340225228
-0.2246382340225228
-0.23079270618753256
-0.23694717835254234
-0.2246382340225228
-0.23079270618753256
-0.2246382340225228
-0.23079270618753256
-0.2246382340225228
-0.2246382340225228
-0.2246382340225228
-0.2184837618575408
-0.2184837618575408
-0.2184837618575408
-0.21232928969253104
-0.2184837618575408
-0.2184837618575408
-0.21232928969253104
-0.2184837618575408
-0.21232928969253104
-0.2184837618575408
-0.2184837618575408
-0.2246382340225228
-0.23694717835254234
-0.2061748175275213
-0.2061748175275213
-0.2061748175275213
-0.2184837618575408
-0.2184837618575408
-0.2061748175275213
-0.21232928969253104
-0.21232928969253104
-0.2061748175275213
-0.2000203453625393
-0.2000203453625393
-0.2061748175275213
-0.2061748175275213
-0.2061748175275213
-0.21232928969253104
-0.21232928969253104
-0.21232928969253104
-0.2061748175275213
-0.21232928969253104
-0.21232928969253104
-0.21232928969253104
-0.21232928969253104
-0.21232928969253104
-0.21232928969253104
-0.2061748175275213
-0.2061748175275213
-0.21232928969253104
-0.21232928969253104
-0.21232928969253104
-0.2061748175275213
-0.21232928969253104
-0.2061748175275213
-0.21232928969253104
-0.2061748175275213
-0.2061748175275213
-0.21232928969253104
-0.2061748175275213
-0.2061748175275213
-0.2061748175275213
-0.21232928969253104
-0.21232928969253104
-0.2061748175275213
-0.21232928969253104
-0.21232928969253104
-0.2061748175275213
-0.2061748175275213
-0.21232928969253104
-0.2184837618575408
-0.2061748175275213
-0.2061748175275213
-0.2061748175275213
-0.2061748175275213
-0.21232928969253104
-0.21232928969253104
-0.2184837618575408
-0.2061748175275213
-0.2061748175275213
-0.2184837618575408
-0.2184837618575408
-0.2184837618575408
-0.2184837618575408
-0.21232928969253104
-0.2246382340225228
-0.21232928969253104
-0.2184837618575408
-0.2184837618575408
-0.21232928969253104
-0.21232928969253104
-0.2184837618575408
-0.2184837618575408
-0.21232928969253104
-0.2184837618575408
-0.2184837618575408
-0.21232928969253104
-0.2184837618575408
-0.21232928969253104
-0.21232928969253104
-0.21232928969253104
-0.21232928969253104
-0.2246382340225228
-0.2184837618575408
-0.2184837618575408
-0.2246382340225228
-0.2184837618575408
-0.2246382340225228
-0.2184837618575408
-0.2184837618575408
-0.2184837618575408
-0.2184837618575408
-0.2184837618575408
-0.2184837618575408
-0.2184837618575408
-0.2184837618575408
-0.2061748175275213
-0.21232928969253104
-0.2061748175275213
-0.2184837618575408
-0.21232928969253104
-0.21232928969253104
-0.2184837618575408
-0.2061748175275213
-0.2061748175275213
-0.21232928969253104
-0.2184837618575408
-0.2184837618575408
-0.2246382340225228
-0.2184837618575408
-0.2246382340225228
-0.2246382340225228
-0.2246382340225228
-0.2246382340225228
-0.2184837618575408
-0.2246382340225228
-0.2246382340225228
-0.2246382340225228
-0.23079270618753256
-0.23079270618753256
-0.24925612268253405
-0.2554105948475438
-0.2554105948475438
-0.24925612268253405
-0.2554105948475438
-0.17540245670252808
-0.1384756237125251
-0.08308537422752059
-0.07693090206251085
-0.13232115154751534
-0.2061748175275213
-0.26771953917753555
-0.3108008443325483
-0.30464637216753854
-0.2984919000025288
-0.26771953917753555
-0.2554105948475438
-0.2554105948475438
-0.24925612268253405
-0.2431016505175243
-0.24925612268253405
-0.2554105948475438
-0.26771953917753555
-0.23079270618753256
-0.23079270618753256
-0.23694717835254234
-0.2431016505175243
-0.2431016505175243
-0.2431016505175243
-0.23694717835254234
-0.24925612268253405
-0.2431016505175243
-0.2431016505175243
-0.24925612268253405
-0.2431016505175243
-0.24925612268253405
-0.24925612268253405
-0.24925612268253405
-0.2431016505175243
-0.23694717835254234
-0.2431016505175243
-0.23694717835254234
-0.2431016505175243
-0.2431016505175243
-0.23694717835254234
-0.24925612268253405
-0.24925612268253405
-0.2431016505175243
-0.23694717835254234
-0.2431016505175243
-0.2431016505175243
-0.23694717835254234
-0.23694717835254234
-0.23694717835254234
-0.23694717835254234
-0.23694717835254234
-0.23694717835254234
-0.2431016505175243
-0.2431016505175243
-0.23694717835254234
-0.23694717835254234
-0.2431016505175243
-0.23694717835254234
-0.23694717835254234
-0.2431016505175243
-0.2431016505175243
-0.2431016505175243
-0.23694717835254234
-0.2431016505175243
-0.2431016505175243
-0.23694717835254234
-0.2431016505175243
-0.23694717835254234
-0.2431016505175243
-0.23694717835254234
-0.23694717835254234
-0.23694717835254234
-0.23694717835254234
-0.23694717835254234
-0.23694717835254234
-0.2431016505175243
-0.23694717835254234
-0.2431016505175243
-0.23694717835254234
-0.23694717835254234
-0.24925612268253405
-0.2431016505175243
-0.2431016505175243
-0.23694717835254234
-0.2431016505175243
-0.24925612268253405
-0.2431016505175243
-0.24925612268253405
-0.2431016505175243
-0.24925612268253405
-0.24925612268253405
-0.2431016505175243
-0.2431016505175243
-0.2431016505175243
-0.2431016505175243
-0.2431016505175243
-0.24925612268253405
-0.2431016505175243
-0.23694717835254234
-0.2431016505175243
-0.23694717835254234
-0.2431016505175243
-0.23694717835254234
-0.2431016505175243
-0.24925612268253405
-0.2431016505175243
-0.2431016505175243
-0.2431016505175243
-0.24925612268253405
-0.2431016505175243
-0.23694717835254234
-0.2431016505175243
-0.24925612268253405
-0.2431016505175243
-0.23694717835254234
-0.23694717835254234
-0.2431016505175243
-0.23694717835254234
-0.2431016505175243
-0.23079270618753256
-0.2431016505175243
-0.2738740113425453
-0.23694717835254234
-0.23694717835254234
-0.23079270618753256
-0.23079270618753256
-0.2246382340225228
-0.23079270618753256
-0.2431016505175243
-0.24925612268253405
-0.23694717835254234
-0.23694717835254234
-0.23079270618753256
-0.23079270618753256
-0.23079270618753256
-0.23079270618753256
-0.23079270618753256
-0.23079270618753256
-0.23079270618753256
-0.23694717835254234
-0.23694717835254234
-0.23694717835254234
-0.23079270618753256
-0.23694717835254234
-0.23079270618753256
-0.23079270618753256
-0.23694717835254234
-0.23079270618753256
-0.23079270618753256
-0.23079270618753256
-0.23694717835254234
-0.23079270618753256
-0.23694717835254234
-0.23694717835254234
-0.23694717835254234
-0.23079270618753256
-0.23079270618753256
-0.2246382340225228
-0.2246382340225228
-0.2246382340225228
-0.2184837618575408
-0.2246382340225228
-0.2246382340225228
-0.2246382340225228
-0.2184837618575408
-0.2246382340225228
-0.2246382340225228
-0.2246382340225228
-0.2246382340225228
-0.23079270618753256
-0.2184837618575408
-0.2246382340225228
-0.2184837618575408
-0.2246382340225228
-0.23079270618753256
-0.2246382340225228
-0.2246382340225228
-0.23079270618753256
-0.2246382340225228
-0.2246382340225228
-0.2246382340225228
-0.23079270618753256
-0.23079270618753256
-0.23079270618753256
-0.23079270618753256
-0.2246382340225228
-0.23079270618753256
-0.23079270618753256
-0.23079270618753256
-0.2246382340225228
-0.23079270618753256
-0.23079270618753256
-0.23079270618753256
-0.23079270618753256
-0.2246382340225228
-0.2246382340225228
-0.2246382340225228
-0.23079270618753256
-0.2246382340225228
-0.2246382340225228
-0.23694717835254234
-0.23079270618753256
-0.2246382340225228
-0.23079270618753256
-0.23079270618753256
-0.2246382340225228
-0.23079270618753256
-0.2246382340225228
-0.2246382340225228
-0.2246382340225228
-0.2184837618575408
-0.2184837618575408
-0.2246382340225228
-0.2246382340225228
-0.2246382340225228
-0.2246382340225228
-0.2246382340225228
-0.23079270618753256
-0.2246382340225228
-0.2246382340225228
-0.23079270618753256
-0.2184837618575408
-0.21232928969253104
-0.2061748175275213
-0.21232928969253104
-0.2061748175275213
-0.21232928969253104
-0.21232928969253104
-0.2246382340225228
-0.2184837618575408
-0.2184837618575408
-0.2184837618575408
-0.2184837618575408
-0.2184837618575408
-0.2184837618575408
-0.21232928969253104
-0.2246382340225228
-0.2184837618575408
-0.2184837618575408
-0.2246382340225228
-0.23079270618753256
-0.23694717835254234
-0.26771953917753555
-0.28618295567253704
-0.23694717835254234
-0.2000203453625393
-0.15693904020752658
-0.11385773505251384
-0.07693090206251085
-0.07693090206251085
-0.1261666793825056
-0.2000203453625393
-0.26156506701252585
-0.29233742783754685
-0.2984919000025288
-0.28618295567253704
-0.26156506701252585
-0.24925612268253405
-0.23694717835254234
-0.23694717835254234
-0.23079270618753256
-0.23694717835254234
-0.23079270618753256
-0.23079270618753256
-0.23079270618753256
-0.23694717835254234
-0.2246382340225228
-0.2246382340225228
-0.2184837618575408
-0.2184837618575408
-0.2184837618575408
-0.2246382340225228
-0.2184837618575408
-0.2184837618575408
-0.2246382340225228
-0.2246382340225228
-0.2246382340225228
-0.2246382340225228
-0.2184837618575408
-0.2246382340225228
-0.2184837618575408
-0.2184837618575408
-0.2184837618575408
-0.2246382340225228
-0.2246382340225228
-0.2184837618575408
-0.2246382340225228
-0.2246382340225228
-0.2246382340225228
-0.2184837618575408
-0.2184837618575408
-0.2246382340225228
-0.23079270618753256
-0.23079270618753256
-0.23079270618753256
-0.2246382340225228
-0.2246382340225228
-0.2246382340225228
-0.23079270618753256
-0.23694717835254234
-0.23079270618753256
-0.23694717835254234
-0.23079270618753256
-0.23694717835254234
-0.2431016505175243
-0.23079270618753256
-0.23694717835254234
-0.23694717835254234
-0.23694717835254234
-0.23694717835254234
-0.2431016505175243
-0.2431016505175243
-0.23694717835254234
-0.23694717835254234
-0.2431016505175243
-0.23694717835254234
-0.23694717835254234
-0.23079270618753256
-0.23694717835254234
-0.23694717835254234
-0.2431016505175243
-0.2431016505175243
-0.23694717835254234
-0.23694717835254234
-0.2431016505175243
-0.23694717835254234
-0.2431016505175243
-0.2431016505175243
-0.24925612268253405
-0.2431016505175243
-0.24925612268253405
-0.2431016505175243
-0.2554105948475438
-0.24925612268253405
-0.24925612268253405
-0.2554105948475438
-0.2984919000025288
-0.2554105948475438
-0.2431016505175243
-0.2554105948475438
-0.2431016505175243
-0.2554105948475438
-0.24925612268253405
-0.26156506701252585
-0.26771953917753555
-0.26771953917753555
-0.26156506701252585
-0.2554105948475438
-0.24925612268253405
-0.24925612268253405
-0.2554105948475438
-0.2554105948475438
-0.24925612268253405
-0.24925612268253405
-0.2554105948475438
-0.24925612268253405
-0.24925612268253405
-0.24925612268253405
-0.2554105948475438
-0.2554105948475438
-0.24925612268253405
-0.2431016505175243
-0.24925612268253405
-0.24925612268253405
-0.26156506701252585
-0.28618295567253704
-0.2431016505175243
-0.2431016505175243
-0.26156506701252585
-0.2554105948475438
-0.26156506701252585
-0.26156506701252585
-0.2554105948475438
-0.26156506701252585
-0.26156506701252585
-0.2554105948475438
-0.26156506701252585
-0.2554105948475438
-0.2554105948475438
-0.26771953917753555
-0.26156506701252585
-0.26156506701252585
-0.26156506701252585
-0.26771953917753555
-0.26771953917753555
-0.26771953917753555
-0.26771953917753555
-0.2738740113425453
-0.2738740113425453
-0.2738740113425453
-0.26771953917753555
-0.2738740113425453
-0.26771953917753555
-0.2738740113425453
-0.2738740113425453
-0.26771953917753555
-0.2800284835075273
-0.2800284835075273
-0.2800284835075273
-0.2738740113425453
-0.2800284835075273
-0.2738740113425453
-0.2738740113425453
-0.2738740113425453
-0.2738740113425453
-0.2800284835075273
-0.2738740113425453
-0.2738740113425453
-0.2800284835075273
-0.26771953917753555
-0.26771953917753555
-0.26771953917753555
-0.2738740113425453
-0.2738740113425453
-0.2738740113425453
-0.2800284835075273
-0.2738740113425453
-0.2738740113425453
-0.26771953917753555
-0.2738740113425453
-0.2738740113425453
-0.2738740113425453
-0.26771953917753555
-0.26771953917753555
-0.26771953917753555
-0.26156506701252585
-0.26771953917753555
-0.26156506701252585
-0.2738740113425453
-0.26156506701252585
-0.26156506701252585
-0.2738740113425453
-0.2738740113425453
-0.26156506701252585
-0.26156506701252585
-0.26771953917753555
-0.26771953917753555
-0.26771953917753555
-0.2554105948475438
-0.2554105948475438
-0.26156506701252585
-0.26156506701252585
-0.26156506701252585
-0.26156506701252585
-0.2554105948475438
-0.24925612268253405
-0.24925612268253405
-0.2554105948475438
-0.2554105948475438
-0.26156506701252585
-0.2554105948475438
-0.26156506701252585
-0.26156506701252585
-0.26156506701252585
-0.2554105948475438
-0.2554105948475438
-0.24925612268253405
-0.24925612268253405
-0.2554105948475438
-0.2554105948475438
-0.24925612268253405
-0.2554105948475438
-0.2554105948475438
-0.26156506701252585
-0.26156506701252585
-0.26156506701252585
-0.26156506701252585
-0.2554105948475438
-0.2431016505175243
-0.2431016505175243
-0.2431016505175243
-0.23694717835254234
-0.24925612268253405
-0.2431016505175243
-0.2431016505175243
-0.2431016505175243
-0.24925612268253405
-0.24925612268253405
-0.24925612268253405
-0.24925612268253405
-0.2554105948475438
-0.2554105948475438
-0.2554105948475438
-0.24925612268253405
-0.24925612268253405
-0.24925612268253405
-0.26156506701252585
-0.3108008443325483
-0.28618295567253704
-0.2800284835075273
-0.26771953917753555
-0.2431016505175243
-0.2000203453625393
-0.16309351237253633
-0.1384756237125251
-0.14463009587750708
-0.18771140103251985
-0.2431016505175243
-0.2984919000025288
-0.3292642608275498
-0.3354187329925596
-0.32310978866254003
-0.30464637216753854
-0.2800284835075273
-0.26771953917753555
-0.26771953917753555
-0.26156506701252585
-0.24925612268253405
-0.24925612268253405
-0.2554105948475438
-0.2554105948475438
-0.2554105948475438
-0.2431016505175243
-0.24925612268253405
-0.2431016505175243
-0.2431016505175243
-0.2431016505175243
-0.2431016505175243
-0.23694717835254234
-0.2431016505175243
-0.23694717835254234
-0.2431016505175243
-0.23079270618753256
-0.23079270618753256
-0.23079270618753256
-0.23694717835254234
-0.23694717835254234
-0.23079270618753256
-0.23079270618753256
-0.23694717835254234
-0.23694717835254234
-0.23694717835254234
-0.2431016505175243
-0.23694717835254234
-0.23079270618753256
-0.23694717835254234
-0.23079270618753256
-0.23079270618753256
-0.23694717835254234
-0.23079270618753256
-0.23694717835254234
-0.23079270618753256
-0.23079270618753256
-0.23079270618753256
-0.23694717835254234
-0.23694717835254234
-0.23694717835254234
-0.23694717835254234
-0.23079270618753256
-0.23079270618753256
-0.23079270618753256
-0.23694717835254234
-0.23079270618753256
-0.23079270618753256
-0.23079270618753256
-0.2246382340225228
-0.23079270618753256
-0.23079270618753256
-0.2246382340225228
-0.2246382340225228
-0.2184837618575408
-0.2246382340225228
-0.2184837618575408
-0.2246382340225228
-0.2246382340225228
-0.2246382340225228
-0.2246382340225228
-0.23079270618753256
-0.23694717835254234
-0.23694717835254234
-0.23694717835254234
-0.23079270618753256
-0.23694717835254234
-0.23079270618753256
-0.23079270618753256
-0.23694717835254234
-0.2431016505175243
-0.23079270618753256
-0.23079270618753256
-0.2431016505175243
-0.23694717835254234
-0.2431016505175243
-0.2431016505175243
-0.23694717835254234
-0.23694717835254234
-0.23694717835254234
-0.23694717835254234
-0.2431016505175243
-0.2431016505175243
-0.2431016505175243
-0.23694717835254234
-0.23694717835254234
-0.2431016505175243
-0.23694717835254234
-0.23079270618753256
-0.23079270618753256
-0.23079270618753256
-0.23694717835254234
-0.23694717835254234
-0.23079270618753256
-0.23694717835254234
-0.23079270618753256
-0.23694717835254234
-0.23079270618753256
-0.23694717835254234
-0.2246382340225228
-0.2246382340225228
-0.23079270618753256
-0.2431016505175243
-0.26771953917753555
-0.23079270618753256
-0.2184837618575408
-0.2184837618575408
-0.2184837618575408
-0.2184837618575408
-0.2246382340225228
-0.23694717835254234
-0.2246382340225228
-0.23079270618753256
-0.23079270618753256
-0.23079270618753256
-0.23079270618753256
-0.23079270618753256
-0.2246382340225228
-0.23079270618753256
-0.23079270618753256
-0.2184837618575408
-0.2184837618575408
-0.2246382340225228
-0.2184837618575408
-0.2184837618575408
-0.2184837618575408
-0.2246382340225228
-0.2184837618575408
-0.2246382340225228
-0.2246382340225228
-0.2246382340225228
-0.2246382340225228
-0.2246382340225228
-0.2184837618575408
-0.2184837618575408
-0.2184837618575408
-0.2184837618575408
-0.2184837618575408
-0.21232928969253104
-0.21232928969253104
-0.2184837618575408
-0.2184837618575408
-0.21232928969253104
-0.21232928969253104
-0.21232928969253104
-0.21232928969253104
-0.21232928969253104
-0.2184837618575408
-0.21232928969253104
-0.23694717835254234
-0.2554105948475438
-0.21232928969253104
-0.2061748175275213
-0.2061748175275213
-0.2061748175275213
-0.2061748175275213
-0.2061748175275213
-0.2184837618575408
-0.2246382340225228
-0.2184837618575408
-0.2246382340225228
-0.2246382340225228
-0.2246382340225228
-0.2184837618575408
-0.2184837618575408
-0.2184837618575408
-0.2246382340225228
-0.2246382340225228
-0.2184837618575408
-0.21232928969253104
-0.21232928969253104
-0.2184837618575408
-0.2184837618575408
-0.2184837618575408
-0.2184837618575408
-0.2184837618575408
-0.2184837618575408
-0.21232928969253104
-0.21232928969253104
-0.21232928969253104
-0.21232928969253104
-0.2184837618575408
-0.2184837618575408
-0.2184837618575408
-0.2184837618575408
-0.21232928969253104
-0.2246382340225228
-0.2184837618575408
-0.2246382340225228
-0.2184837618575408
-0.2184837618575408
-0.21232928969253104
-0.21232928969253104
-0.21232928969253104
-0.21232928969253104
-0.21232928969253104
-0.21232928969253104
-0.21232928969253104
-0.2184837618575408
-0.2184837618575408
-0.2184837618575408
-0.21232928969253104
-0.21232928969253104
-0.2184837618575408
-0.2184837618575408
-0.2246382340225228
-0.23079270618753256
-0.23079270618753256
-0.2246382340225228
-0.23079270618753256
-0.2246382340225228
-0.21232928969253104
-0.21232928969253104
-0.2184837618575408
-0.21232928969253104
-0.21232928969253104
-0.2184837618575408
-0.2246382340225228
-0.2246382340225228
-0.2184837618575408
-0.2246382340225228
-0.2246382340225228
-0.2184837618575408
-0.2184837618575408
-0.2246382340225228
-0.2554105948475438
-0.21232928969253104
-0.2061748175275213
-0.21232928969253104
-0.23694717835254234
-0.24925612268253405
-0.24925612268253405
-0.2431016505175243
-0.23079270618753256
-0.2000203453625393
-0.1692479845375183
-0.1200122072175236
-0.08923984639250258
-0.08923984639250258
-0.15078456804251686
-0.2061748175275213
-0.26156506701252585
-0.29233742783754685
-0.29233742783754685
-0.2800284835075273
-0.2554105948475438
-0.24925612268253405
-0.2431016505175243
-0.23079270618753256
-0.23079270618753256
-0.23694717835254234
-0.2246382340225228
-0.2246382340225228
-0.23079270618753256
-0.23079270618753256
-0.2246382340225228
-0.2184837618575408
-0.2184837618575408
-0.2246382340225228
-0.2246382340225228
-0.2184837618575408
-0.23079270618753256
-0.23079270618753256
-0.23079270618753256
-0.2246382340225228
-0.2246382340225228
-0.23079270618753256
-0.2246382340225228
-0.23079270618753256
-0.2246382340225228
-0.2246382340225228
-0.23079270618753256
-0.2246382340225228
-0.2246382340225228
-0.23079270618753256
-0.23079270618753256
-0.2246382340225228
-0.23694717835254234
-0.23079270618753256
-0.23079270618753256
-0.2246382340225228
-0.23079270618753256
-0.2246382340225228
-0.23079270618753256
-0.2246382340225228
-0.23079270618753256
-0.23079270618753256
-0.23079270618753256
-0.23079270618753256
-0.23079270618753256
-0.23079270618753256
-0.2246382340225228
-0.2246382340225228
-0.23694717835254234
-0.23079270618753256
-0.23079270618753256
-0.23079270618753256
-0.2246382340225228
-0.23079270618753256
-0.23079270618753256
-0.2246382340225228
-0.23079270618753256
-0.2246382340225228
-0.2246382340225228
-0.23079270618753256
-0.23079270618753256
-0.2184837618575408
-0.2184837618575408
-0.23079270618753256
-0.23079270618753256
-0.23079270618753256
-0.23079270618753256
-0.23079270618753256
-0.23079270618753256
-0.23079270618753256
-0.23079270618753256
-0.23079270618753256
-0.23694717835254234
-0.2431016505175243
-0.2431016505175243
-0.23694717835254234
-0.23694717835254234
-0.23079270618753256
-0.23694717835254234
-0.2431016505175243
-0.2431016505175243
-0.23694717835254234
-0.2431016505175243
-0.23694717835254234
-0.2431016505175243
-0.23694717835254234
-0.23694717835254234
-0.2431016505175243
-0.23694717835254234
-0.23694717835254234
-0.2431016505175243
-0.23694717835254234
-0.2431016505175243
-0.23694717835254234
-0.2431016505175243
-0.2431016505175243
-0.23694717835254234
-0.23694717835254234
-0.23694717835254234
-0.23694717835254234
-0.23079270618753256
-0.2431016505175243
-0.2738740113425453
-0.23694717835254234
-0.2431016505175243
-0.2431016505175243
-0.23694717835254234
-0.23694717835254234
-0.23694717835254234
-0.2431016505175243
-0.23694717835254234
-0.2431016505175243
-0.23694717835254234
-0.2431016505175243
-0.23694717835254234
-0.23694717835254234
-0.23079270618753256
-0.23079270618753256
-0.23694717835254234
-0.23079270618753256
-0.23694717835254234
-0.23079270618753256
-0.23694717835254234
-0.23694717835254234
-0.23079270618753256
-0.2431016505175243
-0.23694717835254234
-0.2431016505175243
-0.2431016505175243
-0.23079270618753256
-0.23079270618753256
-0.23079270618753256
-0.23694717835254234
-0.23694717835254234
-0.23694717835254234
-0.23079270618753256
-0.23694717835254234
-0.23694717835254234
-0.23079270618753256
-0.23079270618753256
-0.23694717835254234
-0.23694717835254234
-0.23694717835254234
-0.23079270618753256
-0.23079270618753256
-0.23079270618753256
-0.23079270618753256
-0.23079270618753256
-0.23079270618753256
-0.23694717835254234
-0.23079270618753256
-0.23694717835254234
-0.23079270618753256
-0.23694717835254234
-0.23694717835254234
-0.23694717835254234
-0.23079270618753256
-0.23694717835254234
-0.23079270618753256
-0.23694717835254234
-0.23079270618753256
-0.23694717835254234
-0.23694717835254234
-0.23694717835254234
-0.23079270618753256
-0.23079270618753256
-0.23694717835254234
-0.23694717835254234
-0.23079270618753256
-0.23079270618753256
-0.23079270618753256
-0.23079270618753256
-0.23079270618753256
-0.23694717835254234
-0.23079270618753256
-0.23079270618753256
-0.23079270618753256
-0.23694717835254234
-0.23079270618753256
-0.23079270618753256
-0.23694717835254234
-0.23079270618753256
-0.23079270618753256
-0.23694717835254234
-0.23694717835254234
-0.2246382340225228
-0.23079270618753256
-0.23079270618753256
-0.2246382340225228
-0.23079270618753256
-0.23079270618753256
-0.23694717835254234
-0.23079270618753256
-0.23079270618753256
-0.2246382340225228
-0.2246382340225228
-0.23079270618753256
-0.2246382340225228
-0.23079270618753256
-0.23079270618753256
-0.23079270618753256
-0.23079270618753256
-0.2184837618575408
-0.2184837618575408
-0.2246382340225228
-0.23079270618753256
-0.2246382340225228
-0.2246382340225228
-0.23079270618753256
-0.23079270618753256
-0.2184837618575408
-0.2184837618575408
-0.2246382340225228
-0.2246382340225228
-0.2246382340225228
-0.2184837618575408
-0.2246382340225228
-0.2246382340225228
-0.2184837618575408
-0.2246382340225228
-0.23079270618753256
-0.23079270618753256
-0.23079270618753256
-0.23694717835254234
-0.29233742783754685
-0.26771953917753555
-0.2184837618575408
-0.2061748175275213
-0.21232928969253104
-0.2061748175275213
-0.2061748175275213
-0.21232928969253104
-0.2246382340225228
-0.2184837618575408
-0.2184837618575408
-0.21232928969253104
-0.21232928969253104
-0.2184837618575408
-0.21232928969253104
-0.2184837618575408
-0.21232928969253104
-0.21232928969253104
-0.21232928969253104
-0.21232928969253104
-0.21232928969253104
-0.2246382340225228
-0.23694717835254234
-0.24925612268253405
-0.2431016505175243
-0.23079270618753256
-0.1938658731975296
-0.15693904020752658
-0.1015487907225221
-0.06462195773251911
-0.0707764298975011
-0.1261666793825056
-0.2000203453625393
-0.26156506701252585
-0.29233742783754685
-0.29233742783754685
-0.2800284835075273
-0.26156506701252585
-0.2431016505175243
-0.23079270618753256
-0.23079270618753256
-0.2246382340225228
-0.23079270618753256
-0.2246382340225228
-0.2246382340225228
-0.2246382340225228
-0.21232928969253104
-0.2246382340225228
-0.2184837618575408
-0.21232928969253104
-0.21232928969253104
-0.21232928969253104
-0.2061748175275213
-0.2061748175275213
-0.21232928969253104
-0.21232928969253104
-0.21232928969253104
-0.2061748175275213
-0.2061748175275213
-0.21232928969253104
-0.21232928969253104
-0.21232928969253104
-0.21232928969253104
-0.2184837618575408
-0.2184837618575408
-0.21232928969253104
-0.21232928969253104
-0.2184837618575408
-0.2184837618575408
-0.2184837618575408
-0.2184837618575408
-0.21232928969253104
-0.21232928969253104
-0.21232928969253104
-0.2184837618575408
-0.2184837618575408
-0.2184837618575408
-0.21232928969253104
-0.2184837618575408
-0.2246382340225228
-0.2184837618575408
-0.2184837618575408
-0.2184837618575408
-0.2184837618575408
-0.2184837618575408
-0.2184837618575408
-0.2246382340225228
-0.2246382340225228
-0.2246382340225228
-0.21232928969253104
-0.2246382340225228
-0.21232928969253104
-0.2184837618575408
-0.2184837618575408
-0.2184837618575408
-0.2184837618575408
-0.2184837618575408
-0.21232928969253104
-0.21232928969253104
-0.2061748175275213
-0.2061748175275213
-0.2184837618575408
-0.2184837618575408
-0.2246382340225228
-0.2246382340225228
-0.2184837618575408
-0.2184837618575408
-0.2246382340225228
-0.2184837618575408
-0.2184837618575408
-0.2184837618575408
-0.2184837618575408
-0.2246382340225228
-0.2246382340225228
-0.2246382340225228
-0.23079270618753256
-0.2246382340225228
-0.23079270618753256
-0.23079270618753256
-0.2246382340225228
-0.23079270618753256
-0.2431016505175243
-0.26771953917753555
-0.23079270618753256
-0.2246382340225228
-0.2246382340225228
-0.2246382340225228
-0.23079270618753256
-0.23694717835254234
-0.2431016505175243
-0.23694717835254234
-0.2431016505175243
-0.23694717835254234
-0.23079270618753256
-0.23694717835254234
-0.23694717835254234
-0.23079270618753256
-0.23694717835254234
-0.23079270618753256
-0.2246382340225228
-0.23079270618753256
-0.23079270618753256
-0.23079270618753256
-0.2246382340225228
-0.2246382340225228
-0.2184837618575408
-0.2246382340225228
-0.2246382340225228
-0.2246382340225228
-0.2246382340225228
-0.2184837618575408
-0.2184837618575408
-0.2184837618575408
-0.2246382340225228
-0.2246382340225228
-0.2184837618575408
-0.2184837618575408
-0.2184837618575408
-0.2184837618575408
-0.2184837618575408
-0.2184837618575408
-0.2184837618575408
-0.2246382340225228
-0.2184837618575408
-0.2184837618575408
-0.2246382340225228
-0.2184837618575408
-0.2246382340225228
-0.2246382340225228
-0.2246382340225228
-0.2246382340225228
-0.2184837618575408
-0.2184837618575408
-0.2184837618575408
-0.2184837618575408
-0.21232928969253104
-0.2184837618575408
-0.21232928969253104
-0.2184837618575408
-0.2184837618575408
-0.2246382340225228
-0.2184837618575408
-0.2246382340225228
-0.2246382340225228
-0.2246382340225228
-0.23079270618753256
-0.2184837618575408
-0.2184837618575408
-0.2246382340225228
-0.2184837618575408
-0.2246382340225228
-0.2184837618575408
-0.2246382340225228
-0.2184837618575408
-0.2184837618575408
-0.2184837618575408
-0.2246382340225228
-0.2246382340225228
-0.23079270618753256
-0.23079270618753256
-0.2246382340225228
-0.2184837618575408
-0.2246382340225228
-0.2246382340225228
-0.2246382340225228
-0.2246382340225228
-0.2246382340225228
-0.23079270618753256
-0.23694717835254234
-0.23694717835254234
-0.23079270618753256
-0.23694717835254234
-0.23079270618753256
-0.23694717835254234
-0.23694717835254234
-0.23694717835254234
-0.23079270618753256
-0.23079270618753256
-0.23079270618753256
-0.23694717835254234
-0.23694717835254234
-0.23694717835254234
-0.23079270618753256
-0.23079270618753256
-0.23079270618753256
-0.23694717835254234
-0.23694717835254234
-0.23079270618753256
-0.23079270618753256
-0.23694717835254234
-0.23694717835254234
-0.23694717835254234
-0.23694717835254234
-0.23079270618753256
-0.23694717835254234
-0.2431016505175243
-0.2431016505175243
-0.2431016505175243
-0.23694717835254234
-0.23694717835254234
-0.23694717835254234
-0.2431016505175243
-0.23694717835254234
-0.24925612268253405
-0.26771953917753555
-0.23079270618753256
-0.2246382340225228
-0.23079270618753256
-0.23694717835254234
-0.23079270618753256
-0.23694717835254234
-0.23079270618753256
-0.23079270618753256
-0.23694717835254234
-0.23079270618753256
-0.23079270618753256
-0.23079270618753256
-0.23079270618753256
-0.23694717835254234
-0.23694717835254234
-0.23079270618753256
-0.23079270618753256
-0.23079270618753256
-0.2246382340225228
-0.23079270618753256
-0.23079270618753256
-0.23079270618753256
-0.2246382340225228
-0.23694717835254234
-0.23079270618753256
-0.23694717835254234
-0.23694717835254234
-0.2246382340225228
-0.2246382340225228
-0.2184837618575408
-0.2184837618575408
-0.21232928969253104
-0.2184837618575408
-0.2246382340225228
-0.2246382340225228
-0.23079270618753256
-0.2184837618575408
-0.21232928969253104
-0.2184837618575408
-0.2184837618575408
-0.2184837618575408
-0.2246382340225228
-0.2184837618575408
-0.2246382340225228
-0.2184837618575408
-0.2246382340225228
-0.2246382340225228
-0.2431016505175243
-0.24925612268253405
-0.26156506701252585
-0.2554105948475438
-0.23694717835254234
-0.18771140103251985
-0.14463009587750708
-0.08923984639250258
-0.058467485567509365
-0.08923984639250258
-0.15693904020752658
-0.2246382340225228
-0.2800284835075273
-0.29233742783754685
-0.28618295567253704
-0.2738740113425453
-0.2554105948475438
-0.23694717835254234
-0.23694717835254234
-0.2184837618575408
-0.2246382340225228
-0.2246382340225228
-0.2246382340225228
-0.2246382340225228
-0.2184837618575408
-0.2184837618575408
-0.2184837618575408
-0.2554105948475438
-0.23079270618753256
-0.21232928969253104
-0.21232928969253104
-0.2184837618575408
-0.21232928969253104
-0.21232928969253104
-0.2184837618575408
-0.23694717835254234
-0.2246382340225228
-0.2184837618575408
-0.21232928969253104
-0.21232928969253104
-0.21232928969253104
-0.2061748175275213
-0.2061748175275213
-0.2061748175275213
-0.21232928969253104
-0.21232928969253104
-0.21232928969253104
-0.2000203453625393
-0.2061748175275213
-0.2000203453625393
-0.2000203453625393
-0.2061748175275213
-0.2000203453625393
-0.2000203453625393
-0.1938658731975296
-0.2061748175275213
-0.2061748175275213
-0.1938658731975296
-0.2000203453625393
-0.2000203453625393
-0.2000203453625393
-0.2000203453625393
-0.2000203453625393
-0.1938658731975296
-0.2000203453625393
-0.2061748175275213
-0.2061748175275213
-0.2000203453625393
-0.2000203453625393
-0.2000203453625393
-0.1938658731975296
-0.2000203453625393
-0.2000203453625393
-0.2061748175275213
-0.23694717835254234
-0.2000203453625393
-0.2061748175275213
-0.2000203453625393
-0.1938658731975296
-0.1938658731975296
-0.18771140103251985
-0.18771140103251985
-0.2000203453625393
-0.1938658731975296
-0.1938658731975296
-0.18771140103251985
-0.1938658731975296
-0.1938658731975296
-0.2000203453625393
-0.2000203453625393
-0.2000203453625393
-0.2000203453625393
-0.1938658731975296
-0.2000203453625393
-0.2061748175275213
-0.2000203453625393
-0.1938658731975296
-0.2000203453625393
-0.1938658731975296
-0.2061748175275213
-0.1938658731975296
-0.2000203453625393
-0.2000203453625393
-0.1938658731975296
-0.2000203453625393
-0.2000203453625393
-0.1938658731975296
-0.2000203453625393
-0.2000203453625393
-0.2061748175275213
-0.2061748175275213
-0.2061748175275213
-0.2061748175275213
-0.2000203453625393
-0.2061748175275213
-0.2061748175275213
-0.2000203453625393
-0.2061748175275213
-0.2061748175275213
-0.2000203453625393
-0.2000203453625393
-0.2061748175275213
-0.2000203453625393
-0.2000203453625393
-0.2000203453625393
-0.1938658731975296
-0.1938658731975296
-0.2000203453625393
-0.2000203453625393
-0.2000203453625393
-0.2000203453625393
-0.2000203453625393
-0.1938658731975296
-0.2000203453625393
-0.2000203453625393
-0.1938658731975296
-0.1938658731975296
-0.2000203453625393
-0.1938658731975296
-0.1938658731975296
-0.2000203453625393
-0.1938658731975296
-0.2000203453625393
-0.2000203453625393
-0.1938658731975296
-0.1938658731975296
-0.1938658731975296
-0.2000203453625393
-0.2000203453625393
-0.2061748175275213
-0.2061748175275213
-0.2000203453625393
-0.2000203453625393
-0.2000203453625393
-0.1938658731975296
-0.2000203453625393
-0.2000203453625393
-0.2061748175275213
-0.2000203453625393
-0.2061748175275213
-0.2061748175275213
-0.2061748175275213
-0.2000203453625393
-0.2061748175275213
-0.2000203453625393
-0.2061748175275213
-0.2061748175275213
-0.21232928969253104
-0.2061748175275213
-0.21232928969253104
-0.2061748175275213
-0.21232928969253104
-0.2061748175275213
-0.21232928969253104
-0.2061748175275213
-0.21232928969253104
-0.21232928969253104
-0.2061748175275213
-0.2061748175275213
-0.21232928969253104
-0.21232928969253104
-0.2061748175275213
-0.21232928969253104
-0.2061748175275213
-0.21232928969253104
-0.21232928969253104
-0.2184837618575408
-0.2184837618575408
-0.2184837618575408
-0.2184837618575408
-0.21232928969253104
-0.2184837618575408
-0.2184837618575408
-0.21232928969253104
-0.2184837618575408
-0.2184837618575408
-0.24925612268253405
-0.21232928969253104
-0.21232928969253104
-0.2061748175275213
-0.21232928969253104
-0.2184837618575408
-0.21232928969253104
-0.2246382340225228
-0.2246382340225228
-0.2246382340225228
-0.2246382340225228
-0.2246382340225228
-0.2246382340225228
-0.2184837618575408
-0.2184837618575408
-0.2184837618575408
-0.2246382340225228
-0.2184837618575408
-0.2184837618575408
-0.2246382340225228
-0.2246382340225228
-0.2246382340225228
-0.2246382340225228
-0.2184837618575408
-0.2184837618575408
-0.21232928969253104
-0.2184837618575408
-0.2184837618575408
-0.21232928969253104
-0.2184837618575408
-0.2184837618575408
-0.2246382340225228
-0.21232928969253104
-0.21232928969253104
-0.2184837618575408
-0.21232928969253104
-0.21232928969253104
-0.2184837618575408
-0.2184837618575408
-0.2184837618575408
-0.2246382340225228
-0.21232928969253104
-0.2184837618575408
-0.2246382340225228
-0.2246382340225228
-0.2184837618575408
-0.2184837618575408
-0.23079270618753256
-0.2246382340225228
-0.23079270618753256
-0.2246382340225228
-0.2246382340225228
-0.21232928969253104
-0.21232928969253104
-0.2061748175275213
-0.21232928969253104
-0.2061748175275213
-0.21232928969253104
-0.2246382340225228
-0.2184837618575408
-0.2184837618575408
-0.2246382340225228
-0.23079270618753256
-0.2246382340225228
-0.2246382340225228
-0.2184837618575408
-0.2246382340225228
-0.2246382340225228
-0.2246382340225228
-0.23079270618753256
-0.23694717835254234
-0.2431016505175243
-0.2554105948475438
-0.2554105948475438
-0.2554105948475438
-0.23079270618753256
-0.2000203453625393
-0.16309351237253633
-0.1261666793825056
-0.1261666793825056
-0.15693904020752658
-0.21232928969253104
-0.26771953917753555
-0.3108008443325483
-0.3108008443325483
-0.30464637216753854
-0.2738740113425453
-0.26156506701252585
-0.26771953917753555
-0.2554105948475438
-0.2554105948475438
-0.2431016505175243
-0.23694717835254234
-0.23694717835254234
-0.23079270618753256
-0.23694717835254234
-0.23694717835254234
-0.2431016505175243
-0.23694717835254234
-0.23694717835254234
-0.23694717835254234
-0.23694717835254234
-0.23694717835254234
-0.23694717835254234
-0.2431016505175243
-0.2431016505175243
-0.2431016505175243
-0.23079270618753256
-0.23079270618753256
-0.23694717835254234
-0.2431016505175243
-0.2431016505175243
-0.23694717835254234
-0.23079270618753256
-0.23694717835254234
-0.23694717835254234
-0.23694717835254234
-0.23694717835254234
-0.23079270618753256
-0.23694717835254234
-0.23694717835254234
-0.2431016505175243
-0.26771953917753555
-0.2246382340225228
-0.2246382340225228
-0.2184837618575408
-0.2246382340225228
-0.2431016505175243
-0.23694717835254234
-0.23079270618753256
-0.23079270618753256
-0.23079270618753256
-0.2246382340225228
-0.2246382340225228
-0.23079270618753256
-0.23694717835254234
-0.2246382340225228
-0.23079270618753256
-0.23694717835254234
-0.23079270618753256
-0.23079270618753256
-0.23694717835254234
-0.2246382340225228
-0.23079270618753256
-0.2246382340225228
-0.2246382340225228
-0.2246382340225228
-0.23079270618753256
-0.23079270618753256
-0.23079270618753256
-0.23694717835254234
-0.2738740113425453
-0.23079270618753256
-0.2184837618575408
-0.2246382340225228
-0.23694717835254234
-0.23694717835254234
-0.23694717835254234
-0.2431016505175243
-0.24925612268253405
-0.24925612268253405
-0.2431016505175243
-0.24925612268253405
-0.23694717835254234
-0.2431016505175243
-0.23694717835254234
-0.23694717835254234
-0.23694717835254234
-0.2431016505175243
-0.24925612268253405
-0.2431016505175243
-0.24925612268253405
-0.24925612268253405
-0.24925612268253405
-0.24925612268253405
-0.2431016505175243
-0.24925612268253405
-0.24925612268253405
-0.2431016505175243
-0.24925612268253405
-0.2431016505175243
-0.2431016505175243
-0.24925612268253405
-0.2431016505175243
-0.24925612268253405
-0.2431016505175243
-0.24925612268253405
-0.2431016505175243
-0.2431016505175243
-0.2431016505175243
-0.2431016505175243
-0.23694717835254234
-0.23694717835254234
-0.23694717835254234
-0.23694717835254234
-0.23694717835254234
-0.23694717835254234
-0.23694717835254234
-0.2431016505175243
-0.23694717835254234
-0.23079270618753256
-0.23079270618753256
-0.23079270618753256
-0.23694717835254234
-0.23079270618753256
-0.23079270618753256
-0.23694717835254234
-0.23694717835254234
-0.23079270618753256
-0.2246382340225228
-0.23694717835254234
-0.2246382340225228
-0.2246382340225228
-0.23694717835254234
-0.23694717835254234
-0.2246382340225228
-0.23079270618753256
-0.23079270618753256
-0.23079270618753256
-0.23079270618753256
-0.23079270618753256
-0.23079270618753256
-0.23694717835254234
-0.2246382340225228
-0.2246382340225228
-0.23079270618753256
-0.23079270618753256
-0.2246382340225228
-0.2246382340225228
-0.2246382340225228
-0.2184837618575408
-0.2184837618575408
-0.2246382340225228
-0.2246382340225228
-0.2246382340225228
-0.23079270618753256
-0.2246382340225228
-0.2184837618575408
-0.2246382340225228
-0.2246382340225228
-0.2246382340225228
-0.23079270618753256
-0.23079270618753256
-0.2431016505175243
-0.26771953917753555
-0.23079270618753256
-0.2246382340225228
-0.23694717835254234
-0.23694717835254234
-0.2246382340225228
-0.2246382340225228
-0.2246382340225228
-0.2246382340225228
-0.23079270618753256
-0.2246382340225228
-0.2246382340225228
-0.2184837618575408
-0.2246382340225228
-0.2184837618575408
-0.21232928969253104
-0.21232928969253104
-0.2184837618575408
-0.21232928969253104
-0.2184837618575408
-0.2184837618575408
-0.2184837618575408
-0.2246382340225228
-0.2184837618575408
-0.2184837618575408
-0.2184837618575408
-0.2246382340225228
-0.2184837618575408
-0.21232928969253104
-0.21232928969253104
-0.2246382340225228
-0.2184837618575408
-0.2246382340225228
-0.2184837618575408
-0.21232928969253104
-0.21232928969253104
-0.2246382340225228
-0.2246382340225228
-0.2246382340225228
-0.2184837618575408
-0.21232928969253104
-0.21232928969253104
-0.2184837618575408
-0.2184837618575408
-0.21232928969253104
-0.21232928969253104
-0.2184837618575408
-0.21232928969253104
-0.2184837618575408
-0.2184837618575408
-0.21232928969253104
-0.21232928969253104
-0.2184837618575408
-0.21232928969253104
-0.21232928969253104
-0.2061748175275213
-0.21232928969253104
-0.2184837618575408
-0.21232928969253104
-0.21232928969253104
-0.21232928969253104
-0.2184837618575408
-0.21232928969253104
-0.2246382340225228
-0.21232928969253104
-0.2184837618575408
-0.2184837618575408
-0.2246382340225228
-0.2184837618575408
-0.2246382340225228
-0.2184837618575408
-0.21232928969253104
-0.21232928969253104
-0.2061748175275213
-0.2061748175275213
-0.21232928969253104
-0.21232928969253104
-0.2184837618575408
-0.21232928969253104
-0.2184837618575408
-0.21232928969253104
-0.21232928969253104
-0.21232928969253104
-0.21232928969253104
-0.21232928969253104
-0.2061748175275213
-0.21232928969253104
-0.21232928969253104
-0.2184837618575408
-0.2184837618575408
-0.23079270618753256
-0.2431016505175243
-0.23694717835254234
-0.2246382340225228
-0.2000203453625393
-0.15078456804251686
-0.11385773505251384
-0.0707764298975011
-0.08308537422752059
-0.13232115154751534
-0.1938658731975296
-0.2431016505175243
-0.2800284835075273
-0.2800284835075273
-0.2800284835075273
-0.26156506701252585
-0.2554105948475438
-0.23694717835254234
-0.23694717835254234
-0.23079270618753256
-0.2246382340225228
-0.2184837618575408
-0.2246382340225228
-0.2246382340225228
-0.2184837618575408
-0.21232928969253104
-0.21232928969253104
-0.2184837618575408
-0.21232928969253104
-0.2184837618575408
-0.21232928969253104
-0.23079270618753256
-0.2554105948475438
-0.21232928969253104
-0.2061748175275213
-0.2184837618575408
-0.2184837618575408
-0.2184837618575408
-0.21232928969253104
-0.21232928969253104
-0.2246382340225228
-0.23079270618753256
-0.2184837618575408
-0.2246382340225228
-0.21232928969253104
-0.2184837618575408
-0.2184837618575408
-0.21232928969253104
-0.2184837618575408
-0.2184837618575408
-0.2184837618575408
-0.21232928969253104
-0.2184837618575408
-0.21232928969253104
-0.21232928969253104
-0.21232928969253104
-0.2184837618575408
-0.2184837618575408
-0.2184837618575408
-0.21232928969253104
-0.2184837618575408
-0.2184837618575408
-0.2184837618575408
-0.21232928969253104
-0.2184837618575408
-0.21232928969253104
-0.21232928969253104
-0.2184837618575408
-0.21232928969253104
-0.2184837618575408
-0.2184837618575408
-0.2184837618575408
-0.21232928969253104
-0.21232928969253104
-0.21232928969253104
-0.21232928969253104
-0.2061748175275213
-0.2061748175275213
-0.2000203453625393
-0.2000203453625393
-0.2061748175275213
-0.21232928969253104
-0.2061748175275213
-0.21232928969253104
-0.21232928969253104
-0.2184837618575408
-0.21232928969253104
-0.2184837618575408
-0.2246382340225228
-0.2184837618575408
-0.2246382340225228
-0.2246382340225228
-0.2184837618575408
-0.2246382340225228
-0.2184837618575408
-0.23079270618753256
-0.23079270618753256
-0.2184837618575408
-0.2246382340225228
-0.23079270618753256
-0.2246382340225228
-0.2184837618575408
-0.2246382340225228
-0.2246382340225228
-0.2246382340225228
-0.23079270618753256
-0.2246382340225228
-0.23079270618753256
-0.2246382340225228
-0.23079270618753256
-0.23694717835254234
-0.23694717835254234
-0.23694717835254234
-0.23079270618753256
-0.23694717835254234
-0.23694717835254234
-0.23694717835254234
-0.23694717835254234
-0.23079270618753256
-0.23079270618753256
-0.23079270618753256
-0.23079270618753256
-0.23694717835254234
-0.23694717835254234
-0.23079270618753256
-0.23079270618753256
-0.2431016505175243
-0.2431016505175243
-0.24925612268253405
-0.23694717835254234
-0.23694717835254234
-0.2431016505175243
-0.2431016505175243
-0.23694717835254234
-0.23079270618753256
-0.23694717835254234
-0.2738740113425453
-0.2431016505175243
-0.2246382340225228
-0.2246382340225228
-0.23694717835254234
-0.23079270618753256
-0.23079270618753256
-0.23694717835254234
-0.2554105948475438
-0.2554105948475438
-0.2431016505175243
-0.23694717835254234
-0.2431016505175243
-0.23694717835254234
-0.23694717835254234
-0.23694717835254234
-0.2431016505175243
-0.2554105948475438
-0.2800284835075273
-0.2431016505175243
-0.23079270618753256
-0.23079270618753256
-0.23694717835254234
-0.23694717835254234
-0.24925612268253405
-0.24925612268253405
-0.24925612268253405
-0.24925612268253405
-0.2431016505175243
-0.2431016505175243
-0.23694717835254234
-0.2431016505175243
-0.2431016505175243
-0.2431016505175243
-0.24925612268253405
-0.23694717835254234
-0.2431016505175243
-0.24925612268253405
-0.23694717835254234
-0.2431016505175243
-0.2431016505175243
-0.2431016505175243
-0.2431016505175243
-0.24925612268253405
-0.24925612268253405
-0.2431016505175243
-0.2431016505175243
-0.23694717835254234
-0.2431016505175243
-0.2431016505175243
-0.2431016505175243
-0.23694717835254234
-0.2431016505175243
-0.2431016505175243
-0.2431016505175243
-0.2431016505175243
-0.23694717835254234
-0.23694717835254234
-0.2431016505175243
-0.23694717835254234
-0.2431016505175243
-0.23694717835254234
-0.24925612268253405
-0.2431016505175243
-0.24925612268253405
-0.2431016505175243
-0.2431016505175243
-0.2431016505175243
-0.2431016505175243
-0.24925612268253405
-0.24925612268253405
-0.2431016505175243
-0.2431016505175243
-0.24925612268253405
-0.2431016505175243
-0.2431016505175243
-0.24925612268253405
-0.24925612268253405
-0.2431016505175243
-0.24925612268253405
-0.2554105948475438
-0.2554105948475438
-0.2431016505175243
-0.24925612268253405
-0.2431016505175243
-0.2554105948475438
-0.24925612268253405
-0.2554105948475438
-0.2554105948475438
-0.2554105948475438
-0.2554105948475438
-0.24925612268253405
-0.2554105948475438
-0.2554105948475438
-0.24925612268253405
-0.2554105948475438
-0.2554105948475438
-0.24925612268253405
-0.24925612268253405
-0.24925612268253405
-0.24925612268253405
-0.24925612268253405
-0.24925612268253405
-0.2554105948475438
-0.24925612268253405
-0.2554105948475438
-0.2554105948475438
-0.2554105948475438
-0.26156506701252585
-0.2554105948475438
-0.26156506701252585
-0.2554105948475438
-0.2554105948475438
-0.2431016505175243
-0.24925612268253405
-0.2554105948475438
-0.24925612268253405
-0.2554105948475438
-0.26156506701252585
-0.2554105948475438
-0.26156506701252585
-0.2554105948475438
-0.26156506701252585
-0.24925612268253405
-0.26156506701252585
-0.2554105948475438
-0.26156506701252585
-0.26156506701252585
-0.26156506701252585
-0.26771953917753555
-0.2738740113425453
-0.28618295567253704
-0.29233742783754685
-0.2800284835075273
-0.24925612268253405
-0.2184837618575408
-0.1692479845375183
-0.1261666793825056
-0.10770326288750408
-0.15693904020752658
-0.24925612268253405
-0.26771953917753555
-0.3108008443325483
-0.3292642608275498
-0.3415732051575415
-0.31695531649755804
-0.30464637216753854
-0.28618295567253704
-0.2800284835075273
-0.2800284835075273
-0.2738740113425453
-0.26771953917753555
-0.26771953917753555
-0.26771953917753555
-0.26156506701252585
-0.26156506701252585
-0.26156506701252585
-0.26156506701252585
-0.24925612268253405
-0.2554105948475438
-0.24925612268253405
-0.24925612268253405
-0.24925612268253405
-0.2431016505175243
-0.2554105948475438
-0.24925612268253405
-0.24925612268253405
-0.24925612268253405
-0.2554105948475438
-0.2431016505175243
-0.2431016505175243
-0.2431016505175243
-0.2431016505175243
-0.24925612268253405
-0.24925612268253405
-0.24925612268253405
-0.2431016505175243
-0.23694717835254234
-0.2431016505175243
-0.2431016505175243
-0.2431016505175243
-0.2431016505175243
-0.2431016505175243
-0.23694717835254234
-0.23079270618753256
-0.2431016505175243
-0.23694717835254234
-0.23694717835254234
-0.23694717835254234
-0.2431016505175243
-0.23694717835254234
-0.2431016505175243
-0.2431016505175243
-0.2431016505175243
-0.2431016505175243
-0.2431016505175243
-0.24925612268253405
-0.2431016505175243
-0.2431016505175243
-0.2431016505175243
-0.23694717835254234
-0.23694717835254234
-0.23694717835254234
-0.2431016505175243
-0.23694717835254234
-0.23694717835254234
-0.23079270618753256
-0.23079270618753256
-0.2246382340225228
-0.23079270618753256
-0.23079270618753256
-0.23694717835254234
-0.23694717835254234
-0.23694717835254234
-0.23079270618753256
-0.23694717835254234
-0.23694717835254234
-0.23694717835254234
-0.23694717835254234
-0.24925612268253405
-0.24925612268253405
-0.2431016505175243
-0.24925612268253405
-0.2431016505175243
-0.2554105948475438
-0.2431016505175243
-0.24925612268253405
-0.2431016505175243
-0.24925612268253405
-0.24925612268253405
-0.24925612268253405
-0.2431016505175243
-0.24925612268253405
-0.2431016505175243
-0.2431016505175243
-0.24925612268253405
-0.24925612268253405
-0.2431016505175243
-0.24925612268253405
-0.2554105948475438
-0.24925612268253405
-0.24925612268253405
-0.2554105948475438
-0.2554105948475438
-0.24925612268253405
-0.24925612268253405
-0.24925612268253405
-0.2554105948475438
-0.2554105948475438
-0.2554105948475438
-0.2554105948475438
-0.2431016505175243
-0.2554105948475438
-0.24925612268253405
-0.2554105948475438
-0.24925612268253405
-0.24925612268253405
-0.24925612268253405
-0.24925612268253405
-0.24925612268253405
-0.24925612268253405
-0.2554105948475438
-0.28618295567253704
-0.24925612268253405
-0.2554105948475438
-0.2554105948475438
-0.24925612268253405
-0.2431016505175243
-0.2431016505175243
-0.2431016505175243
-0.2431016505175243
-0.24925612268253405
-0.2431016505175243
-0.24925612268253405
-0.2431016505175243
-0.2431016505175243
-0.24925612268253405
-0.24925612268253405
-0.2431016505175243
-0.24925612268253405
-0.24925612268253405
-0.2431016505175243
-0.2431016505175243
-0.2431016505175243
-0.23694717835254234
-0.23694717835254234
-0.23694717835254234
-0.2431016505175243
-0.24925612268253405
-0.2431016505175243
-0.2431016505175243
-0.2431016505175243
-0.23694717835254234
-0.23694717835254234
-0.23694717835254234
-0.2431016505175243
-0.23694717835254234
-0.23694717835254234
-0.2431016505175243
-0.23694717835254234
-0.23694717835254234
-0.2431016505175243
-0.2431016505175243
-0.23694717835254234
-0.23694717835254234
-0.23694717835254234
-0.2431016505175243
-0.2431016505175243
-0.2431016505175243
-0.23694717835254234
-0.23694717835254234
-0.23694717835254234
-0.2431016505175243
-0.23694717835254234
-0.23079270618753256
-0.23079270618753256
-0.23079270618753256
-0.23694717835254234
-0.23694717835254234
-0.26156506701252585
-0.2738740113425453
-0.23079270618753256
-0.23079270618753256
-0.23079270618753256
-0.23079270618753256
-0.2246382340225228
-0.23079270618753256
-0.23694717835254234
-0.2431016505175243
-0.2431016505175243
-0.23079270618753256
-0.23079270618753256
-0.23694717835254234
-0.23079270618753256
-0.23694717835254234
-0.23694717835254234
-0.23079270618753256
-0.23079270618753256
-0.23079270618753256
-0.2246382340225228
-0.2246382340225228
-0.23079270618753256
-0.2246382340225228
-0.2246382340225228
-0.2246382340225228
-0.23079270618753256
-0.2246382340225228
-0.2246382340225228
-0.2246382340225228
-0.2246382340225228
-0.23079270618753256
-0.23079270618753256
-0.23079270618753256
-0.2246382340225228
-0.23079270618753256
-0.2246382340225228
-0.2246382340225228
-0.23079270618753256
-0.2246382340225228
-0.2246382340225228
-0.23079270618753256
-0.2246382340225228
-0.2246382340225228
-0.23079270618753256
-0.23079270618753256
-0.2246382340225228
-0.23079270618753256
-0.23694717835254234
-0.23079270618753256
-0.23694717835254234
-0.23694717835254234
-0.23694717835254234
-0.23694717835254234
-0.23079270618753256
-0.2246382340225228
-0.2184837618575408
-0.2246382340225228
-0.2184837618575408
-0.2184837618575408
-0.23079270618753256
-0.23079270618753256
-0.23079270618753256
-0.23694717835254234
-0.24925612268253405
-0.2800284835075273
-0.2246382340225228
-0.2184837618575408
-0.2246382340225228
-0.23079270618753256
-0.23079270618753256
-0.23079270618753256
-0.24925612268253405
-0.26156506701252585
-0.26156506701252585
-0.2738740113425453
-0.26156506701252585
-0.2431016505175243
-0.21232928969253104
-0.16309351237253633
-0.11385773505251384
-0.08923984639250258
-0.1015487907225221
-0.16309351237253633
-0.23079270618753256
-0.28618295567253704
-0.31695531649755804
-0.30464637216753854
-0.30464637216753854
-0.28618295567253704
-0.26771953917753555
-0.26156506701252585
-0.2554105948475438
-0.24925612268253405
-0.2554105948475438
-0.2554105948475438
-0.2554105948475438
-0.2554105948475438
-0.2554105948475438
-0.24925612268253405
-0.2554105948475438
-0.24925612268253405
-0.24925612268253405
-0.24925612268253405
-0.2554105948475438
-0.24925612268253405
-0.24925612268253405
-0.24925612268253405
-0.24925612268253405
-0.24925612268253405
-0.24925612268253405
-0.2554105948475438
-0.24925612268253405
-0.2554105948475438
-0.24925612268253405
-0.2554105948475438
-0.2554105948475438
-0.24925612268253405
-0.2431016505175243
-0.2431016505175243
-0.24925612268253405
-0.24925612268253405
-0.24925612268253405
-0.2431016505175243
-0.24925612268253405
-0.24925612268253405
-0.24925612268253405
-0.24925612268253405
-0.2554105948475438
-0.24925612268253405
-0.2431016505175243
-0.24925612268253405
-0.2431016505175243
-0.24925612268253405
-0.24925612268253405
-0.2431016505175243
-0.2554105948475438
-0.2431016505175243
-0.24925612268253405
-0.2431016505175243
-0.2431016505175243
-0.24925612268253405
-0.2431016505175243
-0.2431016505175243
-0.24925612268253405
-0.23694717835254234
-0.23694717835254234
-0.23694717835254234
-0.23694717835254234
-0.2431016505175243
-0.2431016505175243
-0.23694717835254234
-0.2431016505175243
-0.23694717835254234
-0.2431016505175243
-0.23694717835254234
-0.2431016505175243
-0.2431016505175243
-0.24925612268253405
-0.24925612268253405
-0.2554105948475438
-0.2431016505175243
-0.24925612268253405
-0.24925612268253405
-0.24925612268253405
-0.2554105948475438
-0.2554105948475438
-0.24925612268253405
-0.2554105948475438
-0.24925612268253405
-0.24925612268253405
-0.26156506701252585
-0.2554105948475438
-0.24925612268253405
-0.24925612268253405
-0.24925612268253405
-0.2554105948475438
-0.24925612268253405
-0.2554105948475438
-0.24925612268253405
-0.24925612268253405
-0.2554105948475438
-0.24925612268253405
-0.2554105948475438
-0.24925612268253405
-0.2554105948475438
-0.26771953917753555
-0.29233742783754685
-0.2554105948475438
-0.24925612268253405
-0.24925612268253405
-0.2554105948475438
-0.26156506701252585
-0.26771953917753555
-0.2554105948475438
-0.2554105948475438
-0.24925612268253405
-0.24925612268253405
-0.24925612268253405
-0.24925612268253405
-0.24925612268253405
-0.2554105948475438
-0.2554105948475438
-0.2431016505175243
-0.24925612268253405
-0.24925612268253405
-0.24925612268253405
-0.24925612268253405
-0.2554105948475438
-0.2431016505175243
-0.23694717835254234
-0.23694717835254234
-0.23694717835254234
-0.2431016505175243
-0.2431016505175243
-0.24925612268253405
-0.23694717835254234
-0.23694717835254234
-0.23694717835254234
-0.2431016505175243
-0.2431016505175243
-0.2431016505175243
-0.23694717835254234
-0.2431016505175243
-0.23694717835254234
-0.2431016505175243
-0.2431016505175243
-0.2431016505175243
-0.23694717835254234
-0.23694717835254234
-0.23694717835254234
-0.23694717835254234
-0.2431016505175243
-0.2431016505175243
-0.23694717835254234
-0.23694717835254234
-0.23694717835254234
-0.23694717835254234
-0.23079270618753256
-0.23079270618753256
-0.23694717835254234
-0.23079270618753256
-0.23079270618753256
-0.23694717835254234
-0.23079270618753256
-0.23079270618753256
-0.23079270618753256
-0.2246382340225228
-0.2246382340225228
-0.2246382340225228
-0.23694717835254234
-0.2246382340225228
-0.2246382340225228
-0.23079270618753256
-0.23694717835254234
-0.23079270618753256
-0.23694717835254234
-0.23079270618753256
-0.23694717835254234
-0.23079270618753256
-0.23079270618753256
-0.23079270618753256
-0.23079270618753256
-0.23694717835254234
-0.23079270618753256
-0.23079270618753256
-0.23079270618753256
-0.2246382340225228
-0.2246382340225228
-0.23079270618753256
-0.2246382340225228
-0.2246382340225228
-0.23079270618753256
-0.2246382340225228
-0.23079270618753256
-0.2246382340225228
-0.2246382340225228
-0.2246382340225228
-0.23079270618753256
-0.2246382340225228
-0.23079270618753256
-0.2246382340225228
-0.23079270618753256
-0.2246382340225228
-0.2246382340225228
-0.2246382340225228
-0.23079270618753256
-0.2246382340225228
-0.23079270618753256
-0.2246382340225228
-0.2184837618575408
-0.23079270618753256
-0.23079270618753256
-0.23079270618753256
-0.23079270618753256
-0.23079270618753256
-0.2246382340225228
-0.2246382340225228
-0.2246382340225228
-0.2246382340225228
-0.2246382340225228
-0.23079270618753256
-0.23079270618753256
-0.23694717835254234
-0.23079270618753256
-0.2246382340225228
-0.23079270618753256
-0.23079270618753256
-0.2431016505175243
-0.2738740113425453
-0.23079270618753256
-0.23694717835254234
-0.24925612268253405
-0.2431016505175243
-0.23694717835254234
-0.23694717835254234
-0.23079270618753256
-0.2246382340225228
-0.2246382340225228
-0.23079270618753256
-0.26771953917753555
-0.23694717835254234
-0.2246382340225228
-0.2246382340225228
-0.2246382340225228
-0.2246382340225228
-0.2184837618575408
-0.2246382340225228
-0.23694717835254234
-0.23079270618753256
-0.2246382340225228
-0.23079270618753256
-0.23079270618753256
-0.23079270618753256
-0.2431016505175243
-0.2554105948475438
-0.26156506701252585
-0.24925612268253405
-0.2184837618575408
-0.18771140103251985
-0.15078456804251686
-0.1015487907225221
-0.08923984639250258
-0.1261666793825056
-0.18771140103251985
-0.24925612268253405
-0.2984919000025288
-0.30464637216753854
-0.29233742783754685
-0.28618295567253704
-0.2554105948475438
-0.24925612268253405
-0.24925612268253405
-0.2431016505175243
-0.23694717835254234
-0.23079270618753256
-0.23079270618753256
-0.23079270618753256
-0.2246382340225228
-0.2246382340225228
-0.2246382340225228
-0.2246382340225228
-0.2184837618575408
-0.21232928969253104
-0.2184837618575408
-0.2184837618575408
-0.21232928969253104
-0.21232928969253104
-0.2246382340225228
-0.21232928969253104
-0.2061748175275213
-0.2061748175275213
-0.21232928969253104
-0.2061748175275213
-0.2061748175275213
-0.2184837618575408
-0.21232928969253104
-0.21232928969253104
-0.21232928969253104
-0.21232928969253104
-0.21232928969253104
-0.2184837618575408
-0.21232928969253104
-0.2246382340225228
-0.2246382340225228
-0.2184837618575408
-0.2184837618575408
-0.2184837618575408
-0.2184837618575408
-0.21232928969253104
-0.21232928969253104
-0.2184837618575408
-0.21232928969253104
-0.2184837618575408
-0.2184837618575408
-0.2184837618575408
-0.21232928969253104
-0.2184837618575408
-0.21232928969253104
-0.2184837618575408
-0.2246382340225228
-0.2184837618575408
-0.21232928969253104
-0.21232928969253104
-0.2184837618575408
-0.21232928969253104
-0.21232928969253104
-0.21232928969253104
-0.2184837618575408
-0.21232928969253104
-0.2184837618575408
-0.21232928969253104
-0.21232928969253104
-0.2061748175275213
-0.2061748175275213
-0.21232928969253104
-0.21232928969253104
-0.2246382340225228
-0.2184837618575408
-0.2184837618575408
-0.2246382340225228
-0.2246382340225228
-0.2246382340225228
-0.2246382340225228
-0.23079270618753256
-0.23079270618753256
-0.23079270618753256
-0.23079270618753256
-0.23694717835254234
-0.23079270618753256
-0.2431016505175243
-0.28618295567253704
-0.24925612268253405
-0.23694717835254234
-0.23694717835254234
-0.23694717835254234
-0.2431016505175243
-0.2431016505175243
-0.23694717835254234
-0.2431016505175243
-0.23694717835254234
-0.23694717835254234
-0.23694717835254234
-0.23694717835254234
-0.23694717835254234
-0.23694717835254234
-0.2431016505175243
-0.2431016505175243
-0.23694717835254234
-0.2431016505175243
-0.23694717835254234
-0.23079270618753256
-0.23694717835254234
-0.23079270618753256
-0.23694717835254234
-0.23694717835254234
-0.23694717835254234
-0.23079270618753256
-0.23694717835254234
-0.23079270618753256
-0.23079270618753256
-0.23694717835254234
-0.23079270618753256
-0.23694717835254234
-0.23694717835254234
-0.23694717835254234
-0.23079270618753256
-0.23694717835254234
-0.23694717835254234
-0.23079270618753256
-0.2246382340225228
-0.23079270618753256
-0.23079270618753256
-0.23079270618753256
-0.23079270618753256
-0.2246382340225228
-0.23079270618753256
-0.2246382340225228
-0.2246382340225228
-0.23079270618753256
-0.23079270618753256
-0.2246382340225228
-0.2246382340225228
-0.2246382340225228
-0.2246382340225228
-0.23079270618753256
-0.2246382340225228
-0.2246382340225228
-0.23694717835254234
-0.23694717835254234
-0.23079270618753256
-0.23079270618753256
-0.23694717835254234
-0.23079270618753256
-0.23694717835254234
-0.23694717835254234
-0.23079270618753256
-0.23694717835254234
-0.23694717835254234
-0.23079270618753256
-0.23079270618753256
-0.23079270618753256
-0.23079270618753256
-0.23694717835254234
-0.23079270618753256
-0.23694717835254234
-0.23079270618753256
-0.23079270618753256
-0.23079270618753256
-0.23694717835254234
-0.23079270618753256
-0.23079270618753256
-0.23694717835254234
-0.23694717835254234
-0.23079270618753256
-0.23079270618753256
-0.23694717835254234
-0.23079270618753256
-0.23079270618753256
-0.2431016505175243
-0.23079270618753256
-0.23694717835254234
-0.23694717835254234
-0.23694717835254234
-0.23694717835254234
-0.23694717835254234
-0.23079270618753256
-0.23079270618753256
-0.23694717835254234
-0.23694717835254234
-0.23694717835254234
-0.2431016505175243
-0.2431016505175243
-0.2431016505175243
-0.23694717835254234
-0.2431016505175243
-0.2431016505175243
-0.23694717835254234
-0.23694717835254234
-0.23694717835254234
-0.2431016505175243
-0.23694717835254234
-0.23694717835254234
-0.23694717835254234
-0.23694717835254234
-0.23694717835254234
-0.23694717835254234
-0.23694717835254234
-0.24925612268253405
-0.2431016505175243
-0.24925612268253405
-0.24925612268253405
-0.2554105948475438
-0.2800284835075273
-0.2431016505175243
-0.23694717835254234
-0.23694717835254234
-0.23694717835254234
-0.24925612268253405
-0.2554105948475438
-0.26156506701252585
-0.26771953917753555
-0.26771953917753555
-0.26771953917753555
-0.2554105948475438
-0.2554105948475438
-0.24925612268253405
-0.24925612268253405
-0.24925612268253405
-0.2431016505175243
-0.2554105948475438
-0.24925612268253405
-0.26156506701252585
-0.26156506701252585
-0.24925612268253405
-0.24925612268253405
-0.26156506701252585
-0.26156506701252585
-0.26156506701252585
-0.2554105948475438
-0.2554105948475438
-0.26156506701252585
-0.2554105948475438
-0.2738740113425453
-0.2738740113425453
-0.29233742783754685
-0.28618295567253704
-0.26771953917753555
-0.2431016505175243
-0.21232928969253104
-0.17540245670252808
-0.1384756237125251
-0.1384756237125251
-0.1938658731975296
-0.2554105948475438
-0.2984919000025288
-0.3354187329925596
-0.3354187329925596
-0.3292642608275498
-0.3108008443325483
-0.2984919000025288
-0.28618295567253704
-0.2738740113425453
-0.26771953917753555
-0.26771953917753555
-0.2738740113425453
-0.26771953917753555
-0.2738740113425453
-0.2738740113425453
-0.26771953917753555
-0.26771953917753555
-0.26156506701252585
-0.26156506701252585
-0.26771953917753555
-0.2554105948475438
-0.26156506701252585
-0.26156506701252585
-0.2554105948475438
-0.26156506701252585
-0.2554105948475438
-0.2554105948475438
-0.2554105948475438
-0.26156506701252585
-0.26156506701252585
-0.24925612268253405
-0.24925612268253405
-0.2554105948475438
-0.2554105948475438
-0.2554105948475438
-0.2554105948475438
-0.2554105948475438
-0.24925612268253405
-0.2554105948475438
-0.24925612268253405
-0.24925612268253405
-0.2554105948475438
-0.24925612268253405
-0.26156506701252585
-0.2554105948475438
-0.29233742783754685
-0.28618295567253704
-0.2554105948475438
-0.2554105948475438
-0.24925612268253405
-0.2554105948475438
-0.24925612268253405
-0.2554105948475438
-0.2738740113425453
-0.2738740113425453
-0.26156506701252585
-0.26156506701252585
-0.26156506701252585
-0.26771953917753555
-0.2554105948475438
-0.2554105948475438
-0.26156506701252585
-0.26156506701252585
-0.2554105948475438
-0.2554105948475438
-0.24925612268253405
-0.2554105948475438
-0.24925612268253405
-0.24925612268253405
-0.24925612268253405
-0.2554105948475438
-0.26156506701252585
-0.2554105948475438
-0.26156506701252585
-0.26156506701252585
-0.26156506701252585
-0.26156506701252585
-0.26771953917753555
-0.26156506701252585
-0.26771953917753555
-0.2800284835075273
-0.31695531649755804
-0.26771953917753555
-0.26156506701252585
-0.26156506701252585
-0.2738740113425453
-0.2800284835075273
-0.26771953917753555
-0.2738740113425453
-0.26771953917753555
-0.2738740113425453
-0.26156506701252585
-0.2554105948475438
-0.26771953917753555
-0.26771953917753555
-0.26771953917753555
-0.26156506701252585
-0.26156506701252585
-0.2554105948475438
-0.26156506701252585
-0.26156506701252585
-0.26156506701252585
-0.26771953917753555
-0.26771953917753555
-0.26771953917753555
-0.26771953917753555
-0.26771953917753555
-0.26771953917753555
-0.26771953917753555
-0.26771953917753555
-0.26156506701252585
-0.26156506701252585
-0.26156506701252585
-0.26156506701252585
-0.26771953917753555
-0.26156506701252585
-0.26771953917753555
-0.26771953917753555
-0.26156506701252585
-0.26771953917753555
-0.26771953917753555
-0.2554105948475438
-0.26156506701252585
-0.2554105948475438
-0.2554105948475438
-0.2554105948475438
-0.2554105948475438
-0.26156506701252585
-0.2554105948475438
-0.2554105948475438
-0.24925612268253405
-0.24925612268253405
-0.2554105948475438
-0.26156506701252585
-0.26156506701252585
-0.2554105948475438
-0.2554105948475438
-0.2554105948475438
-0.2554105948475438
-0.26156506701252585
-0.2554105948475438
-0.26156506701252585
-0.2554105948475438
-0.26156506701252585
-0.26156506701252585
-0.26156506701252585
-0.26771953917753555
-0.26156506701252585
-0.26156506701252585
-0.26771953917753555
-0.26771953917753555
-0.26156506701252585
-0.26156506701252585
-0.26156506701252585
-0.26156506701252585
-0.26156506701252585
-0.2554105948475438
-0.26156506701252585
-0.2554105948475438
-0.26156506701252585
-0.2554105948475438
-0.26156506701252585
-0.2554105948475438
-0.2554105948475438
-0.26771953917753555
-0.26771953917753555
-0.2554105948475438
-0.26156506701252585
-0.26156506701252585
-0.26156506701252585
-0.2554105948475438
-0.2554105948475438
-0.2554105948475438
-0.26156506701252585
-0.2554105948475438
-0.26156506701252585
-0.26156506701252585
-0.26156506701252585
-0.26156506701252585
-0.2554105948475438
-0.26156506701252585
-0.26771953917753555
-0.26771953917753555
-0.26156506701252585
-0.26156506701252585
-0.26156506701252585
-0.26156506701252585
-0.26156506701252585
-0.26156506701252585
-0.26156506701252585
-0.26156506701252585
-0.26771953917753555
-0.26156506701252585
-0.26156506701252585
-0.26156506701252585
-0.26156506701252585
-0.26771953917753555
-0.26156506701252585
-0.26156506701252585
-0.26156506701252585
-0.26771953917753555
-0.26156506701252585
-0.2738740113425453
-0.2984919000025288
-0.26156506701252585
-0.26771953917753555
-0.26771953917753555
-0.26771953917753555
-0.26156506701252585
-0.26771953917753555
-0.26156506701252585
-0.26156506701252585
-0.26771953917753555
-0.26771953917753555
-0.26156506701252585
-0.26156506701252585
-0.2554105948475438
-0.2554105948475438
-0.2554105948475438
-0.26156506701252585
-0.26156506701252585
-0.26156506701252585
-0.26156506701252585
-0.26156506701252585
-0.26771953917753555
-0.2554105948475438
-0.24925612268253405
-0.24925612268253405
-0.2431016505175243
-0.24925612268253405
-0.24925612268253405
-0.24925612268253405
-0.26156506701252585
-0.26156506701252585
-0.26156506701252585
-0.2554105948475438
-0.24925612268253405
-0.24925612268253405
-0.2554105948475438
-0.2554105948475438
-0.24925612268253405
-0.2431016505175243
-0.2431016505175243
-0.24925612268253405
-0.2554105948475438
-0.2738740113425453
-0.28618295567253704
-0.2800284835075273
-0.26771953917753555
-0.24925612268253405
-0.2061748175275213
-0.1692479845375183
-0.1200122072175236
-0.10770326288750408
-0.14463009587750708
-0.2061748175275213
-0.2738740113425453
-0.31695531649755804
-0.3292642608275498
-0.32310978866254003
-0.2984919000025288
-0.28618295567253704
-0.28618295567253704
-0.2800284835075273
-0.26771953917753555
-0.26771953917753555
-0.26771953917753555
-0.26771953917753555
-0.26771953917753555
-0.26771953917753555
-0.26156506701252585
-0.26771953917753555
-0.26156506701252585
-0.2554105948475438
-0.2554105948475438
-0.26156506701252585
-0.2554105948475438
-0.26156506701252585
-0.2554105948475438
-0.2554105948475438
-0.26156506701252585
-0.2554105948475438
-0.2554105948475438
-0.2554105948475438
-0.2554105948475438
-0.2554105948475438
-0.26156506701252585
-0.2554105948475438
-0.2554105948475438
-0.2554105948475438
-0.26156506701252585
-0.26156506701252585
-0.26156506701252585
-0.24925612268253405
-0.2554105948475438
-0.24925612268253405
-0.24925612268253405
-0.24925612268253405
-0.2554105948475438
-0.2554105948475438
-0.24925612268253405
-0.2554105948475438
-0.24925612268253405
-0.24925612268253405
-0.26156506701252585
-0.26156506701252585
-0.2554105948475438
-0.26156506701252585
-0.26156506701252585
-0.26156506701252585
-0.26156506701252585
-0.2554105948475438
-0.26156506701252585
-0.26156506701252585
-0.2554105948475438
-0.26156506701252585
-0.26156506701252585
-0.26771953917753555
-0.26156506701252585
-0.2554105948475438
-0.26156506701252585
-0.2554105948475438
-0.2554105948475438
-0.24925612268253405
-0.2738740113425453
-0.30464637216753854
-0.2554105948475438
-0.2554105948475438
-0.2554105948475438
-0.26156506701252585
-0.26156506701252585
-0.26156506701252585
-0.26771953917753555
-0.2738740113425453
-0.2800284835075273
-0.26771953917753555
-0.26771953917753555
-0.2738740113425453
-0.2738740113425453
-0.2738740113425453
-0.26771953917753555
-0.2738740113425453
-0.2738740113425453
-0.26771953917753555
-0.26771953917753555
-0.2738740113425453
-0.26771953917753555
-0.2738740113425453
-0.2738740113425453
-0.26156506701252585
-0.26156506701252585
-0.26156506701252585
-0.26771953917753555
-0.26156506701252585
-0.26771953917753555
-0.26156506701252585
-0.26156506701252585
-0.26156506701252585
-0.26771953917753555
-0.26156506701252585
-0.26156506701252585
-0.2554105948475438
-0.2554105948475438
-0.26156506701252585
-0.2738740113425453
-0.3108008443325483
-0.26156506701252585
-0.24925612268253405
-0.24925612268253405
-0.2554105948475438
-0.2554105948475438
-0.2554105948475438
-0.24925612268253405
-0.26771953917753555
-0.26771953917753555
-0.26771953917753555
-0.2554105948475438
-0.24925612268253405
-0.2554105948475438
-0.24925612268253405
-0.24925612268253405
-0.2554105948475438
-0.2554105948475438
-0.2554105948475438
-0.2554105948475438
-0.24925612268253405
-0.24925612268253405
-0.24925612268253405
-0.2554105948475438
-0.26156506701252585
-0.2554105948475438
-0.24925612268253405
-0.26156506701252585
-0.2554105948475438
-0.2554105948475438
-0.2554105948475438
-0.2554105948475438
-0.2554105948475438
-0.2554105948475438
-0.2554105948475438
-0.24925612268253405
-0.24925612268253405
-0.2431016505175243
-0.24925612268253405
-0.24925612268253405
-0.2554105948475438
-0.24925612268253405
-0.24925612268253405
-0.24925612268253405
-0.24925612268253405
-0.24925612268253405
-0.24925612268253405
-0.2554105948475438
-0.2554105948475438
-0.24925612268253405
-0.2554105948475438
-0.24925612268253405
-0.2554105948475438
-0.24925612268253405
-0.2554105948475438
-0.24925612268253405
-0.2554105948475438
-0.2554105948475438
-0.24925612268253405
-0.2554105948475438
-0.2554105948475438
-0.24925612268253405
-0.2554105948475438
-0.2554105948475438
-0.24925612268253405
-0.24925612268253405
-0.24925612268253405
-0.24925612268253405
-0.2554105948475438
-0.24925612268253405
-0.2554105948475438
-0.26156506701252585
-0.2554105948475438
-0.24925612268253405
-0.2554105948475438
-0.24925612268253405
-0.26156506701252585
-0.2554105948475438
-0.24925612268253405
-0.24925612268253405
-0.2554105948475438
-0.26156506701252585
-0.29233742783754685
-0.2554105948475438
-0.24925612268253405
-0.2431016505175243
-0.2431016505175243
-0.2554105948475438
-0.26156506701252585
-0.24925612268253405
-0.2554105948475438
-0.2431016505175243
-0.24925612268253405
-0.2431016505175243
-0.24925612268253405
-0.24925612268253405
-0.24925612268253405
-0.24925612268253405
-0.2431016505175243
-0.2431016505175243
-0.24925612268253405
-0.24925612268253405
-0.2431016505175243
-0.24925612268253405
-0.23694717835254234
-0.2431016505175243
-0.2431016505175243
-0.24925612268253405
-0.23694717835254234
-0.2431016505175243
-0.23694717835254234
-0.24925612268253405
-0.2431016505175243
-0.24925612268253405
-0.2431016505175243
-0.23079270618753256
-0.2246382340225228
-0.2184837618575408
-0.2246382340225228
-0.2246382340225228
-0.23079270618753256
-0.23079270618753256
-0.23079270618753256
-0.23694717835254234
-0.23694717835254234
-0.23694717835254234
-0.23079270618753256
-0.23694717835254234
-0.23079270618753256
-0.23079270618753256
-0.23694717835254234
-0.23079270618753256
-0.23694717835254234
-0.23079270618753256
-0.2431016505175243
-0.2554105948475438
-0.26771953917753555
-0.26156506701252585
-0.23694717835254234
-0.2000203453625393
-0.15078456804251686
-0.10770326288750408
-0.08308537422752059
-0.1015487907225221
-0.17540245670252808
-0.23079270618753256
-0.29233742783754685
-0.30464637216753854
-0.2984919000025288
-0.2984919000025288
-0.26771953917753555
-0.26156506701252585
-0.24925612268253405
-0.2431016505175243
-0.23694717835254234
-0.23694717835254234
-0.23694717835254234
-0.23694717835254234
-0.2431016505175243
-0.23694717835254234
-0.2431016505175243
-0.23694717835254234
-0.2431016505175243
-0.23079270618753256
-0.23694717835254234
-0.23079270618753256
-0.23079270618753256
-0.23694717835254234
-0.23694717835254234
-0.23079270618753256
-0.23079270618753256
-0.23079270618753256
-0.23694717835254234
-0.23079270618753256
-0.23079270618753256
-0.23694717835254234
-0.23694717835254234
-0.23694717835254234
-0.23694717835254234
-0.23694717835254234
-0.23694717835254234
-0.23079270618753256
-0.23079270618753256
-0.23694717835254234
-0.23079270618753256
-0.23694717835254234
-0.23079270618753256
-0.23079270618753256
-0.23694717835254234
-0.23079270618753256
-0.23079270618753256
-0.23079270618753256
-0.23079270618753256
-0.23694717835254234
-0.23694717835254234
-0.23079270618753256
-0.23079270618753256
-0.23694717835254234
-0.23694717835254234
-0.23694717835254234
-0.23694717835254234
-0.23694717835254234
-0.23694717835254234
-0.2431016505175243
-0.26771953917753555
-0.2246382340225228
-0.2246382340225228
-0.2246382340225228
-0.23694717835254234
-0.2246382340225228
-0.2246382340225228
-0.2246382340225228
-0.2246382340225228
-0.23079270618753256
-0.2246382340225228
-0.2246382340225228
-0.2246382340225228
-0.23694717835254234
-0.23079270618753256
-0.23079270618753256
-0.23079270618753256
-0.23694717835254234
-0.23694717835254234
-0.23694717835254234
-0.23694717835254234
-0.2431016505175243
-0.23694717835254234
-0.23694717835254234
-0.23694717835254234
-0.23694717835254234
-0.2431016505175243
-0.2431016505175243
-0.24925612268253405
-0.2431016505175243
-0.23694717835254234
-0.2431016505175243
-0.23694717835254234
-0.2431016505175243
-0.23694717835254234
-0.2431016505175243
-0.2431016505175243
-0.23694717835254234
-0.2431016505175243
-0.2431016505175243
-0.24925612268253405
-0.2431016505175243
-0.2431016505175243
-0.24925612268253405
-0.2431016505175243
-0.24925612268253405
-0.2431016505175243
-0.2431016505175243
-0.2431016505175243
-0.24925612268253405
-0.24925612268253405
-0.2431016505175243
-0.2431016505175243
-0.23694717835254234
-0.2431016505175243
-0.2431016505175243
-0.2431016505175243
-0.23079270618753256
-0.2431016505175243
-0.2431016505175243
-0.23694717835254234
-0.2431016505175243
-0.23694717835254234
-0.2431016505175243
-0.23694717835254234
-0.23079270618753256
-0.23694717835254234
-0.23694717835254234
-0.23694717835254234
-0.23079270618753256
-0.23694717835254234
-0.23079270618753256
-0.23079270618753256
-0.23694717835254234
-0.23694717835254234
-0.23694717835254234
-0.23079270618753256
-0.23694717835254234
-0.23079270618753256
-0.23694717835254234
-0.23079270618753256
-0.23694717835254234
-0.23079270618753256
-0.23079270618753256
-0.23694717835254234
-0.23079270618753256
-0.23079270618753256
-0.23694717835254234
-0.23694717835254234
-0.23694717835254234
-0.23694717835254234
-0.24925612268253405
-0.23694717835254234
-0.24925612268253405
-0.2431016505175243
-0.2431016505175243
-0.24925612268253405
-0.2431016505175243
-0.23694717835254234
-0.2431016505175243
-0.2431016505175243
-0.2431016505175243
-0.2431016505175243
-0.23694717835254234
-0.23079270618753256
-0.23694717835254234
-0.2431016505175243
-0.2431016505175243
-0.23694717835254234
-0.23694717835254234
-0.23079270618753256
-0.23079270618753256
-0.2246382340225228
-0.23079270618753256
-0.23079270618753256
-0.26771953917753555
-0.23694717835254234
-0.2246382340225228
-0.2184837618575408
-0.2184837618575408
-0.2246382340225228
-0.23694717835254234
-0.2800284835075273
-0.2554105948475438
-0.2431016505175243
-0.2431016505175243
-0.23694717835254234
-0.23694717835254234
-0.23694717835254234
-0.23694717835254234
-0.23694717835254234
-0.2431016505175243
-0.2431016505175243
-0.23694717835254234
-0.23079270618753256
-0.23079270618753256
-0.2431016505175243
-0.23694717835254234
-0.23694717835254234
-0.23694717835254234
-0.23694717835254234
-0.2431016505175243
-0.23694717835254234
-0.23694717835254234
-0.2431016505175243
-0.23694717835254234
-0.23694717835254234
-0.23079270618753256
-0.23694717835254234
-0.23079270618753256
-0.23079270618753256
-0.23694717835254234
-0.23079270618753256
-0.23079270618753256
-0.23079270618753256
-0.23694717835254234
-0.23694717835254234
-0.23079270618753256
-0.23694717835254234
-0.23079270618753256
-0.23694717835254234
-0.2431016505175243
-0.2431016505175243
-0.2431016505175243
-0.23694717835254234
-0.23694717835254234
-0.23079270618753256
-0.23079270618753256
-0.23694717835254234
-0.23694717835254234
-0.23694717835254234
-0.2431016505175243
-0.23694717835254234
-0.23694717835254234
-0.23694717835254234
-0.23694717835254234
-0.23079270618753256
-0.23079270618753256
-0.23694717835254234
-0.23694717835254234
-0.23694717835254234
-0.23694717835254234
-0.2431016505175243
-0.2431016505175243
-0.2554105948475438
-0.2738740113425453
-0.2738740113425453
-0.2554105948475438
-0.23079270618753256
-0.2000203453625393
-0.15693904020752658
-0.1261666793825056
-0.13232115154751534
-0.1692479845375183
-0.2431016505175243
-0.29233742783754685
-0.3354187329925596
-0.3354187329925596
-0.3292642608275498
-0.30464637216753854
-0.2800284835075273
-0.2738740113425453
-0.2738740113425453
-0.26771953917753555
-0.2554105948475438
-0.24925612268253405
-0.2554105948475438
-0.2554105948475438
-0.24925612268253405
-0.24925612268253405
-0.2431016505175243
-0.2431016505175243
-0.2431016505175243
-0.2431016505175243
-0.24925612268253405
-0.24925612268253405
-0.24925612268253405
-0.24925612268253405
-0.2554105948475438
-0.2554105948475438
-0.2431016505175243
-0.2431016505175243
-0.24925612268253405
-0.2431016505175243
-0.2431016505175243
-0.2431016505175243
-0.24925612268253405
-0.2554105948475438
-0.24925612268253405
-0.2431016505175243
-0.2431016505175243
-0.2431016505175243
-0.2431016505175243
-0.2431016505175243
-0.2431016505175243
-0.24925612268253405
-0.2431016505175243
-0.24925612268253405
-0.24925612268253405
-0.24925612268253405
-0.24925612268253405
-0.24925612268253405
-0.24925612268253405
-0.26156506701252585
-0.2738740113425453
-0.24925612268253405
-0.24925612268253405
-0.24925612268253405
-0.2431016505175243
-0.24925612268253405
-0.2431016505175243
-0.2554105948475438
-0.24925612268253405
-0.2431016505175243
-0.24925612268253405
-0.2431016505175243
-0.2431016505175243
-0.23694717835254234
-0.23694717835254234
-0.24925612268253405
-0.2431016505175243
-0.23694717835254234
-0.24925612268253405
-0.2431016505175243
-0.2431016505175243
-0.2554105948475438
-0.2554105948475438
-0.26156506701252585
-0.2554105948475438
-0.26156506701252585
-0.26156506701252585
-0.26156506701252585
-0.26156506701252585
-0.2554105948475438
-0.2554105948475438
-0.26156506701252585
-0.26156506701252585
-0.26771953917753555
-0.26156506701252585
-0.26771953917753555
-0.26156506701252585
-0.26156506701252585
-0.26771953917753555
-0.26771953917753555
-0.2738740113425453
-0.2738740113425453
-0.2738740113425453
-0.26771953917753555
-0.26771953917753555
-0.2738740113425453
-0.26771953917753555
-0.26771953917753555
-0.26771953917753555
-0.26771953917753555
-0.2738740113425453
-0.26771953917753555
-0.26771953917753555
-0.26771953917753555
-0.2738740113425453
-0.26771953917753555
-0.26771953917753555
-0.26771953917753555
-0.2738740113425453
-0.26156506701252585
-0.26771953917753555
-0.26771953917753555
-0.2738740113425453
-0.2738740113425453
-0.26156506701252585
-0.2554105948475438
-0.2554105948475438
-0.26156506701252585
-0.26156506701252585
-0.26771953917753555
-0.26771953917753555
-0.26771953917753555
-0.26771953917753555
-0.26771953917753555
-0.26771953917753555
-0.26771953917753555
-0.26156506701252585
-0.26156506701252585
-0.26771953917753555
-0.26771953917753555
-0.26771953917753555
-0.26771953917753555
-0.26156506701252585
-0.26771953917753555
-0.26156506701252585
-0.26156506701252585
-0.26771953917753555
-0.26156506701252585
-0.26771953917753555
-0.2554105948475438
-0.26156506701252585
-0.2554105948475438
-0.2554105948475438
-0.2554105948475438
-0.24925612268253405
-0.24925612268253405
-0.26156506701252585
-0.26156506701252585
-0.26156506701252585
-0.2554105948475438
-0.26156506701252585
-0.26156506701252585
-0.2554105948475438
-0.2554105948475438
-0.26156506701252585
-0.2554105948475438
-0.26156506701252585
-0.2554105948475438
-0.2554105948475438
-0.26156506701252585
-0.2554105948475438
-0.2554105948475438
-0.24925612268253405
-0.24925612268253405
-0.24925612268253405
-0.2554105948475438
-0.24925612268253405
-0.26156506701252585
-0.2554105948475438
-0.2554105948475438
-0.2554105948475438
-0.26156506701252585
-0.28618295567253704
-0.24925612268253405
-0.2554105948475438
-0.2554105948475438
-0.2554105948475438
-0.26771953917753555
-0.26156506701252585
-0.26156506701252585
-0.2554105948475438
-0.26156506701252585
-0.26156506701252585
-0.2554105948475438
-0.2554105948475438
-0.26156506701252585
-0.26156506701252585
-0.26156506701252585
-0.26156506701252585
-0.2554105948475438
-0.26156506701252585
-0.2554105948475438
-0.2554105948475438
-0.2554105948475438
-0.26156506701252585
-0.2554105948475438
-0.2554105948475438
-0.2554105948475438
-0.26156506701252585
-0.26156506701252585
-0.26771953917753555
-0.26156506701252585
-0.26156506701252585
-0.2554105948475438
-0.2554105948475438
-0.2554105948475438
-0.2554105948475438
-0.26156506701252585
-0.2554105948475438
-0.2554105948475438
-0.26156506701252585
-0.26156506701252585
-0.2554105948475438
-0.2554105948475438
-0.2554105948475438
-0.2554105948475438
-0.26156506701252585
-0.26156506701252585
-0.26771953917753555
-0.26156506701252585
-0.26156506701252585
-0.24925612268253405
-0.24925612268253405
-0.24925612268253405
-0.24925612268253405
-0.26156506701252585
-0.2554105948475438
-0.26156506701252585
-0.2554105948475438
-0.26156506701252585
-0.26156506701252585
-0.2554105948475438
-0.26156506701252585
-0.26156506701252585
-0.26156506701252585
-0.26771953917753555
-0.26156506701252585
-0.26156506701252585
-0.26156506701252585
-0.2738740113425453
-0.30464637216753854
-0.32310978866254003
-0.2738740113425453
-0.24925612268253405
-0.2184837618575408
-0.18771140103251985
-0.15078456804251686
-0.1384756237125251
-0.17540245670252808
-0.2431016505175243
-0.28618295567253704
-0.3354187329925596
-0.34772767732255133
-0.3354187329925596
-0.32310978866254003
-0.30464637216753854
-0.29233742783754685
-0.28618295567253704
-0.2800284835075273
-0.2738740113425453
-0.26771953917753555
-0.26771953917753555
-0.26771953917753555
-0.2738740113425453
-0.2738740113425453
-0.26771953917753555
-0.26771953917753555
-0.26156506701252585
-0.26771953917753555
-0.2554105948475438
-0.26156506701252585
-0.26156506701252585
-0.26156506701252585
-0.2554105948475438
-0.26156506701252585
-0.26156506701252585
-0.2554105948475438
-0.26156506701252585
-0.26156506701252585
-0.2554105948475438
-0.2554105948475438
-0.2554105948475438
-0.24925612268253405
-0.24925612268253405
-0.24925612268253405
-0.24925612268253405
-0.24925612268253405
-0.2554105948475438
-0.24925612268253405
-0.2554105948475438
-0.2554105948475438
-0.2554105948475438
-0.2554105948475438
-0.26156506701252585
-0.28618295567253704
-0.2554105948475438
-0.26156506701252585
-0.26771953917753555
-0.26156506701252585
-0.26771953917753555
-0.2554105948475438
-0.26156506701252585
-0.2554105948475438
-0.26156506701252585
-0.24925612268253405
-0.2431016505175243
-0.2554105948475438
-0.2554105948475438
-0.2554105948475438
-0.24925612268253405
-0.2554105948475438
-0.2554105948475438
-0.24925612268253405
-0.2554105948475438
-0.24925612268253405
-0.2431016505175243
-0.2431016505175243
-0.2431016505175243
-0.2431016505175243
-0.24925612268253405
-0.26156506701252585
-0.24925612268253405
-0.24925612268253405
-0.26156506701252585
-0.26156506701252585
-0.26156506701252585
-0.26156506701252585
-0.26156506701252585
-0.26156506701252585
-0.26771953917753555
-0.26156506701252585
-0.26771953917753555
-0.26156506701252585
-0.26156506701252585
-0.26156506701252585
-0.26156506701252585
-0.26156506701252585
-0.26771953917753555
-0.26156506701252585
-0.26771953917753555
-0.26771953917753555
-0.26771953917753555
-0.26771953917753555
-0.26156506701252585
-0.26771953917753555
-0.26156506701252585
-0.26156506701252585
-0.26771953917753555
-0.26771953917753555
-0.26156506701252585
-0.26771953917753555
-0.26771953917753555
-0.26771953917753555
-0.26156506701252585
-0.26771953917753555
-0.26156506701252585
-0.26771953917753555
-0.2738740113425453
-0.26156506701252585
-0.26771953917753555
-0.26771953917753555
-0.26156506701252585
-0.26771953917753555
-0.26156506701252585
-0.26156506701252585
-0.2554105948475438
-0.26156506701252585
-0.26156506701252585
-0.26156506701252585
-0.2554105948475438
-0.26156506701252585
-0.2554105948475438
-0.26156506701252585
-0.2554105948475438
-0.2554105948475438
-0.26156506701252585
-0.2554105948475438
-0.2554105948475438
-0.26156506701252585
-0.26156506701252585
-0.2554105948475438
-0.26156506701252585
-0.26156506701252585
-0.26156506701252585
-0.26156506701252585
-0.26771953917753555
-0.26156506701252585
-0.26156506701252585
-0.26156506701252585
-0.26771953917753555
-0.26771953917753555
-0.26156506701252585
-0.26771953917753555
-0.26156506701252585
-0.26156506701252585
-0.26156506701252585
-0.26771953917753555
-0.26156506701252585
-0.26771953917753555
-0.26771953917753555
-0.26156506701252585
-0.26771953917753555
-0.26156506701252585
-0.26156506701252585
-0.26771953917753555
-0.26156506701252585
-0.26771953917753555
-0.26771953917753555
-0.26156506701252585
-0.26771953917753555
-0.26771953917753555
-0.26771953917753555
-0.26156506701252585
-0.26156506701252585
-0.26156506701252585
-0.2738740113425453
-0.30464637216753854
-0.26156506701252585
-0.2554105948475438
-0.2554105948475438
-0.26156506701252585
-0.26156506701252585
-0.26156506701252585
-0.2554105948475438
-0.2738740113425453
-0.28618295567253704
-0.2800284835075273
-0.2738740113425453
-0.2738740113425453
-0.26156506701252585
-0.26771953917753555
-0.26156506701252585
-0.26771953917753555
-0.26771953917753555
-0.26771953917753555
-0.26156506701252585
-0.26156506701252585
-0.26156506701252585
-0.26156506701252585
-0.26156506701252585
-0.2738740113425453
-0.2738740113425453
-0.26771953917753555
-0.2738740113425453
-0.26156506701252585
-0.26156506701252585
-0.26156506701252585
-0.26771953917753555
-0.2738740113425453
-0.26771953917753555
-0.26156506701252585
-0.2738740113425453
-0.2738740113425453
-0.26771953917753555
-0.26771953917753555
-0.26156506701252585
-0.26156506701252585
-0.26771953917753555
-0.26156506701252585
-0.26771953917753555
-0.26771953917753555
-0.26156506701252585
-0.26156506701252585
-0.26771953917753555
-0.26156506701252585
-0.26771953917753555
-0.2738740113425453
-0.26771953917753555
-0.2800284835075273
-0.2738740113425453
-0.2800284835075273
-0.2738740113425453
-0.28618295567253704
-0.28618295567253704
-0.2800284835075273
-0.2738740113425453
-0.2800284835075273
-0.2738740113425453
-0.26771953917753555
-0.26771953917753555
-0.26771953917753555
-0.26771953917753555
-0.2738740113425453
-0.2738740113425453
-0.2800284835075273
-0.26771953917753555
-0.2738740113425453
-0.2738740113425453
-0.2738740113425453
-0.26771953917753555
-0.26771953917753555
-0.2738740113425453
-0.2738740113425453
-0.2738740113425453
-0.26771953917753555
-0.2800284835075273
-0.29233742783754685
-0.2984919000025288
-0.30464637216753854
-0.28618295567253704
-0.26771953917753555
-0.2246382340225228
-0.18771140103251985
-0.15078456804251686
-0.15078456804251686
-0.2061748175275213
-0.26771953917753555
-0.31695531649755804
-0.34772767732255133
-0.35388214948756097
-0.3415732051575415
-0.32310978866254003
-0.3108008443325483
-0.3108008443325483
-0.29233742783754685
-0.2984919000025288
-0.29233742783754685
-0.29233742783754685
-0.29233742783754685
-0.28618295567253704
-0.29233742783754685
-0.29233742783754685
-0.2800284835075273
-0.28618295567253704
-0.2800284835075273
-0.2800284835075273
-0.28618295567253704
-0.28618295567253704
-0.2800284835075273
-0.28618295567253704
-0.28618295567253704
-0.28618295567253704
-0.28618295567253704
-0.2800284835075273
-0.2800284835075273
-0.26156506701252585
-0.26771953917753555
-0.28618295567253704
-0.30464637216753854
-0.2738740113425453
-0.2738740113425453
-0.26771953917753555
-0.2738740113425453
-0.2738740113425453
-0.2984919000025288
-0.28618295567253704
-0.2800284835075273
-0.2800284835075273
-0.26771953917753555
-0.26771953917753555
-0.2738740113425453
-0.2738740113425453
-0.2738740113425453
-0.26771953917753555
-0.2738740113425453
-0.2738740113425453
-0.26771953917753555
-0.26771953917753555
-0.2738740113425453
-0.2800284835075273
-0.32310978866254003
-0.2800284835075273
-0.2738740113425453
-0.26771953917753555
-0.26156506701252585
-0.26156506701252585
-0.26771953917753555
-0.26156506701252585
-0.26771953917753555
-0.2738740113425453
-0.2738740113425453
-0.26156506701252585
-0.26156506701252585
-0.26156506701252585
-0.26156506701252585
-0.26156506701252585
-0.26771953917753555
-0.2554105948475438
-0.26771953917753555
-0.26771953917753555
-0.26771953917753555
-0.26771953917753555
-0.26771953917753555
-0.26156506701252585
-0.26771953917753555
-0.26771953917753555
-0.2738740113425453
-0.26771953917753555
-0.2738740113425453
-0.2738740113425453
-0.2738740113425453
-0.2738740113425453
-0.2738740113425453
-0.2738740113425453
-0.26771953917753555
-0.26771953917753555
-0.2738740113425453
-0.2738740113425453
-0.26771953917753555
-0.26156506701252585
-0.26771953917753555
-0.26771953917753555
-0.26771953917753555
-0.2738740113425453
-0.2800284835075273
-0.2800284835075273
-0.2738740113425453
-0.2800284835075273
-0.2800284835075273
-0.2738740113425453
-0.2800284835075273
-0.2800284835075273
-0.2800284835075273
-0.2800284835075273
-0.2738740113425453
-0.2738740113425453
-0.2738740113425453
-0.2738740113425453
-0.26771953917753555
-0.2738740113425453
-0.2738740113425453
-0.2738740113425453
-0.2800284835075273
-0.2800284835075273
-0.2738740113425453
-0.2800284835075273
-0.2738740113425453
-0.2800284835075273
-0.2738740113425453
-0.26771953917753555
-0.2738740113425453
-0.2738740113425453
-0.26771953917753555
-0.26156506701252585
-0.26771953917753555
-0.26156506701252585
-0.26771953917753555
-0.26156506701252585
-0.26156506701252585
-0.26771953917753555
-0.26771953917753555
-0.26771953917753555
-0.26771953917753555
-0.26771953917753555
-0.2554105948475438
-0.2554105948475438
-0.26156506701252585
-0.26156506701252585
-0.2554105948475438
-0.2554105948475438
-0.2554105948475438
-0.24925612268253405
-0.2554105948475438
-0.2554105948475438
-0.24925612268253405
-0.2554105948475438
-0.2554105948475438
-0.2554105948475438
-0.24925612268253405
-0.26156506701252585
-0.28618295567253704
-0.24925612268253405
-0.23694717835254234
-0.24925612268253405
-0.26156506701252585
-0.2554105948475438
-0.2554105948475438
-0.24925612268253405
-0.24925612268253405
-0.24925612268253405
-0.2554105948475438
-0.24925612268253405
-0.2554105948475438
-0.24925612268253405
-0.2431016505175243
-0.2554105948475438
-0.2554105948475438
-0.24925612268253405
-0.2431016505175243
-0.24925612268253405
-0.2554105948475438
-0.24925612268253405
-0.2554105948475438
-0.2554105948475438
-0.2554105948475438
-0.24925612268253405
-0.2554105948475438
-0.24925612268253405
-0.24925612268253405
-0.24925612268253405
-0.2554105948475438
-0.24925612268253405
-0.24925612268253405
-0.2431016505175243
-0.24925612268253405
-0.2431016505175243
-0.2431016505175243
-0.2554105948475438
-0.2554105948475438
-0.2554105948475438
-0.2554105948475438
-0.2554105948475438
-0.24925612268253405
-0.24925612268253405
-0.24925612268253405
-0.2431016505175243
-0.2554105948475438
-0.2554105948475438
-0.2554105948475438
-0.24925612268253405
-0.2431016505175243
-0.24925612268253405
-0.24925612268253405
-0.2554105948475438
-0.2554105948475438
-0.24925612268253405
-0.24925612268253405
-0.26156506701252585
-0.2554105948475438
-0.24925612268253405
-0.2554105948475438
-0.2554105948475438
-0.2554105948475438
-0.2554105948475438
-0.2554105948475438
-0.2554105948475438
-0.2554105948475438
-0.26156506701252585
-0.26156506701252585
-0.24925612268253405
-0.2554105948475438
-0.2554105948475438
-0.2554105948475438
-0.2554105948475438
-0.26156506701252585
-0.2554105948475438
-0.26771953917753555
-0.26771953917753555
-0.26771953917753555
-0.26771953917753555
-0.26156506701252585
-0.26156506701252585
-0.2554105948475438
-0.24925612268253405
-0.2554105948475438
-0.24925612268253405
-0.24925612268253405
-0.26156506701252585
-0.26156506701252585
-0.2554105948475438
-0.2554105948475438
-0.26156506701252585
-0.2554105948475438
-0.2554105948475438
-0.26156506701252585
-0.26156506701252585
-0.26156506701252585
-0.26156506701252585
-0.2554105948475438
-0.2554105948475438
-0.26771953917753555
-0.2738740113425453
-0.29233742783754685
-0.28618295567253704
-0.2800284835075273
-0.2431016505175243
-0.2000203453625393
-0.15078456804251686
-0.10770326288750408
-0.10770326288750408
-0.16309351237253633
-0.2246382340225228
-0.2800284835075273
-0.32310978866254003
-0.3292642608275498
-0.31695531649755804
-0.30464637216753854
-0.28618295567253704
-0.2800284835075273
-0.2800284835075273
-0.26771953917753555
-0.2738740113425453
-0.2984919000025288
-0.26771953917753555
-0.26771953917753555
-0.26771953917753555
-0.26771953917753555
-0.26156506701252585
-0.2554105948475438
-0.26156506701252585
-0.2554105948475438
-0.26156506701252585
-0.26156506701252585
-0.26156506701252585
-0.26771953917753555
-0.26771953917753555
-0.26156506701252585
-0.26156506701252585
-0.2554105948475438
-0.2554105948475438
-0.2554105948475438
-0.26156506701252585
-0.26156506701252585
-0.26156506701252585
-0.26156506701252585
-0.2554105948475438
-0.2554105948475438
-0.2554105948475438
-0.26156506701252585
-0.2554105948475438
-0.26156506701252585
-0.26156506701252585
-0.2554105948475438
-0.26156506701252585
-0.2554105948475438
-0.2554105948475438
-0.2554105948475438
-0.2554105948475438
-0.2554105948475438
-0.2554105948475438
-0.26156506701252585
-0.26156506701252585
-0.2554105948475438
-0.2554105948475438
-0.26156506701252585
-0.2554105948475438
-0.2554105948475438
-0.26156506701252585
-0.2554105948475438
-0.2554105948475438
-0.26156506701252585
-0.26156506701252585
-0.2554105948475438
-0.24925612268253405
-0.24925612268253405
-0.24925612268253405
-0.24925612268253405
-0.24925612268253405
-0.24925612268253405
-0.2431016505175243
-0.24925612268253405
-0.2554105948475438
-0.2554105948475438
-0.24925612268253405
-0.24925612268253405
-0.2554105948475438
-0.2554105948475438
-0.2554105948475438
-0.2554105948475438
-0.26156506701252585
-0.26156506701252585
-0.26771953917753555
-0.26156506701252585
-0.26771953917753555
-0.26156506701252585
-0.26156506701252585
-0.26771953917753555
-0.26771953917753555
-0.26771953917753555
-0.2738740113425453
-0.2738740113425453
-0.2738740113425453
-0.2738740113425453
-0.2738740113425453
-0.2738740113425453
-0.2738740113425453
-0.26771953917753555
-0.26771953917753555
-0.26771953917753555
-0.2738740113425453
-0.26771953917753555
-0.2738740113425453
-0.2738740113425453
-0.26771953917753555
-0.26771953917753555
-0.26156506701252585
-0.26156506701252585
-0.26156506701252585
-0.26156506701252585
-0.28618295567253704
-0.29233742783754685
-0.26156506701252585
-0.26156506701252585
-0.26156506701252585
-0.2554105948475438
-0.2554105948475438
-0.26156506701252585
-0.26771953917753555
-0.2738740113425453
-0.26771953917753555
-0.2738740113425453
-0.26771953917753555
-0.26156506701252585
-0.26156506701252585
-0.26156506701252585
-0.26771953917753555
-0.26156506701252585
-0.26156506701252585
-0.26156506701252585
-0.26156506701252585
-0.26156506701252585
-0.2554105948475438
-0.2554105948475438
-0.2738740113425453
-0.29233742783754685
-0.26156506701252585
-0.26156506701252585
-0.26156506701252585
-0.26156506701252585
-0.26156506701252585
-0.2554105948475438
-0.26156506701252585
-0.2800284835075273
-0.2738740113425453
-0.26156506701252585
-0.26156506701252585
-0.26156506701252585
-0.26771953917753555
-0.26156506701252585
-0.26156506701252585
-0.26156506701252585
-0.2554105948475438
-0.26156506701252585
-0.2554105948475438
-0.2554105948475438
-0.26156506701252585
-0.2554105948475438
-0.26771953917753555
-0.26156506701252585
-0.26771953917753555
-0.26771953917753555
-0.26156506701252585
-0.26771953917753555
-0.26156506701252585
-0.26771953917753555
-0.26156506701252585
-0.26771953917753555
-0.26771953917753555
-0.26156506701252585
-0.26156506701252585
-0.26156506701252585
-0.26771953917753555
-0.26156506701252585
-0.26156506701252585
-0.26156506701252585
-0.26156506701252585
-0.26156506701252585
-0.26771953917753555
-0.26771953917753555
-0.26156506701252585
-0.26771953917753555
-0.2738740113425453
-0.2738740113425453
-0.2738740113425453
-0.2738740113425453
-0.26156506701252585
-0.26156506701252585
-0.26156506701252585
-0.26771953917753555
-0.26156506701252585
-0.2738740113425453
-0.26771953917753555
-0.26156506701252585
-0.26156506701252585
-0.26156506701252585
-0.26156506701252585
-0.2738740113425453
-0.2738740113425453
-0.26771953917753555
-0.26156506701252585
-0.26156506701252585
-0.26771953917753555
-0.26156506701252585
-0.26156506701252585
-0.26156506701252585
-0.26156506701252585
-0.26156506701252585
-0.26771953917753555
-0.26156506701252585
-0.26771953917753555
-0.26156506701252585
-0.26156506701252585
-0.26771953917753555
-0.2738740113425453
-0.2738740113425453
-0.26771953917753555
-0.26771953917753555
-0.26771953917753555
-0.26771953917753555
-0.26156506701252585
-0.26771953917753555
-0.26156506701252585
-0.26771953917753555
-0.26771953917753555
-0.26156506701252585
-0.2554105948475438
-0.26156506701252585
-0.26771953917753555
-0.26156506701252585
-0.2554105948475438
-0.26156506701252585
-0.2554105948475438
-0.2554105948475438
-0.2554105948475438
-0.2554105948475438
-0.26156506701252585
-0.26156506701252585
-0.26771953917753555
-0.26156506701252585
-0.26771953917753555
-0.26156506701252585
-0.24925612268253405
-0.24925612268253405
-0.24925612268253405
-0.24925612268253405
-0.24925612268253405
-0.24925612268253405
-0.2554105948475438
-0.2554105948475438
-0.24925612268253405
-0.2554105948475438
-0.2554105948475438
-0.2554105948475438
-0.24925612268253405
-0.2554105948475438
-0.24925612268253405
-0.2800284835075273
-0.24925612268253405
-0.2431016505175243
-0.24925612268253405
-0.26156506701252585
-0.2800284835075273
-0.2800284835075273
-0.26771953917753555
-0.23079270618753256
-0.18771140103251985
-0.14463009587750708
-0.11385773505251384
-0.13232115154751534
-0.18771140103251985
-0.2431016505175243
-0.2984919000025288
-0.32310978866254003
-0.3292642608275498
-0.31695531649755804
-0.2984919000025288
-0.28618295567253704
-0.2800284835075273
-0.26156506701252585
-0.26156506701252585
-0.26771953917753555
-0.2554105948475438
-0.26156506701252585
-0.2554105948475438
-0.24925612268253405
-0.26156506701252585
-0.2554105948475438
-0.2554105948475438
-0.24925612268253405
-0.24925612268253405
-0.24925612268253405
-0.2554105948475438
-0.24925612268253405
-0.24925612268253405
-0.24925612268253405
-0.2554105948475438
-0.2431016505175243
-0.24925612268253405
-0.24925612268253405
-0.24925612268253405
-0.2431016505175243
-0.24925612268253405
-0.24925612268253405
-0.2431016505175243
-0.24925612268253405
-0.2431016505175243
-0.23694717835254234
-0.2431016505175243
-0.23694717835254234
-0.2431016505175243
-0.23694717835254234
-0.23694717835254234
-0.23079270618753256
-0.23694717835254234
-0.23694717835254234
-0.23694717835254234
-0.2431016505175243
-0.23694717835254234
-0.2431016505175243
-0.23694717835254234
-0.23079270618753256
-0.23694717835254234
-0.23694717835254234
-0.23694717835254234
-0.23694717835254234
-0.23694717835254234
-0.23694717835254234
-0.23694717835254234
-0.23079270618753256
-0.23694717835254234
-0.23694717835254234
-0.23079270618753256
-0.23694717835254234
-0.23079270618753256
-0.23079270618753256
-0.23079270618753256
-0.23079270618753256
-0.2246382340225228
-0.23079270618753256
-0.23079270618753256
-0.2246382340225228
-0.23694717835254234
-0.23079270618753256
-0.23694717835254234
-0.23694717835254234
-0.23079270618753256
-0.23694717835254234
-0.23694717835254234
-0.2431016505175243
-0.23694717835254234
-0.2431016505175243
-0.23694717835254234
-0.24925612268253405
-0.2431016505175243
-0.23694717835254234
-0.24925612268253405
-0.24925612268253405
-0.24925612268253405
-0.2431016505175243
-0.2431016505175243
-0.24925612268253405
-0.2554105948475438
-0.24925612268253405
-0.24925612268253405
-0.2431016505175243
-0.24925612268253405
-0.24925612268253405
-0.2431016505175243
-0.24925612268253405
-0.24925612268253405
-0.24925612268253405
-0.24925612268253405
-0.24925612268253405
-0.2431016505175243
-0.24925612268253405
-0.24925612268253405
-0.24925612268253405
-0.2554105948475438
-0.2738740113425453
-0.24925612268253405
-0.24925612268253405
-0.26156506701252585
-0.2554105948475438
-0.2554105948475438
-0.24925612268253405
-0.24925612268253405
-0.24925612268253405
-0.2431016505175243
-0.2431016505175243
-0.24925612268253405
-0.2431016505175243
-0.24925612268253405
-0.24925612268253405
-0.2431016505175243
-0.24925612268253405
-0.24925612268253405
-0.24925612268253405
-0.2554105948475438
-0.2554105948475438
-0.24925612268253405
-0.2431016505175243
-0.2554105948475438
-0.24925612268253405
-0.24925612268253405
-0.24925612268253405
-0.2554105948475438
-0.24925612268253405
-0.24925612268253405
-0.24925612268253405
-0.24925612268253405
-0.24925612268253405
-0.24925612268253405
-0.2554105948475438
-0.2554105948475438
-0.2554105948475438
-0.24925612268253405
-0.24925612268253405
-0.24925612268253405
-0.24925612268253405
-0.2554105948475438
-0.2554105948475438
-0.24925612268253405
-0.24925612268253405
-0.24925612268253405
-0.24925612268253405
-0.2554105948475438
-0.24925612268253405
-0.24925612268253405
-0.2554105948475438
-0.28618295567253704
-0.2554105948475438
-0.2431016505175243
-0.24925612268253405
-0.24925612268253405
-0.24925612268253405
-0.2554105948475438
-0.2554105948475438
-0.26771953917753555
-0.26771953917753555
-0.26156506701252585
-0.26771953917753555
-0.26771953917753555
-0.2554105948475438
-0.26771953917753555
-0.26156506701252585
-0.26156506701252585
-0.26771953917753555
-0.26156506701252585
-0.26156506701252585
-0.2554105948475438
-0.26771953917753555
-0.26771953917753555
-0.26771953917753555
-0.26156506701252585
-0.26771953917753555
-0.26156506701252585
-0.26156506701252585
-0.26771953917753555
-0.26156506701252585
-0.26156506701252585
-0.26771953917753555
-0.2738740113425453
-0.2738740113425453
-0.26771953917753555
-0.26771953917753555
-0.2738740113425453
-0.2738740113425453
-0.2738740113425453
-0.26771953917753555
-0.26771953917753555
-0.2800284835075273
-0.2738740113425453
-0.26771953917753555
-0.2738740113425453
-0.26771953917753555
-0.26771953917753555
-0.2738740113425453
-0.2738740113425453
-0.26771953917753555
-0.2738740113425453
-0.2738740113425453
-0.26771953917753555
-0.26771953917753555
-0.26771953917753555
-0.2738740113425453
-0.2738740113425453
-0.2738740113425453
-0.2738740113425453
-0.26771953917753555
-0.2738740113425453
-0.26771953917753555
-0.26771953917753555
-0.2800284835075273
-0.2738740113425453
-0.2738740113425453
-0.26771953917753555
-0.26771953917753555
-0.26771953917753555
-0.2738740113425453
-0.2800284835075273
-0.31695531649755804
-0.28618295567253704
-0.2738740113425453
-0.26771953917753555
-0.2554105948475438
-0.2554105948475438
-0.2554105948475438
-0.26771953917753555
-0.26156506701252585
-0.26771953917753555
-0.2738740113425453
-0.2738740113425453
-0.26771953917753555
-0.26771953917753555
-0.26771953917753555
-0.26771953917753555
-0.26771953917753555
-0.26771953917753555
-0.26771953917753555
-0.26156506701252585
-0.2738740113425453
-0.2738740113425453
-0.2800284835075273
-0.29233742783754685
-0.2800284835075273
-0.26771953917753555
-0.23694717835254234
-0.18771140103251985
-0.15078456804251686
-0.1384756237125251
-0.1692479845375183
-0.2246382340225228
-0.2738740113425453
-0.32310978866254003
-0.3354187329925596
-0.3354187329925596
-0.32310978866254003
-0.30464637216753854
-0.29233742783754685
-0.2800284835075273
-0.2738740113425453
-0.2800284835075273
-0.2738740113425453
-0.26771953917753555
-0.26771953917753555
-0.26771953917753555
-0.26771953917753555
-0.26771953917753555
-0.26771953917753555
-0.26156506701252585
-0.26156506701252585
-0.2554105948475438
-0.26156506701252585
-0.26156506701252585
-0.26156506701252585
-0.2554105948475438
-0.2554105948475438
-0.24925612268253405
-0.24925612268253405
-0.24925612268253405
-0.24925612268253405
-0.24925612268253405
-0.2554105948475438
-0.2554105948475438
-0.24925612268253405
-0.2431016505175243
-0.24925612268253405
-0.24925612268253405
-0.2554105948475438
-0.2554105948475438
-0.2554105948475438
-0.2554105948475438
-0.24925612268253405
-0.24925612268253405
-0.2431016505175243
-0.2431016505175243
-0.2431016505175243
-0.24925612268253405
-0.2431016505175243
-0.2431016505175243
-0.24925612268253405
-0.24925612268253405
-0.24925612268253405
-0.24925612268253405
-0.2431016505175243
-0.24925612268253405
-0.2431016505175243
-0.24925612268253405
-0.2554105948475438
-0.24925612268253405
-0.2554105948475438
-0.24925612268253405
-0.2431016505175243
-0.2431016505175243
-0.2431016505175243
-0.2431016505175243
-0.2554105948475438
-0.24925612268253405
-0.24925612268253405
-0.24925612268253405
-0.2431016505175243
-0.2431016505175243
-0.2554105948475438
-0.2554105948475438
-0.26156506701252585
-0.26771953917753555
-0.26156506701252585
-0.2738740113425453
-0.2738740113425453
-0.26771953917753555
-0.26771953917753555
-0.2738740113425453
-0.2800284835075273
-0.2738740113425453
-0.26156506701252585
-0.2738740113425453
-0.26771953917753555
-0.26771953917753555
-0.26156506701252585
-0.2554105948475438
-0.2554105948475438
-0.26156506701252585
-0.2738740113425453
