-0.30464637216753854
-0.30464637216753854
-0.2984919000025288
-0.30464637216753854
-0.2984919000025288
-0.2984919000025288
-0.2984919000025288
-0.2984919000025288
-0.29233742783754685
-0.2984919000025288
-0.29233742783754685
-0.2984919000025288
-0.29233742783754685
-0.29233742783754685
-0.2984919000025288
-0.29233742783754685
-0.2984919000025288
-0.29233742783754685
-0.29233742783754685
-0.2984919000025288
-0.2984919000025288
-0.29233742783754685
-0.2984919000025288
-0.2984919000025288
-0.2984919000025288
-0.2984919000025288
-0.29233742783754685
-0.2984919000025288
-0.2984919000025288
-0.2984919000025288
-0.30464637216753854
-0.2984919000025288
-0.30464637216753854
-0.2984919000025288
-0.2984919000025288
-0.30464637216753854
-0.30464637216753854
-0.2984919000025288
-0.3108008443325483
-0.3108008443325483
-0.2984919000025288
-0.2984919000025288
-0.30464637216753854
-0.2984919000025288
-0.30464637216753854
-0.3108008443325483
-0.30464637216753854
-0.2984919000025288
-0.28618295567253704
-0.29233742783754685
-0.2984919000025288
-0.29233742783754685
-0.29233742783754685
-0.2984919000025288
-0.2984919000025288
-0.28618295567253704
-0.28618295567253704
-0.28618295567253704
-0.29233742783754685
-0.29233742783754685
-0.29233742783754685
-0.2984919000025288
-0.30464637216753854
-0.30464637216753854
-0.30464637216753854
-0.30464637216753854
-0.30464637216753854
-0.3108008443325483
-0.3108008443325483
-0.3108008443325483
-0.32310978866254003
-0.31695531649755804
-0.31695531649755804
-0.32310978866254003
-0.32310978866254003
-0.31695531649755804
-0.31695531649755804
-0.31695531649755804
-0.32310978866254003
-0.32310978866254003
-0.32310978866254003
-0.32310978866254003
-0.32310978866254003
-0.32310978866254003
-0.31695531649755804
-0.32310978866254003
-0.32310978866254003
-0.3292642608275498
-0.32310978866254003
-0.3292642608275498
-0.3292642608275498
-0.32310978866254003
-0.32310978866254003
-0.3292642608275498
-0.3292642608275498
-0.3292642608275498
-0.3292642608275498
-0.3292642608275498
-0.35388214948756097
-0.31695531649755804
-0.31695531649755804
-0.31695531649755804
-0.32310978866254003
-0.32310978866254003
-0.32310978866254003
-0.3292642608275498
-0.32310978866254003
-0.32310978866254003
-0.31695531649755804
-0.3108008443325483
-0.31695531649755804
-0.31695531649755804
-0.32310978866254003
-0.31695531649755804
-0.32310978866254003
-0.31695531649755804
-0.32310978866254003
-0.31695531649755804
-0.32310978866254003
-0.32310978866254003
-0.32310978866254003
-0.31695531649755804
-0.32310978866254003
-0.32310978866254003
-0.32310978866254003
-0.31695531649755804
-0.32310978866254003
-0.32310978866254003
-0.31695531649755804
-0.31695531649755804
-0.32310978866254003
-0.32310978866254003
-0.31695531649755804
-0.31695531649755804
-0.32310978866254003
-0.31695531649755804
-0.31695531649755804
-0.32310978866254003
-0.3292642608275498
-0.32310978866254003
-0.32310978866254003
-0.32310978866254003
-0.32310978866254003
-0.32310978866254003
-0.3292642608275498
-0.3292642608275498
-0.32310978866254003
-0.32310978866254003
-0.3292642608275498
-0.32310978866254003
-0.3292642608275498
-0.3292642608275498
-0.3292642608275498
-0.3292642608275498
-0.32310978866254003
-0.3292642608275498
-0.3292642608275498
-0.31695531649755804
-0.34772767732255133
-0.3415732051575415
-0.31695531649755804
-0.3108008443325483
-0.32310978866254003
-0.31695531649755804
-0.3292642608275498
-0.32310978866254003
-0.3292642608275498
-0.3354187329925596
-0.3292642608275498
-0.3292642608275498
-0.3292642608275498
-0.3292642608275498
-0.3292642608275498
-0.3292642608275498
-0.3292642608275498
-0.3354187329925596
-0.32310978866254003
-0.32310978866254003
-0.3292642608275498
-0.32310978866254003
-0.3354187329925596
-0.3292642608275498
-0.3354187329925596
-0.3292642608275498
-0.32310978866254003
-0.32310978866254003
-0.3354187329925596
-0.3354187329925596
-0.3292642608275498
-0.3292642608275498
-0.3292642608275498
-0.3354187329925596
-0.3292642608275498
-0.3292642608275498
-0.3354187329925596
-0.3354187329925596
-0.3292642608275498
-0.3415732051575415
-0.34772767732255133
-0.3415732051575415
-0.3415732051575415
-0.3354187329925596
-0.3354187329925596
-0.3292642608275498
-0.3292642608275498
-0.3292642608275498
-0.3292642608275498
-0.3292642608275498
-0.3354187329925596
-0.3354187329925596
-0.3354187329925596
-0.3292642608275498
-0.3354187329925596
-0.32310978866254003
-0.3292642608275498
-0.3292642608275498
-0.32310978866254003
-0.3292642608275498
-0.32310978866254003
-0.3354187329925596
-0.35388214948756097
-0.32310978866254003
-0.3292642608275498
-0.3354187329925596
-0.31695531649755804
-0.32310978866254003
-0.31695531649755804
-0.32310978866254003
-0.32310978866254003
-0.32310978866254003
-0.3354187329925596
-0.32310978866254003
-0.32310978866254003
-0.3292642608275498
-0.32310978866254003
-0.32310978866254003
-0.3292642608275498
-0.32310978866254003
-0.3292642608275498
-0.3292642608275498
-0.3292642608275498
-0.3354187329925596
-0.3354187329925596
-0.34772767732255133
-0.35388214948756097
-0.34772767732255133
-0.3292642608275498
-0.30464637216753854
-0.2554105948475438
-0.21232928969253104
-0.18771140103251985
-0.2061748175275213
-0.26156506701252585
-0.3108008443325483
-0.36619109381755277
-0.390808982477564
-0.396963454642546
-0.3846545103125543
-0.36619109381755277
-0.36619109381755277
-0.35388214948756097
-0.3415732051575415
-0.3415732051575415
-0.3292642608275498
-0.3292642608275498
-0.3292642608275498
-0.3292642608275498
-0.32310978866254003
-0.3292642608275498
-0.32310978866254003
-0.3292642608275498
-0.3292642608275498
-0.3292642608275498
-0.3354187329925596
-0.3354187329925596
-0.3292642608275498
-0.32310978866254003
-0.32310978866254003
-0.32310978866254003
-0.3292642608275498
-0.31695531649755804
-0.32310978866254003
-0.32310978866254003
-0.32310978866254003
-0.3292642608275498
-0.32310978866254003
-0.3292642608275498
-0.31695531649755804
-0.31695531649755804
-0.31695531649755804
-0.32310978866254003
-0.32310978866254003
-0.31695531649755804
-0.3108008443325483
-0.32310978866254003
-0.3108008443325483
-0.3108008443325483
-0.31695531649755804
-0.32310978866254003
-0.31695531649755804
-0.32310978866254003
-0.32310978866254003
-0.31695531649755804
-0.32310978866254003
-0.31695531649755804
-0.32310978866254003
-0.31695531649755804
-0.31695531649755804
-0.32310978866254003
-0.31695531649755804
-0.32310978866254003
-0.32310978866254003
-0.32310978866254003
-0.31695531649755804
-0.31695531649755804
-0.3108008443325483
-0.3108008443325483
-0.31695531649755804
-0.3108008443325483
-0.3108008443325483
-0.3108008443325483
-0.3108008443325483
-0.3108008443325483
-0.3108008443325483
-0.3108008443325483
-0.3108008443325483
-0.3108008443325483
-0.30464637216753854
-0.30464637216753854
-0.30464637216753854
-0.3108008443325483
-0.3108008443325483
-0.30464637216753854
-0.31695531649755804
-0.3108008443325483
-0.3108008443325483
-0.31695531649755804
-0.3108008443325483
-0.31695531649755804
-0.31695531649755804
-0.3108008443325483
-0.31695531649755804
-0.3415732051575415
-0.30464637216753854
-0.2984919000025288
-0.3108008443325483
-0.3108008443325483
-0.3108008443325483
-0.30464637216753854
-0.30464637216753854
-0.32310978866254003
-0.32310978866254003
-0.32310978866254003
-0.31695531649755804
-0.31695531649755804
-0.32310978866254003
-0.3108008443325483
-0.31695531649755804
-0.31695531649755804
-0.3108008443325483
-0.3108008443325483
-0.3108008443325483
-0.31695531649755804
-0.32310978866254003
-0.32310978866254003
-0.32310978866254003
-0.31695531649755804
-0.31695531649755804
-0.31695531649755804
-0.32310978866254003
-0.32310978866254003
-0.32310978866254003
-0.32310978866254003
-0.31695531649755804
-0.32310978866254003
-0.3108008443325483
-0.3108008443325483
-0.3108008443325483
-0.3108008443325483
-0.31695531649755804
-0.31695531649755804
-0.32310978866254003
-0.32310978866254003
-0.32310978866254003
-0.3108008443325483
-0.3108008443325483
-0.31695531649755804
-0.3108008443325483
-0.31695531649755804
-0.31695531649755804
-0.3108008443325483
-0.3108008443325483
-0.31695531649755804
-0.31695531649755804
-0.31695531649755804
-0.3108008443325483
-0.3108008443325483
-0.3108008443325483
-0.3108008443325483
-0.3108008443325483
-0.3108008443325483
-0.3108008443325483
-0.3108008443325483
-0.30464637216753854
-0.3108008443325483
-0.31695531649755804
-0.3108008443325483
-0.30464637216753854
-0.30464637216753854
-0.3108008443325483
-0.31695531649755804
-0.31695531649755804
-0.31695531649755804
-0.31695531649755804
-0.3108008443325483
-0.3108008443325483
-0.31695531649755804
-0.3108008443325483
-0.3108008443325483
-0.31695531649755804
-0.31695531649755804
-0.31695531649755804
-0.31695531649755804
-0.3108008443325483
-0.3108008443325483
-0.31695531649755804
-0.31695531649755804
-0.30464637216753854
-0.30464637216753854
-0.3108008443325483
-0.3108008443325483
-0.3108008443325483
-0.30464637216753854
-0.30464637216753854
-0.3108008443325483
-0.3108008443325483
-0.30464637216753854
-0.3108008443325483
-0.2984919000025288
-0.29233742783754685
-0.30464637216753854
-0.30464637216753854
-0.2984919000025288
-0.30464637216753854
-0.30464637216753854
-0.30464637216753854
-0.2984919000025288
-0.30464637216753854
-0.30464637216753854
-0.30464637216753854
-0.3108008443325483
-0.30464637216753854
-0.3108008443325483
-0.3108008443325483
-0.31695531649755804
-0.31695531649755804
-0.3108008443325483
-0.3108008443325483
-0.3108008443325483
-0.3108008443325483
-0.3108008443325483
-0.3108008443325483
-0.3108008443325483
-0.31695531649755804
-0.3415732051575415
-0.30464637216753854
-0.29233742783754685
-0.29233742783754685
-0.2984919000025288
-0.30464637216753854
-0.31695531649755804
-0.31695531649755804
-0.30464637216753854
-0.2984919000025288
-0.30464637216753854
-0.30464637216753854
-0.3108008443325483
-0.3108008443325483
-0.3415732051575415
-0.3108008443325483
-0.30464637216753854
-0.3108008443325483
-0.31695531649755804
-0.30464637216753854
-0.2984919000025288
-0.30464637216753854
-0.3108008443325483
-0.3108008443325483
-0.30464637216753854
-0.3108008443325483
-0.3108008443325483
-0.31695531649755804
-0.30464637216753854
-0.3108008443325483
-0.3108008443325483
-0.3108008443325483
-0.30464637216753854
-0.3108008443325483
-0.30464637216753854
-0.30464637216753854
-0.3108008443325483
-0.3108008443325483
-0.3108008443325483
-0.32310978866254003
-0.3354187329925596
-0.3415732051575415
-0.3354187329925596
-0.30464637216753854
-0.2800284835075273
-0.23694717835254234
-0.2061748175275213
-0.18155692886753785
-0.2000203453625393
-0.26156506701252585
-0.3108008443325483
-0.35388214948756097
-0.3846545103125543
-0.37850003814754446
-0.3723455659825625
-0.360036621652543
-0.34772767732255133
-0.3354187329925596
-0.3292642608275498
-0.32310978866254003
-0.31695531649755804
-0.30464637216753854
-0.31695531649755804
-0.30464637216753854
-0.3108008443325483
-0.3108008443325483
-0.3108008443325483
-0.3108008443325483
-0.3108008443325483
-0.2984919000025288
-0.3108008443325483
-0.2984919000025288
-0.2984919000025288
-0.30464637216753854
-0.30464637216753854
-0.30464637216753854
-0.30464637216753854
-0.30464637216753854
-0.30464637216753854
-0.2984919000025288
-0.29233742783754685
-0.29233742783754685
-0.2984919000025288
-0.2984919000025288
-0.30464637216753854
-0.30464637216753854
-0.30464637216753854
-0.30464637216753854
-0.30464637216753854
-0.2984919000025288
-0.2984919000025288
-0.2984919000025288
-0.2984919000025288
-0.30464637216753854
-0.30464637216753854
-0.2984919000025288
-0.2984919000025288
-0.30464637216753854
-0.30464637216753854
-0.30464637216753854
-0.3108008443325483
-0.3108008443325483
-0.30464637216753854
-0.30464637216753854
-0.30464637216753854
-0.3108008443325483
-0.30464637216753854
-0.30464637216753854
-0.30464637216753854
-0.3108008443325483
-0.30464637216753854
-0.30464637216753854
-0.30464637216753854
-0.30464637216753854
-0.30464637216753854
-0.30464637216753854
-0.30464637216753854
-0.3108008443325483
-0.30464637216753854
-0.3108008443325483
-0.3108008443325483
-0.31695531649755804
-0.34772767732255133
-0.31695531649755804
-0.30464637216753854
-0.31695531649755804
-0.3292642608275498
-0.32310978866254003
-0.3292642608275498
-0.32310978866254003
-0.32310978866254003
-0.3292642608275498
-0.3354187329925596
-0.3292642608275498
-0.3354187329925596
-0.3292642608275498
-0.3354187329925596
-0.3415732051575415
-0.3354187329925596
-0.3354187329925596
-0.3354187329925596
-0.3354187329925596
-0.34772767732255133
-0.3415732051575415
-0.3354187329925596
-0.3415732051575415
-0.3354187329925596
-0.3354187329925596
-0.3415732051575415
-0.3415732051575415
-0.3354187329925596
-0.3415732051575415
-0.3415732051575415
-0.3354187329925596
-0.3354187329925596
-0.3292642608275498
-0.3292642608275498
-0.3415732051575415
-0.3415732051575415
-0.3415732051575415
-0.3415732051575415
-0.3415732051575415
-0.3354187329925596
-0.3354187329925596
-0.3354187329925596
-0.3415732051575415
-0.3415732051575415
-0.3354187329925596
-0.3415732051575415
-0.3415732051575415
-0.3415732051575415
-0.3415732051575415
-0.3415732051575415
-0.3354187329925596
-0.3415732051575415
-0.3415732051575415
-0.3354187329925596
-0.3354187329925596
-0.3292642608275498
-0.3292642608275498
-0.3292642608275498
-0.3292642608275498
-0.3292642608275498
-0.3354187329925596
-0.3354187329925596
-0.3292642608275498
-0.3292642608275498
-0.3292642608275498
-0.3354187329925596
-0.3292642608275498
-0.3292642608275498
-0.3292642608275498
-0.3354187329925596
-0.3354187329925596
-0.3292642608275498
-0.3292642608275498
-0.3292642608275498
-0.3292642608275498
-0.3354187329925596
-0.3354187329925596
-0.3354187329925596
-0.3354187329925596
-0.3354187329925596
-0.3354187329925596
-0.3354187329925596
-0.3415732051575415
-0.3415732051575415
-0.3415732051575415
-0.3354187329925596
-0.3354187329925596
-0.3415732051575415
-0.3292642608275498
-0.3354187329925596
-0.3354187329925596
-0.3415732051575415
-0.3354187329925596
-0.3354187329925596
-0.3354187329925596
-0.3354187329925596
-0.3415732051575415
-0.3354187329925596
-0.3354187329925596
-0.3354187329925596
-0.3415732051575415
-0.3354187329925596
-0.3354187329925596
-0.3415732051575415
-0.3415732051575415
-0.3354187329925596
-0.3354187329925596
-0.3292642608275498
-0.3354187329925596
-0.3292642608275498
-0.3354187329925596
-0.3354187329925596
-0.3292642608275498
-0.3415732051575415
-0.3415732051575415
-0.3354187329925596
-0.3354187329925596
-0.3354187329925596
-0.3415732051575415
-0.3415732051575415
-0.3415732051575415
-0.36619109381755277
-0.3354187329925596
-0.34772767732255133
-0.3354187329925596
-0.3292642608275498
-0.3354187329925596
-0.3354187329925596
-0.3354187329925596
-0.3292642608275498
-0.3292642608275498
-0.3292642608275498
-0.32310978866254003
-0.3292642608275498
-0.3292642608275498
-0.3292642608275498
-0.32310978866254003
-0.32310978866254003
-0.32310978866254003
-0.3292642608275498
-0.3354187329925596
-0.3292642608275498
-0.3292642608275498
-0.3292642608275498
-0.32310978866254003
-0.3292642608275498
-0.32310978866254003
-0.32310978866254003
-0.32310978866254003
-0.31695531649755804
-0.31695531649755804
-0.31695531649755804
-0.31695531649755804
-0.31695531649755804
-0.31695531649755804
-0.32310978866254003
-0.32310978866254003
-0.32310978866254003
-0.32310978866254003
-0.32310978866254003
-0.31695531649755804
-0.3108008443325483
-0.3108008443325483
-0.3108008443325483
-0.3108008443325483
-0.3108008443325483
-0.31695531649755804
-0.32310978866254003
-0.3415732051575415
-0.3415732051575415
-0.34772767732255133
-0.3354187329925596
-0.3108008443325483
-0.2800284835075273
-0.2431016505175243
-0.2061748175275213
-0.2000203453625393
-0.2431016505175243
-0.2984919000025288
-0.3354187329925596
-0.3846545103125543
-0.390808982477564
-0.3846545103125543
-0.36619109381755277
-0.36619109381755277
-0.34772767732255133
-0.3415732051575415
-0.3292642608275498
-0.3354187329925596
-0.3292642608275498
-0.32310978866254003
-0.3292642608275498
-0.3292642608275498
-0.32310978866254003
-0.32310978866254003
-0.32310978866254003
-0.32310978866254003
-0.31695531649755804
-0.31695531649755804
-0.31695531649755804
-0.31695531649755804
-0.31695531649755804
-0.31695531649755804
-0.32310978866254003
-0.32310978866254003
-0.31695531649755804
-0.32310978866254003
-0.32310978866254003
-0.31695531649755804
-0.32310978866254003
-0.3354187329925596
-0.3415732051575415
-0.32310978866254003
-0.32310978866254003
-0.32310978866254003
-0.31695531649755804
-0.32310978866254003
-0.32310978866254003
-0.32310978866254003
-0.3415732051575415
-0.3354187329925596
-0.3354187329925596
-0.3354187329925596
-0.3354187329925596
-0.3354187329925596
-0.3292642608275498
-0.3415732051575415
-0.3415732051575415
-0.3354187329925596
-0.3292642608275498
-0.3292642608275498
-0.3354187329925596
-0.3292642608275498
-0.32310978866254003
-0.32310978866254003
-0.3354187329925596
-0.32310978866254003
-0.32310978866254003
-0.31695531649755804
-0.31695531649755804
-0.32310978866254003
-0.3354187329925596
-0.3415732051575415
-0.35388214948756097
-0.31695531649755804
-0.31695531649755804
-0.3108008443325483
-0.30464637216753854
-0.30464637216753854
-0.3108008443325483
-0.31695531649755804
-0.32310978866254003
-0.32310978866254003
-0.31695531649755804
-0.31695531649755804
-0.31695531649755804
-0.32310978866254003
-0.32310978866254003
-0.32310978866254003
-0.3292642608275498
-0.32310978866254003
-0.31695531649755804
-0.32310978866254003
-0.32310978866254003
-0.3292642608275498
-0.32310978866254003
-0.3292642608275498
-0.32310978866254003
-0.3292642608275498
-0.3292642608275498
-0.32310978866254003
-0.32310978866254003
-0.32310978866254003
-0.32310978866254003
-0.31695531649755804
-0.31695531649755804
-0.32310978866254003
-0.32310978866254003
-0.31695531649755804
-0.31695531649755804
-0.31695531649755804
-0.32310978866254003
-0.31695531649755804
-0.32310978866254003
-0.31695531649755804
-0.31695531649755804
-0.31695531649755804
-0.32310978866254003
-0.31695531649755804
-0.32310978866254003
-0.32310978866254003
-0.31695531649755804
-0.31695531649755804
-0.31695531649755804
-0.31695531649755804
-0.31695531649755804
-0.31695531649755804
-0.32310978866254003
-0.32310978866254003
-0.32310978866254003
-0.32310978866254003
-0.32310978866254003
-0.32310978866254003
-0.32310978866254003
-0.31695531649755804
-0.32310978866254003
-0.32310978866254003
-0.32310978866254003
-0.31695531649755804
-0.32310978866254003
-0.32310978866254003
-0.31695531649755804
-0.31695531649755804
-0.31695531649755804
-0.31695531649755804
-0.32310978866254003
-0.32310978866254003
-0.31695531649755804
-0.32310978866254003
-0.32310978866254003
-0.32310978866254003
-0.32310978866254003
-0.32310978866254003
-0.31695531649755804
-0.32310978866254003
-0.3292642608275498
-0.31695531649755804
-0.32310978866254003
-0.3292642608275498
-0.32310978866254003
-0.3354187329925596
-0.3354187329925596
-0.3292642608275498
-0.32310978866254003
-0.3292642608275498
-0.3292642608275498
-0.32310978866254003
-0.32310978866254003
-0.3354187329925596
-0.3354187329925596
-0.3354187329925596
-0.3292642608275498
-0.3354187329925596
-0.3354187329925596
-0.3354187329925596
-0.3354187329925596
-0.3292642608275498
-0.3354187329925596
-0.3292642608275498
-0.3292642608275498
-0.3354187329925596
-0.3354187329925596
-0.3354187329925596
-0.3292642608275498
-0.3292642608275498
-0.32310978866254003
-0.3292642608275498
-0.32310978866254003
-0.32310978866254003
-0.3292642608275498
-0.31695531649755804
-0.31695531649755804
-0.31695531649755804
-0.31695531649755804
-0.32310978866254003
-0.3354187329925596
-0.30464637216753854
-0.30464637216753854
-0.30464637216753854
-0.30464637216753854
-0.32310978866254003
-0.3292642608275498
-0.31695531649755804
-0.31695531649755804
-0.31695531649755804
-0.31695531649755804
-0.32310978866254003
-0.3292642608275498
-0.32310978866254003
-0.32310978866254003
-0.32310978866254003
-0.3354187329925596
-0.3292642608275498
-0.3292642608275498
-0.3354187329925596
-0.3292642608275498
-0.3354187329925596
-0.3292642608275498
-0.3354187329925596
-0.3415732051575415
-0.3292642608275498
-0.3292642608275498
-0.3292642608275498
-0.3292642608275498
-0.32310978866254003
-0.31695531649755804
-0.31695531649755804
-0.30464637216753854
-0.30464637216753854
-0.30464637216753854
-0.2984919000025288
-0.29233742783754685
-0.28618295567253704
-0.29233742783754685
-0.2800284835075273
-0.2800284835075273
-0.28618295567253704
-0.2800284835075273
-0.29233742783754685
-0.28618295567253704
-0.28618295567253704
-0.28618295567253704
-0.28618295567253704
-0.28618295567253704
-0.29233742783754685
-0.2984919000025288
-0.30464637216753854
-0.2984919000025288
-0.3108008443325483
-0.30464637216753854
-0.31695531649755804
-0.3292642608275498
-0.3354187329925596
-0.34772767732255133
-0.32310978866254003
-0.2984919000025288
-0.26156506701252585
-0.2246382340225228
-0.18771140103251985
-0.18771140103251985
-0.2246382340225228
-0.29233742783754685
-0.3415732051575415
-0.37850003814754446
-0.3846545103125543
-0.37850003814754446
-0.36619109381755277
-0.360036621652543
-0.3354187329925596
-0.3354187329925596
-0.31695531649755804
-0.32310978866254003
-0.31695531649755804
-0.31695531649755804
-0.3108008443325483
-0.31695531649755804
-0.3108008443325483
-0.31695531649755804
-0.30464637216753854
-0.3108008443325483
-0.3108008443325483
-0.30464637216753854
-0.3108008443325483
-0.30464637216753854
-0.30464637216753854
-0.3108008443325483
-0.30464637216753854
-0.30464637216753854
-0.3108008443325483
-0.3108008443325483
-0.30464637216753854
-0.30464637216753854
-0.30464637216753854
-0.30464637216753854
-0.2984919000025288
-0.2984919000025288
-0.30464637216753854
-0.30464637216753854
-0.30464637216753854
-0.30464637216753854
-0.2984919000025288
-0.30464637216753854
-0.2984919000025288
-0.2984919000025288
-0.30464637216753854
-0.2984919000025288
-0.30464637216753854
-0.30464637216753854
-0.30464637216753854
-0.30464637216753854
-0.2984919000025288
-0.30464637216753854
-0.2984919000025288
-0.2984919000025288
-0.2984919000025288
-0.29233742783754685
-0.3108008443325483
-0.3354187329925596
-0.2984919000025288
-0.28618295567253704
-0.30464637216753854
-0.31695531649755804
-0.3108008443325483
-0.31695531649755804
-0.3108008443325483
-0.3108008443325483
-0.30464637216753854
-0.2984919000025288
-0.3108008443325483
-0.3108008443325483
-0.2984919000025288
-0.2984919000025288
-0.3108008443325483
-0.30464637216753854
-0.30464637216753854
-0.3108008443325483
-0.31695531649755804
-0.31695531649755804
-0.3108008443325483
-0.31695531649755804
-0.31695531649755804
-0.3108008443325483
-0.31695531649755804
-0.3108008443325483
-0.31695531649755804
-0.3108008443325483
-0.32310978866254003
-0.32310978866254003
-0.31695531649755804
-0.32310978866254003
-0.32310978866254003
-0.32310978866254003
-0.31695531649755804
-0.32310978866254003
-0.31695531649755804
-0.31695531649755804
-0.32310978866254003
-0.3292642608275498
-0.3292642608275498
-0.32310978866254003
-0.34772767732255133
-0.3354187329925596
-0.3108008443325483
-0.31695531649755804
-0.3108008443325483
-0.32310978866254003
-0.3292642608275498
-0.3292642608275498
-0.3415732051575415
-0.34772767732255133
-0.3354187329925596
-0.3354187329925596
-0.3415732051575415
-0.32310978866254003
-0.32310978866254003
-0.3292642608275498
-0.31695531649755804
-0.3292642608275498
-0.32310978866254003
-0.3292642608275498
-0.3292642608275498
-0.32310978866254003
-0.32310978866254003
-0.31695531649755804
-0.3292642608275498
-0.32310978866254003
-0.32310978866254003
-0.3292642608275498
-0.3292642608275498
-0.32310978866254003
-0.32310978866254003
-0.32310978866254003
-0.3292642608275498
-0.31695531649755804
-0.32310978866254003
-0.31695531649755804
-0.31695531649755804
-0.32310978866254003
-0.32310978866254003
-0.32310978866254003
-0.3108008443325483
-0.3108008443325483
-0.31695531649755804
-0.32310978866254003
-0.32310978866254003
-0.32310978866254003
-0.31695531649755804
-0.32310978866254003
-0.31695531649755804
-0.31695531649755804
-0.31695531649755804
-0.31695531649755804
-0.31695531649755804
-0.31695531649755804
-0.31695531649755804
-0.32310978866254003
-0.32310978866254003
-0.31695531649755804
-0.3108008443325483
-0.31695531649755804
-0.3108008443325483
-0.3108008443325483
-0.31695531649755804
-0.3108008443325483
-0.31695531649755804
-0.3108008443325483
-0.31695531649755804
-0.3108008443325483
-0.31695531649755804
-0.31695531649755804
-0.31695531649755804
-0.3108008443325483
-0.3108008443325483
-0.3108008443325483
-0.3108008443325483
-0.3108008443325483
-0.3108008443325483
-0.31695531649755804
-0.3292642608275498
-0.3415732051575415
-0.32310978866254003
-0.3292642608275498
-0.32310978866254003
-0.32310978866254003
-0.3108008443325483
-0.31695531649755804
-0.3108008443325483
-0.31695531649755804
-0.3108008443325483
-0.31695531649755804
-0.31695531649755804
-0.3108008443325483
-0.3108008443325483
-0.31695531649755804
-0.3108008443325483
-0.3108008443325483
-0.3108008443325483
-0.31695531649755804
-0.31695531649755804
-0.3108008443325483
-0.30464637216753854
-0.30464637216753854
-0.3108008443325483
-0.3108008443325483
-0.3108008443325483
-0.30464637216753854
-0.30464637216753854
-0.30464637216753854
-0.2984919000025288
-0.30464637216753854
-0.2984919000025288
-0.2984919000025288
-0.2984919000025288
-0.30464637216753854
-0.2984919000025288
-0.2984919000025288
-0.30464637216753854
-0.3108008443325483
-0.2984919000025288
-0.30464637216753854
-0.3108008443325483
-0.30464637216753854
-0.3108008443325483
-0.30464637216753854
-0.2984919000025288
-0.2984919000025288
-0.29233742783754685
-0.29233742783754685
-0.30464637216753854
-0.30464637216753854
-0.3108008443325483
-0.3108008443325483
-0.30464637216753854
-0.3108008443325483
-0.30464637216753854
-0.30464637216753854
-0.3108008443325483
-0.30464637216753854
-0.30464637216753854
-0.30464637216753854
-0.30464637216753854
-0.30464637216753854
-0.31695531649755804
-0.31695531649755804
-0.3354187329925596
-0.3354187329925596
-0.3292642608275498
-0.31695531649755804
-0.2800284835075273
-0.23694717835254234
-0.1938658731975296
-0.15693904020752658
-0.18155692886753785
-0.23694717835254234
-0.2984919000025288
-0.360036621652543
-0.390808982477564
-0.37850003814754446
-0.37850003814754446
-0.35388214948756097
-0.34772767732255133
-0.3292642608275498
-0.32310978866254003
-0.32310978866254003
-0.31695531649755804
-0.32310978866254003
-0.31695531649755804
-0.3108008443325483
-0.31695531649755804
-0.3108008443325483
-0.31695531649755804
-0.31695531649755804
-0.30464637216753854
-0.30464637216753854
-0.30464637216753854
-0.30464637216753854
-0.30464637216753854
-0.3108008443325483
-0.30464637216753854
-0.30464637216753854
-0.30464637216753854
-0.3108008443325483
-0.30464637216753854
-0.30464637216753854
-0.30464637216753854
-0.30464637216753854
-0.3108008443325483
-0.3108008443325483
-0.30464637216753854
-0.30464637216753854
-0.3108008443325483
-0.3108008443325483
-0.3108008443325483
-0.3108008443325483
-0.30464637216753854
-0.31695531649755804
-0.3108008443325483
-0.3108008443325483
-0.3108008443325483
-0.31695531649755804
-0.3292642608275498
-0.3415732051575415
-0.31695531649755804
-0.3108008443325483
-0.3108008443325483
-0.3108008443325483
-0.3108008443325483
-0.31695531649755804
-0.3292642608275498
-0.3292642608275498
-0.32310978866254003
-0.3108008443325483
-0.3108008443325483
-0.3108008443325483
-0.3108008443325483
-0.3108008443325483
-0.30464637216753854
-0.3108008443325483
-0.30464637216753854
-0.2984919000025288
-0.30464637216753854
-0.2984919000025288
-0.2984919000025288
-0.30464637216753854
-0.30464637216753854
-0.2984919000025288
-0.30464637216753854
-0.30464637216753854
-0.2984919000025288
-0.2984919000025288
-0.30464637216753854
-0.2984919000025288
-0.30464637216753854
-0.2984919000025288
-0.30464637216753854
-0.30464637216753854
-0.30464637216753854
-0.30464637216753854
-0.2984919000025288
-0.2984919000025288
-0.30464637216753854
-0.2984919000025288
-0.2984919000025288
-0.2984919000025288
-0.30464637216753854
-0.2984919000025288
-0.30464637216753854
-0.29233742783754685
-0.30464637216753854
-0.29233742783754685
-0.29233742783754685
-0.29233742783754685
-0.2984919000025288
-0.29233742783754685
-0.2984919000025288
-0.30464637216753854
-0.2984919000025288
-0.2984919000025288
-0.29233742783754685
-0.2984919000025288
-0.2984919000025288
-0.2984919000025288
-0.2984919000025288
-0.29233742783754685
-0.29233742783754685
-0.28618295567253704
-0.29233742783754685
-0.29233742783754685
-0.28618295567253704
-0.2800284835075273
-0.29233742783754685
-0.28618295567253704
-0.28618295567253704
-0.28618295567253704
-0.29233742783754685
-0.29233742783754685
-0.28618295567253704
-0.28618295567253704
-0.28618295567253704
-0.28618295567253704
-0.29233742783754685
-0.29233742783754685
-0.28618295567253704
-0.2800284835075273
-0.28618295567253704
-0.28618295567253704
-0.29233742783754685
-0.29233742783754685
-0.28618295567253704
-0.29233742783754685
-0.29233742783754685
-0.28618295567253704
-0.2800284835075273
-0.28618295567253704
-0.2800284835075273
-0.28618295567253704
-0.28618295567253704
-0.28618295567253704
-0.2800284835075273
-0.28618295567253704
-0.2800284835075273
-0.28618295567253704
-0.28618295567253704
-0.28618295567253704
-0.29233742783754685
-0.29233742783754685
-0.28618295567253704
-0.28618295567253704
-0.28618295567253704
-0.29233742783754685
-0.29233742783754685
-0.28618295567253704
-0.29233742783754685
-0.28618295567253704
-0.28618295567253704
-0.2800284835075273
-0.28618295567253704
-0.2800284835075273
-0.2800284835075273
-0.2800284835075273
-0.3108008443325483
-0.2800284835075273
-0.2738740113425453
-0.3108008443325483
-0.28618295567253704
-0.2738740113425453
-0.26771953917753555
-0.2738740113425453
-0.29233742783754685
-0.28618295567253704
-0.28618295567253704
-0.2800284835075273
-0.2738740113425453
-0.2800284835075273
-0.2738740113425453
-0.2800284835075273
-0.2800284835075273
-0.2800284835075273
-0.2738740113425453
-0.2738740113425453
-0.2738740113425453
-0.2738740113425453
-0.2800284835075273
-0.2738740113425453
-0.2800284835075273
-0.2738740113425453
-0.2738740113425453
-0.2800284835075273
-0.2800284835075273
-0.26771953917753555
-0.26771953917753555
-0.2738740113425453
-0.2738740113425453
-0.2738740113425453
-0.26771953917753555
-0.26771953917753555
-0.2738740113425453
-0.2738740113425453
-0.2738740113425453
-0.2738740113425453
-0.2738740113425453
-0.26156506701252585
-0.26771953917753555
-0.2738740113425453
-0.26771953917753555
-0.26771953917753555
-0.26771953917753555
-0.2738740113425453
-0.2738740113425453
-0.2738740113425453
-0.2738740113425453
-0.2738740113425453
-0.26771953917753555
-0.26771953917753555
-0.2738740113425453
-0.2738740113425453
-0.2554105948475438
-0.2554105948475438
-0.2554105948475438
-0.26156506701252585
-0.26156506701252585
-0.26156506701252585
-0.26771953917753555
-0.26156506701252585
-0.26156506701252585
-0.26771953917753555
-0.2738740113425453
-0.26156506701252585
-0.26771953917753555
-0.24925612268253405
-0.24925612268253405
-0.2554105948475438
-0.26156506701252585
-0.26771953917753555
-0.2738740113425453
-0.28618295567253704
-0.2984919000025288
-0.2984919000025288
-0.2738740113425453
-0.2431016505175243
-0.2061748175275213
-0.1692479845375183
-0.15078456804251686
-0.17540245670252808
-0.23694717835254234
-0.29233742783754685
-0.3354187329925596
-0.360036621652543
-0.360036621652543
-0.34772767732255133
-0.3292642608275498
-0.31695531649755804
-0.30464637216753854
-0.2984919000025288
-0.2984919000025288
-0.28618295567253704
-0.29233742783754685
-0.29233742783754685
-0.28618295567253704
-0.28618295567253704
-0.2800284835075273
-0.28618295567253704
-0.2800284835075273
-0.2738740113425453
-0.2738740113425453
-0.2800284835075273
-0.2800284835075273
-0.2800284835075273
-0.2738740113425453
-0.2800284835075273
-0.28618295567253704
-0.28618295567253704
-0.28618295567253704
-0.28618295567253704
-0.2800284835075273
-0.28618295567253704
-0.2800284835075273
-0.2800284835075273
-0.2738740113425453
-0.2738740113425453
-0.2738740113425453
-0.2800284835075273
-0.2800284835075273
-0.2738740113425453
-0.2800284835075273
-0.2984919000025288
-0.26771953917753555
-0.26771953917753555
-0.28618295567253704
-0.28618295567253704
-0.2738740113425453
-0.2800284835075273
-0.26771953917753555
-0.26771953917753555
-0.2738740113425453
-0.26771953917753555
-0.2800284835075273
-0.26771953917753555
-0.26771953917753555
-0.26771953917753555
-0.2738740113425453
-0.2738740113425453
-0.26771953917753555
-0.2738740113425453
-0.26771953917753555
-0.26156506701252585
-0.26156506701252585
-0.26771953917753555
-0.26156506701252585
-0.26156506701252585
-0.26771953917753555
-0.26156506701252585
-0.26771953917753555
-0.26771953917753555
-0.26771953917753555
-0.2738740113425453
-0.2738740113425453
-0.2800284835075273
-0.2738740113425453
-0.28618295567253704
-0.28618295567253704
-0.28618295567253704
-0.29233742783754685
-0.29233742783754685
-0.29233742783754685
-0.29233742783754685
-0.29233742783754685
-0.28618295567253704
-0.29233742783754685
-0.28618295567253704
-0.28618295567253704
-0.28618295567253704
-0.29233742783754685
-0.28618295567253704
-0.28618295567253704
-0.29233742783754685
-0.28618295567253704
-0.28618295567253704
-0.28618295567253704
-0.2800284835075273
-0.2800284835075273
-0.2800284835075273
-0.2800284835075273
-0.28618295567253704
-0.28618295567253704
-0.28618295567253704
-0.2800284835075273
-0.2800284835075273
-0.28618295567253704
-0.28618295567253704
-0.2800284835075273
-0.2738740113425453
-0.2738740113425453
-0.28618295567253704
-0.28618295567253704
-0.2800284835075273
-0.2800284835075273
-0.2738740113425453
-0.2800284835075273
-0.2738740113425453
-0.2800284835075273
-0.2800284835075273
-0.2800284835075273
-0.28618295567253704
-0.2800284835075273
-0.2800284835075273
-0.2800284835075273
-0.2738740113425453
-0.2800284835075273
-0.2800284835075273
-0.2800284835075273
-0.2800284835075273
-0.28618295567253704
-0.2800284835075273
-0.28618295567253704
-0.29233742783754685
-0.29233742783754685
-0.28618295567253704
-0.28618295567253704
-0.2800284835075273
-0.28618295567253704
-0.28618295567253704
-0.2800284835075273
-0.2800284835075273
-0.29233742783754685
-0.2800284835075273
-0.2800284835075273
-0.2800284835075273
-0.28618295567253704
-0.2800284835075273
-0.28618295567253704
-0.28618295567253704
-0.28618295567253704
-0.28618295567253704
-0.28618295567253704
-0.2800284835075273
-0.28618295567253704
-0.28618295567253704
-0.28618295567253704
-0.28618295567253704
-0.2800284835075273
-0.2800284835075273
-0.2800284835075273
-0.2800284835075273
-0.2738740113425453
-0.2738740113425453
-0.2800284835075273
-0.30464637216753854
-0.28618295567253704
-0.28618295567253704
-0.2800284835075273
-0.2800284835075273
-0.28618295567253704
-0.2800284835075273
-0.2738740113425453
-0.2738740113425453
-0.2738740113425453
-0.2738740113425453
-0.2738740113425453
-0.2800284835075273
-0.26771953917753555
-0.2738740113425453
-0.2800284835075273
-0.2800284835075273
-0.2738740113425453
-0.26771953917753555
-0.26771953917753555
-0.26771953917753555
-0.2738740113425453
-0.2738740113425453
-0.26771953917753555
-0.26771953917753555
-0.26771953917753555
-0.2738740113425453
-0.2738740113425453
-0.26156506701252585
-0.26771953917753555
-0.26771953917753555
-0.26771953917753555
-0.26156506701252585
-0.26156506701252585
-0.26156506701252585
-0.26156506701252585
-0.26771953917753555
-0.26156506701252585
-0.26771953917753555
-0.26156506701252585
-0.2554105948475438
-0.26156506701252585
-0.2554105948475438
-0.26771953917753555
-0.26156506701252585
-0.26156506701252585
-0.2554105948475438
-0.26156506701252585
-0.26156506701252585
-0.26156506701252585
-0.26771953917753555
-0.26156506701252585
-0.2554105948475438
-0.2554105948475438
-0.2554105948475438
-0.2554105948475438
-0.2554105948475438
-0.2554105948475438
-0.26771953917753555
-0.2554105948475438
-0.26156506701252585
-0.26156506701252585
-0.26156506701252585
-0.26156506701252585
-0.26771953917753555
-0.26771953917753555
-0.2554105948475438
-0.26156506701252585
-0.26156506701252585
-0.26156506701252585
-0.26156506701252585
-0.2800284835075273
-0.2984919000025288
-0.3108008443325483
-0.26156506701252585
-0.23694717835254234
-0.2061748175275213
-0.16309351237253633
-0.14463009587750708
-0.15693904020752658
-0.21232928969253104
-0.2800284835075273
-0.31695531649755804
-0.3415732051575415
-0.34772767732255133
-0.3354187329925596
-0.31695531649755804
-0.2984919000025288
-0.28618295567253704
-0.2800284835075273
-0.2738740113425453
-0.26771953917753555
-0.26771953917753555
-0.26156506701252585
-0.26156506701252585
-0.2554105948475438
-0.26156506701252585
-0.26156506701252585
-0.26156506701252585
-0.26156506701252585
-0.2554105948475438
-0.26156506701252585
-0.26156506701252585
-0.2554105948475438
-0.24925612268253405
-0.26156506701252585
-0.24925612268253405
-0.24925612268253405
-0.2554105948475438
-0.2554105948475438
-0.24925612268253405
-0.24925612268253405
-0.24925612268253405
-0.2554105948475438
-0.2554105948475438
-0.24925612268253405
-0.2554105948475438
-0.2554105948475438
-0.2554105948475438
-0.24925612268253405
-0.24925612268253405
-0.26156506701252585
-0.2738740113425453
-0.2554105948475438
-0.2431016505175243
-0.24925612268253405
-0.2554105948475438
-0.24925612268253405
-0.26156506701252585
-0.2738740113425453
-0.26771953917753555
-0.2554105948475438
-0.26156506701252585
-0.26156506701252585
-0.26156506701252585
-0.2554105948475438
-0.26156506701252585
-0.2554105948475438
-0.2554105948475438
-0.2554105948475438
-0.26156506701252585
-0.2554105948475438
-0.2554105948475438
-0.24925612268253405
-0.26156506701252585
-0.2554105948475438
-0.24925612268253405
-0.24925612268253405
-0.2554105948475438
-0.24925612268253405
-0.2554105948475438
-0.2554105948475438
-0.24925612268253405
-0.2554105948475438
-0.26156506701252585
-0.2554105948475438
-0.26156506701252585
-0.26156506701252585
-0.26156506701252585
-0.26771953917753555
-0.26771953917753555
-0.26156506701252585
-0.26156506701252585
-0.26771953917753555
-0.26771953917753555
-0.2738740113425453
-0.2738740113425453
-0.2738740113425453
-0.26771953917753555
-0.26771953917753555
-0.26771953917753555
-0.26771953917753555
-0.26771953917753555
-0.2738740113425453
-0.2738740113425453
-0.26771953917753555
-0.26771953917753555
-0.26771953917753555
-0.2738740113425453
-0.2738740113425453
-0.2738740113425453
-0.26771953917753555
-0.2738740113425453
-0.26771953917753555
-0.2738740113425453
-0.2738740113425453
-0.26771953917753555
-0.2738740113425453
-0.26771953917753555
-0.26771953917753555
-0.2738740113425453
-0.26771953917753555
-0.26771953917753555
-0.26156506701252585
-0.26771953917753555
-0.26771953917753555
-0.26771953917753555
-0.26156506701252585
-0.26156506701252585
-0.26156506701252585
-0.26771953917753555
-0.26156506701252585
-0.26771953917753555
-0.26156506701252585
-0.26156506701252585
-0.26156506701252585
-0.26156506701252585
-0.26771953917753555
-0.26771953917753555
-0.2738740113425453
-0.26771953917753555
-0.2738740113425453
-0.26771953917753555
-0.26771953917753555
-0.26771953917753555
-0.26771953917753555
-0.26771953917753555
-0.26771953917753555
-0.2738740113425453
-0.26771953917753555
-0.26771953917753555
-0.26771953917753555
-0.26771953917753555
-0.26771953917753555
-0.2738740113425453
-0.2738740113425453
-0.26771953917753555
-0.2738740113425453
-0.2800284835075273
-0.2738740113425453
-0.26771953917753555
-0.26771953917753555
-0.2738740113425453
-0.2738740113425453
-0.2738740113425453
-0.26771953917753555
-0.2738740113425453
-0.2738740113425453
-0.26771953917753555
-0.26771953917753555
-0.26771953917753555
-0.26771953917753555
-0.26771953917753555
-0.26771953917753555
-0.29233742783754685
-0.2554105948475438
-0.24925612268253405
-0.2554105948475438
-0.26156506701252585
-0.2738740113425453
-0.26156506701252585
-0.26771953917753555
-0.26156506701252585
-0.26771953917753555
-0.26771953917753555
-0.26156506701252585
-0.26156506701252585
-0.26771953917753555
-0.2554105948475438
-0.2554105948475438
-0.24925612268253405
-0.2554105948475438
-0.26156506701252585
-0.26156506701252585
-0.2554105948475438
-0.2554105948475438
-0.26771953917753555
-0.26771953917753555
-0.26156506701252585
-0.26156506701252585
-0.26771953917753555
-0.26771953917753555
-0.26156506701252585
-0.2738740113425453
-0.26771953917753555
-0.26771953917753555
-0.26771953917753555
-0.2738740113425453
-0.26771953917753555
-0.26771953917753555
-0.2738740113425453
-0.26771953917753555
-0.26771953917753555
-0.2738740113425453
-0.2738740113425453
-0.26771953917753555
-0.2738740113425453
-0.2738740113425453
-0.26156506701252585
-0.26771953917753555
-0.26156506701252585
-0.26771953917753555
-0.26771953917753555
-0.26771953917753555
-0.26771953917753555
-0.26771953917753555
-0.2738740113425453
-0.26771953917753555
-0.2800284835075273
-0.2800284835075273
-0.2800284835075273
-0.2738740113425453
-0.26156506701252585
-0.26771953917753555
-0.2738740113425453
-0.2738740113425453
-0.26771953917753555
-0.26771953917753555
-0.2738740113425453
-0.2738740113425453
-0.26771953917753555
-0.26771953917753555
-0.2738740113425453
-0.2738740113425453
-0.2738740113425453
-0.26771953917753555
-0.2738740113425453
-0.2738740113425453
-0.26771953917753555
-0.2738740113425453
-0.28618295567253704
-0.29233742783754685
-0.2984919000025288
-0.29233742783754685
-0.29233742783754685
-0.26771953917753555
-0.2246382340225228
-0.18771140103251985
-0.15078456804251686
-0.14463009587750708
-0.18155692886753785
-0.24925612268253405
-0.29233742783754685
-0.3292642608275498
-0.3415732051575415
-0.3354187329925596
-0.32310978866254003
-0.31695531649755804
-0.30464637216753854
-0.2984919000025288
-0.28618295567253704
-0.28618295567253704
-0.2800284835075273
-0.2800284835075273
-0.2800284835075273
-0.28618295567253704
-0.2800284835075273
-0.2800284835075273
-0.2738740113425453
-0.2800284835075273
-0.2738740113425453
-0.2738740113425453
-0.2738740113425453
-0.2738740113425453
-0.2738740113425453
-0.2738740113425453
-0.2800284835075273
-0.2800284835075273
-0.2738740113425453
-0.2738740113425453
-0.2738740113425453
-0.2738740113425453
-0.26771953917753555
-0.26771953917753555
-0.2738740113425453
-0.2800284835075273
-0.30464637216753854
-0.2738740113425453
-0.2800284835075273
-0.2800284835075273
-0.2738740113425453
-0.2738740113425453
-0.26771953917753555
-0.26771953917753555
-0.2738740113425453
-0.2738740113425453
-0.26771953917753555
-0.26771953917753555
-0.2738740113425453
-0.2738740113425453
-0.26771953917753555
-0.26771953917753555
-0.26771953917753555
-0.2738740113425453
-0.2800284835075273
-0.2800284835075273
-0.2800284835075273
-0.2800284835075273
-0.2738740113425453
-0.2738740113425453
-0.2738740113425453
-0.2738740113425453
-0.2984919000025288
-0.28618295567253704
-0.26771953917753555
-0.26156506701252585
-0.26156506701252585
-0.26156506701252585
-0.26771953917753555
-0.26771953917753555
-0.2738740113425453
-0.2738740113425453
-0.2738740113425453
-0.2738740113425453
-0.26771953917753555
-0.26771953917753555
-0.26771953917753555
-0.26771953917753555
-0.26771953917753555
-0.26771953917753555
-0.2738740113425453
-0.2738740113425453
-0.2738740113425453
-0.26771953917753555
-0.2738740113425453
-0.26771953917753555
-0.2738740113425453
-0.2738740113425453
-0.2800284835075273
-0.2800284835075273
-0.2800284835075273
-0.2800284835075273
-0.2800284835075273
-0.2738740113425453
-0.2738740113425453
-0.2800284835075273
-0.2738740113425453
-0.2738740113425453
-0.2800284835075273
-0.2738740113425453
-0.2800284835075273
-0.2800284835075273
-0.2738740113425453
-0.26771953917753555
-0.2738740113425453
-0.2738740113425453
-0.26771953917753555
-0.26771953917753555
-0.26771953917753555
-0.2738740113425453
-0.2738740113425453
-0.2800284835075273
-0.2800284835075273
-0.2738740113425453
-0.2800284835075273
-0.2800284835075273
-0.2800284835075273
-0.2800284835075273
-0.2800284835075273
-0.2800284835075273
-0.2800284835075273
-0.2800284835075273
-0.2738740113425453
-0.2800284835075273
-0.2800284835075273
-0.28618295567253704
-0.28618295567253704
-0.2738740113425453
-0.2800284835075273
-0.2800284835075273
-0.2738740113425453
-0.2800284835075273
-0.2738740113425453
-0.2738740113425453
-0.2800284835075273
-0.2800284835075273
-0.2800284835075273
-0.2738740113425453
-0.2800284835075273
-0.2738740113425453
-0.2800284835075273
-0.2800284835075273
-0.2738740113425453
-0.2800284835075273
-0.2738740113425453
-0.2738740113425453
-0.2738740113425453
-0.2800284835075273
-0.2800284835075273
-0.26771953917753555
-0.2738740113425453
-0.2738740113425453
-0.2738740113425453
-0.2738740113425453
-0.2738740113425453
-0.2738740113425453
-0.2800284835075273
-0.2800284835075273
-0.3108008443325483
-0.2800284835075273
-0.26771953917753555
-0.2738740113425453
-0.2738740113425453
-0.2738740113425453
-0.2738740113425453
-0.2800284835075273
-0.28618295567253704
-0.29233742783754685
-0.28618295567253704
-0.2738740113425453
-0.2800284835075273
-0.2738740113425453
-0.2800284835075273
-0.2738740113425453
-0.2800284835075273
-0.2738740113425453
-0.2800284835075273
-0.2800284835075273
-0.2738740113425453
-0.2800284835075273
-0.2738740113425453
-0.2738740113425453
-0.2738740113425453
-0.2738740113425453
-0.2800284835075273
-0.2738740113425453
-0.2800284835075273
-0.2738740113425453
-0.2738740113425453
-0.2738740113425453
-0.2800284835075273
-0.2800284835075273
-0.2800284835075273
-0.2800284835075273
-0.2738740113425453
-0.2738740113425453
-0.2800284835075273
-0.2738740113425453
-0.2738740113425453
-0.2738740113425453
-0.2738740113425453
-0.2800284835075273
-0.2800284835075273
-0.2800284835075273
-0.2800284835075273
-0.28618295567253704
-0.2738740113425453
-0.2800284835075273
-0.28618295567253704
-0.28618295567253704
-0.2800284835075273
-0.2800284835075273
-0.2800284835075273
-0.28618295567253704
-0.28618295567253704
-0.2800284835075273
-0.2738740113425453
-0.2800284835075273
-0.2800284835075273
-0.28618295567253704
-0.28618295567253704
-0.28618295567253704
-0.28618295567253704
-0.29233742783754685
-0.29233742783754685
-0.29233742783754685
-0.28618295567253704
-0.2738740113425453
-0.2800284835075273
-0.2800284835075273
-0.2800284835075273
-0.2800284835075273
-0.2800284835075273
-0.2800284835075273
-0.2800284835075273
-0.2800284835075273
-0.2738740113425453
-0.2800284835075273
-0.2738740113425453
-0.2738740113425453
-0.26771953917753555
-0.26771953917753555
-0.26771953917753555
-0.26771953917753555
-0.2800284835075273
-0.2800284835075273
-0.29233742783754685
-0.30464637216753854
-0.28618295567253704
-0.26771953917753555
-0.23079270618753256
-0.1938658731975296
-0.15693904020752658
-0.13232115154751534
-0.15693904020752658
-0.2184837618575408
-0.2800284835075273
-0.31695531649755804
-0.3354187329925596
-0.3415732051575415
-0.3354187329925596
-0.3108008443325483
-0.30464637216753854
-0.29233742783754685
-0.28618295567253704
-0.2800284835075273
-0.2738740113425453
-0.2800284835075273
-0.2800284835075273
-0.2800284835075273
-0.2738740113425453
-0.26771953917753555
-0.2738740113425453
-0.26771953917753555
-0.26156506701252585
-0.26156506701252585
-0.26156506701252585
-0.26156506701252585
-0.26771953917753555
-0.26771953917753555
-0.29233742783754685
-0.26156506701252585
-0.26156506701252585
-0.2554105948475438
-0.26156506701252585
-0.2554105948475438
-0.2738740113425453
-0.2738740113425453
-0.2738740113425453
-0.2800284835075273
-0.2800284835075273
-0.26771953917753555
-0.2738740113425453
-0.26771953917753555
-0.26156506701252585
-0.26156506701252585
-0.26156506701252585
-0.26771953917753555
-0.26771953917753555
-0.26156506701252585
-0.26156506701252585
-0.26771953917753555
-0.26771953917753555
-0.26156506701252585
-0.26771953917753555
-0.2554105948475438
-0.26156506701252585
-0.26771953917753555
-0.26771953917753555
-0.26771953917753555
-0.26156506701252585
-0.26156506701252585
-0.26156506701252585
-0.26156506701252585
-0.26156506701252585
-0.26156506701252585
-0.26771953917753555
-0.26771953917753555
-0.26771953917753555
-0.26156506701252585
-0.26156506701252585
-0.26156506701252585
-0.2554105948475438
-0.2554105948475438
-0.2554105948475438
-0.2554105948475438
-0.2554105948475438
-0.2554105948475438
-0.2554105948475438
-0.2554105948475438
-0.26771953917753555
-0.26771953917753555
-0.26771953917753555
-0.26156506701252585
-0.26771953917753555
-0.26771953917753555
-0.26771953917753555
-0.2738740113425453
-0.2738740113425453
-0.2738740113425453
-0.2738740113425453
-0.2800284835075273
-0.2800284835075273
-0.2800284835075273
-0.2800284835075273
-0.2800284835075273
-0.28618295567253704
-0.28618295567253704
-0.28618295567253704
-0.28618295567253704
-0.28618295567253704
-0.29233742783754685
-0.28618295567253704
-0.2800284835075273
-0.28618295567253704
-0.28618295567253704
-0.2800284835075273
-0.28618295567253704
-0.29233742783754685
-0.28618295567253704
-0.28618295567253704
-0.2800284835075273
-0.2800284835075273
-0.28618295567253704
-0.2800284835075273
-0.2800284835075273
-0.2738740113425453
-0.2738740113425453
-0.2800284835075273
-0.2738740113425453
-0.2800284835075273
-0.2738740113425453
-0.2800284835075273
-0.2800284835075273
-0.2800284835075273
-0.2800284835075273
-0.2738740113425453
-0.2738740113425453
-0.26771953917753555
-0.2738740113425453
-0.2800284835075273
-0.28618295567253704
-0.30464637216753854
-0.2800284835075273
-0.26771953917753555
-0.2738740113425453
-0.26771953917753555
-0.2738740113425453
-0.2738740113425453
-0.2738740113425453
-0.29233742783754685
-0.29233742783754685
-0.2800284835075273
-0.2800284835075273
-0.28618295567253704
-0.28618295567253704
-0.28618295567253704
-0.28618295567253704
-0.28618295567253704
-0.2800284835075273
-0.28618295567253704
-0.2984919000025288
-0.3108008443325483
-0.28618295567253704
-0.28618295567253704
-0.2800284835075273
-0.29233742783754685
-0.2984919000025288
-0.28618295567253704
-0.2800284835075273
-0.2800284835075273
-0.2800284835075273
-0.2800284835075273
-0.28618295567253704
-0.28618295567253704
-0.28618295567253704
-0.28618295567253704
-0.28618295567253704
-0.2800284835075273
-0.2800284835075273
-0.2800284835075273
-0.2800284835075273
-0.2800284835075273
-0.2800284835075273
-0.2800284835075273
-0.2800284835075273
-0.28618295567253704
-0.2738740113425453
-0.2800284835075273
-0.2800284835075273
-0.2738740113425453
-0.2738740113425453
-0.2738740113425453
-0.2800284835075273
-0.2738740113425453
-0.2800284835075273
-0.2800284835075273
-0.2800284835075273
-0.2800284835075273
-0.2800284835075273
-0.2800284835075273
-0.2800284835075273
-0.2800284835075273
-0.28618295567253704
-0.2800284835075273
-0.28618295567253704
-0.28618295567253704
-0.28618295567253704
-0.2800284835075273
-0.28618295567253704
-0.2800284835075273
-0.28618295567253704
-0.28618295567253704
-0.28618295567253704
-0.2800284835075273
-0.28618295567253704
-0.2800284835075273
-0.28618295567253704
-0.2800284835075273
-0.28618295567253704
-0.2800284835075273
-0.28618295567253704
-0.28618295567253704
-0.2800284835075273
-0.2800284835075273
-0.29233742783754685
-0.28618295567253704
-0.2800284835075273
-0.28618295567253704
-0.2738740113425453
-0.2800284835075273
-0.2800284835075273
-0.2800284835075273
-0.2800284835075273
-0.2800284835075273
-0.2800284835075273
-0.2738740113425453
-0.28618295567253704
-0.28618295567253704
-0.2738740113425453
-0.2738740113425453
-0.26156506701252585
-0.26156506701252585
-0.26156506701252585
-0.26771953917753555
-0.26156506701252585
-0.2738740113425453
-0.2738740113425453
-0.26156506701252585
-0.26156506701252585
-0.26156506701252585
-0.26156506701252585
-0.26156506701252585
-0.26156506701252585
-0.26156506701252585
-0.2554105948475438
-0.2554105948475438
-0.2554105948475438
-0.26156506701252585
-0.26156506701252585
-0.2738740113425453
-0.29233742783754685
-0.29233742783754685
-0.26771953917753555
-0.2431016505175243
-0.2000203453625393
-0.17540245670252808
-0.15078456804251686
-0.1692479845375183
-0.2184837618575408
-0.2738740113425453
-0.32310978866254003
-0.34772767732255133
-0.35388214948756097
-0.3415732051575415
-0.32310978866254003
-0.3108008443325483
-0.2984919000025288
-0.29233742783754685
-0.28618295567253704
-0.2738740113425453
-0.2738740113425453
-0.2800284835075273
-0.2800284835075273
-0.2984919000025288
-0.2738740113425453
-0.2800284835075273
-0.2800284835075273
-0.2800284835075273
-0.2800284835075273
-0.2800284835075273
-0.2800284835075273
-0.2738740113425453
-0.2738740113425453
-0.2738740113425453
-0.28618295567253704
-0.2738740113425453
-0.2738740113425453
-0.2738740113425453
-0.2738740113425453
-0.2800284835075273
-0.2738740113425453
-0.2738740113425453
-0.28618295567253704
-0.28618295567253704
-0.2800284835075273
-0.2800284835075273
-0.2800284835075273
-0.2800284835075273
-0.2800284835075273
-0.2738740113425453
-0.2800284835075273
-0.2800284835075273
-0.2738740113425453
-0.2738740113425453
-0.2738740113425453
-0.28618295567253704
-0.28618295567253704
-0.28618295567253704
-0.2800284835075273
-0.2738740113425453
-0.2800284835075273
-0.2800284835075273
-0.2738740113425453
-0.2800284835075273
-0.2800284835075273
-0.2738740113425453
-0.2738740113425453
-0.26771953917753555
-0.26771953917753555
-0.2738740113425453
-0.26771953917753555
-0.26771953917753555
-0.26156506701252585
-0.26771953917753555
-0.26771953917753555
-0.26771953917753555
-0.2738740113425453
-0.26771953917753555
-0.2738740113425453
-0.2738740113425453
-0.2800284835075273
-0.2800284835075273
-0.28618295567253704
-0.28618295567253704
-0.28618295567253704
-0.29233742783754685
-0.2984919000025288
-0.2984919000025288
-0.29233742783754685
-0.2984919000025288
-0.30464637216753854
-0.30464637216753854
-0.30464637216753854
-0.30464637216753854
-0.2984919000025288
-0.30464637216753854
-0.30464637216753854
-0.30464637216753854
-0.30464637216753854
-0.2984919000025288
-0.2984919000025288
-0.2984919000025288
-0.2984919000025288
-0.29233742783754685
-0.29233742783754685
-0.2984919000025288
-0.2984919000025288
-0.29233742783754685
-0.2984919000025288
-0.2984919000025288
-0.29233742783754685
-0.2984919000025288
-0.30464637216753854
-0.29233742783754685
-0.29233742783754685
-0.2984919000025288
-0.2984919000025288
-0.29233742783754685
-0.28618295567253704
-0.2984919000025288
-0.29233742783754685
-0.29233742783754685
-0.2984919000025288
-0.29233742783754685
-0.2984919000025288
-0.29233742783754685
-0.29233742783754685
-0.29233742783754685
-0.2984919000025288
-0.2984919000025288
-0.2984919000025288
-0.29233742783754685
-0.2984919000025288
-0.2984919000025288
-0.28618295567253704
-0.28618295567253704
-0.2984919000025288
-0.2984919000025288
-0.2984919000025288
-0.2984919000025288
-0.29233742783754685
-0.29233742783754685
-0.29233742783754685
-0.2984919000025288
-0.2984919000025288
-0.32310978866254003
-0.28618295567253704
-0.28618295567253704
-0.28618295567253704
-0.2984919000025288
-0.2984919000025288
-0.29233742783754685
-0.2984919000025288
-0.3108008443325483
-0.3108008443325483
-0.30464637216753854
-0.2984919000025288
-0.30464637216753854
-0.2984919000025288
-0.29233742783754685
-0.2984919000025288
-0.29233742783754685
-0.2984919000025288
-0.30464637216753854
-0.2984919000025288
-0.30464637216753854
-0.29233742783754685
-0.2984919000025288
-0.30464637216753854
-0.30464637216753854
-0.30464637216753854
-0.30464637216753854
-0.30464637216753854
-0.30464637216753854
-0.30464637216753854
-0.30464637216753854
-0.30464637216753854
-0.30464637216753854
-0.30464637216753854
-0.3108008443325483
-0.3108008443325483
-0.3108008443325483
-0.3108008443325483
-0.3108008443325483
-0.31695531649755804
-0.3108008443325483
-0.3108008443325483
-0.31695531649755804
-0.31695531649755804
-0.3108008443325483
-0.3108008443325483
-0.31695531649755804
-0.3108008443325483
-0.3108008443325483
-0.31695531649755804
-0.3108008443325483
-0.3108008443325483
-0.31695531649755804
-0.31695531649755804
-0.31695531649755804
-0.3292642608275498
-0.34772767732255133
-0.3108008443325483
-0.3108008443325483
-0.3108008443325483
-0.3108008443325483
-0.31695531649755804
-0.31695531649755804
-0.31695531649755804
-0.3292642608275498
-0.3292642608275498
-0.32310978866254003
-0.32310978866254003
-0.3292642608275498
-0.32310978866254003
-0.32310978866254003
-0.32310978866254003
-0.32310978866254003
-0.32310978866254003
-0.32310978866254003
-0.31695531649755804
-0.31695531649755804
-0.3292642608275498
-0.3292642608275498
-0.3354187329925596
-0.3292642608275498
-0.3292642608275498
-0.3108008443325483
-0.31695531649755804
-0.31695531649755804
-0.31695531649755804
-0.31695531649755804
-0.32310978866254003
-0.32310978866254003
-0.3292642608275498
-0.32310978866254003
-0.3292642608275498
-0.32310978866254003
-0.3292642608275498
-0.32310978866254003
-0.31695531649755804
-0.31695531649755804
-0.32310978866254003
-0.31695531649755804
-0.31695531649755804
-0.3292642608275498
-0.3415732051575415
-0.34772767732255133
-0.3354187329925596
-0.32310978866254003
-0.28618295567253704
-0.2554105948475438
-0.2184837618575408
-0.2000203453625393
-0.21232928969253104
-0.26771953917753555
-0.31695531649755804
-0.360036621652543
-0.3723455659825625
-0.3723455659825625
-0.3723455659825625
-0.360036621652543
-0.34772767732255133
-0.3415732051575415
-0.32310978866254003
-0.3108008443325483
-0.31695531649755804
-0.3354187329925596
-0.3108008443325483
-0.30464637216753854
-0.3108008443325483
-0.3108008443325483
-0.3108008443325483
-0.32310978866254003
-0.31695531649755804
-0.3108008443325483
-0.30464637216753854
-0.3108008443325483
-0.3108008443325483
-0.3108008443325483
-0.30464637216753854
-0.30464637216753854
-0.30464637216753854
-0.2984919000025288
-0.2984919000025288
-0.2984919000025288
-0.30464637216753854
-0.2984919000025288
-0.30464637216753854
-0.29233742783754685
-0.2984919000025288
-0.2984919000025288
-0.2984919000025288
-0.28618295567253704
-0.29233742783754685
-0.29233742783754685
-0.2984919000025288
-0.2984919000025288
-0.29233742783754685
-0.28618295567253704
-0.2984919000025288
-0.2984919000025288
-0.2984919000025288
-0.28618295567253704
-0.29233742783754685
-0.29233742783754685
-0.29233742783754685
-0.29233742783754685
-0.29233742783754685
-0.29233742783754685
-0.28618295567253704
-0.29233742783754685
-0.29233742783754685
-0.28618295567253704
-0.28618295567253704
-0.28618295567253704
-0.28618295567253704
-0.2800284835075273
-0.2800284835075273
-0.2800284835075273
-0.2738740113425453
-0.2800284835075273
-0.2738740113425453
-0.2800284835075273
-0.2800284835075273
-0.2800284835075273
-0.2738740113425453
-0.2800284835075273
-0.2800284835075273
-0.2800284835075273
-0.2800284835075273
-0.2800284835075273
-0.2738740113425453
-0.28618295567253704
-0.28618295567253704
-0.28618295567253704
-0.28618295567253704
-0.29233742783754685
-0.29233742783754685
-0.28618295567253704
-0.28618295567253704
-0.28618295567253704
-0.29233742783754685
-0.28618295567253704
-0.2984919000025288
-0.2984919000025288
-0.2984919000025288
-0.29233742783754685
-0.29233742783754685
-0.28618295567253704
-0.29233742783754685
-0.29233742783754685
-0.29233742783754685
-0.28618295567253704
-0.2800284835075273
-0.2800284835075273
-0.28618295567253704
-0.2800284835075273
-0.28618295567253704
-0.2800284835075273
-0.2800284835075273
-0.28618295567253704
-0.2800284835075273
-0.28618295567253704
-0.28618295567253704
-0.28618295567253704
-0.2800284835075273
-0.28618295567253704
-0.2800284835075273
-0.2800284835075273
-0.2800284835075273
-0.28618295567253704
-0.28618295567253704
-0.28618295567253704
-0.2800284835075273
-0.2800284835075273
-0.2800284835075273
-0.2800284835075273
-0.2738740113425453
-0.2738740113425453
-0.26771953917753555
-0.2738740113425453
-0.2800284835075273
-0.2738740113425453
-0.2800284835075273
-0.2800284835075273
-0.2800284835075273
-0.2738740113425453
-0.2800284835075273
-0.30464637216753854
-0.2800284835075273
-0.2738740113425453
-0.28618295567253704
-0.28618295567253704
-0.2800284835075273
-0.2800284835075273
-0.28618295567253704
-0.2800284835075273
-0.2738740113425453
-0.2738740113425453
-0.28618295567253704
-0.2800284835075273
-0.2738740113425453
-0.2800284835075273
-0.2800284835075273
-0.28618295567253704
-0.28618295567253704
-0.2800284835075273
-0.28618295567253704
-0.2800284835075273
-0.28618295567253704
-0.28618295567253704
-0.2800284835075273
-0.28618295567253704
-0.28618295567253704
-0.2800284835075273
-0.2800284835075273
-0.29233742783754685
-0.29233742783754685
-0.28618295567253704
-0.29233742783754685
-0.2800284835075273
-0.2800284835075273
-0.2800284835075273
-0.29233742783754685
-0.28618295567253704
-0.28618295567253704
-0.2800284835075273
-0.2800284835075273
-0.28618295567253704
-0.28618295567253704
-0.28618295567253704
-0.28618295567253704
-0.2800284835075273
-0.2738740113425453
-0.2738740113425453
-0.2800284835075273
-0.28618295567253704
-0.28618295567253704
-0.2738740113425453
-0.2738740113425453
-0.2800284835075273
-0.2800284835075273
-0.2800284835075273
-0.2738740113425453
-0.2738740113425453
-0.2800284835075273
-0.2800284835075273
-0.2800284835075273
-0.2738740113425453
-0.2738740113425453
-0.2738740113425453
-0.2800284835075273
-0.2738740113425453
-0.2738740113425453
-0.28618295567253704
-0.2800284835075273
-0.2800284835075273
-0.2800284835075273
-0.28618295567253704
-0.28618295567253704
-0.2738740113425453
-0.2800284835075273
-0.28618295567253704
-0.2738740113425453
-0.26771953917753555
-0.2738740113425453
-0.2800284835075273
-0.28618295567253704
-0.2800284835075273
-0.28618295567253704
-0.2800284835075273
-0.28618295567253704
-0.2984919000025288
-0.28618295567253704
-0.28618295567253704
-0.2800284835075273
-0.2800284835075273
-0.2800284835075273
-0.28618295567253704
-0.29233742783754685
-0.28618295567253704
-0.28618295567253704
-0.29233742783754685
-0.28618295567253704
-0.29233742783754685
-0.28618295567253704
-0.28618295567253704
-0.2984919000025288
-0.28618295567253704
-0.29233742783754685
-0.29233742783754685
-0.29233742783754685
-0.29233742783754685
-0.2984919000025288
-0.30464637216753854
-0.3108008443325483
-0.32310978866254003
-0.3108008443325483
-0.2984919000025288
-0.26771953917753555
-0.2246382340225228
-0.18155692886753785
-0.1692479845375183
-0.2000203453625393
-0.26156506701252585
-0.3108008443325483
-0.34772767732255133
-0.360036621652543
-0.3723455659825625
-0.36619109381755277
-0.37850003814754446
-0.3354187329925596
-0.3292642608275498
-0.3108008443325483
-0.3108008443325483
-0.30464637216753854
-0.30464637216753854
-0.2984919000025288
-0.2984919000025288
-0.3292642608275498
-0.3108008443325483
-0.28618295567253704
-0.28618295567253704
-0.29233742783754685
-0.28618295567253704
-0.28618295567253704
-0.29233742783754685
-0.2984919000025288
-0.2984919000025288
-0.29233742783754685
-0.2984919000025288
-0.29233742783754685
-0.28618295567253704
-0.2984919000025288
-0.29233742783754685
-0.2984919000025288
-0.29233742783754685
-0.2984919000025288
-0.2984919000025288
-0.2984919000025288
-0.2984919000025288
-0.29233742783754685
-0.2984919000025288
-0.2984919000025288
-0.29233742783754685
-0.2984919000025288
-0.29233742783754685
-0.29233742783754685
-0.29233742783754685
-0.29233742783754685
-0.2984919000025288
-0.2984919000025288
-0.29233742783754685
-0.2984919000025288
-0.29233742783754685
-0.2984919000025288
-0.29233742783754685
-0.29233742783754685
-0.2984919000025288
-0.29233742783754685
-0.2984919000025288
-0.2984919000025288
-0.2984919000025288
-0.29233742783754685
-0.2984919000025288
-0.2984919000025288
-0.29233742783754685
-0.29233742783754685
-0.29233742783754685
-0.2800284835075273
-0.28618295567253704
-0.2800284835075273
-0.2800284835075273
-0.2738740113425453
-0.2800284835075273
-0.2738740113425453
-0.2800284835075273
-0.2800284835075273
-0.2800284835075273
-0.2800284835075273
-0.2800284835075273
-0.2800284835075273
-0.2800284835075273
-0.2800284835075273
-0.26771953917753555
-0.2800284835075273
-0.2738740113425453
-0.2800284835075273
-0.2800284835075273
-0.2800284835075273
-0.2738740113425453
-0.2800284835075273
-0.26771953917753555
-0.26771953917753555
-0.2738740113425453
-0.2738740113425453
-0.2800284835075273
-0.2738740113425453
-0.2738740113425453
-0.2800284835075273
-0.2800284835075273
-0.2800284835075273
-0.2800284835075273
-0.28618295567253704
-0.2800284835075273
-0.28618295567253704
-0.28618295567253704
-0.28618295567253704
-0.2800284835075273
-0.28618295567253704
-0.2800284835075273
-0.2800284835075273
-0.2800284835075273
-0.2800284835075273
-0.2800284835075273
-0.2738740113425453
-0.2800284835075273
-0.2738740113425453
-0.2800284835075273
-0.2800284835075273
-0.2800284835075273
-0.2800284835075273
-0.2800284835075273
-0.29233742783754685
-0.28618295567253704
-0.28618295567253704
-0.2800284835075273
-0.2800284835075273
-0.28618295567253704
-0.2800284835075273
-0.29233742783754685
-0.29233742783754685
-0.3108008443325483
-0.2800284835075273
-0.2738740113425453
-0.2800284835075273
-0.2738740113425453
-0.2738740113425453
-0.2738740113425453
-0.28618295567253704
-0.2800284835075273
-0.2800284835075273
-0.2800284835075273
-0.2800284835075273
-0.2738740113425453
-0.2738740113425453
-0.2800284835075273
-0.2800284835075273
-0.2800284835075273
-0.2800284835075273
-0.26771953917753555
-0.26771953917753555
-0.26771953917753555
-0.2738740113425453
-0.2738740113425453
-0.2738740113425453
-0.2738740113425453
-0.2738740113425453
-0.26771953917753555
-0.26771953917753555
-0.26156506701252585
-0.26771953917753555
-0.26771953917753555
-0.26771953917753555
-0.26771953917753555
-0.26156506701252585
-0.26156506701252585
-0.26771953917753555
-0.26771953917753555
-0.2738740113425453
-0.2738740113425453
-0.26771953917753555
-0.2738740113425453
-0.26771953917753555
-0.2738740113425453
-0.26771953917753555
-0.2738740113425453
-0.26771953917753555
-0.2738740113425453
-0.2738740113425453
-0.2738740113425453
-0.26771953917753555
-0.26771953917753555
-0.26771953917753555
-0.26771953917753555
-0.2738740113425453
-0.2738740113425453
-0.26771953917753555
-0.2738740113425453
-0.2738740113425453
-0.26771953917753555
-0.26771953917753555
-0.2738740113425453
-0.2800284835075273
-0.2738740113425453
-0.2738740113425453
-0.2738740113425453
-0.2800284835075273
-0.2800284835075273
-0.2800284835075273
-0.2800284835075273
-0.2738740113425453
-0.2800284835075273
-0.2738740113425453
-0.2800284835075273
-0.2738740113425453
-0.2800284835075273
-0.28618295567253704
-0.28618295567253704
-0.28618295567253704
-0.28618295567253704
-0.2800284835075273
-0.28618295567253704
-0.2800284835075273
-0.28618295567253704
-0.2800284835075273
-0.2738740113425453
-0.2738740113425453
-0.2738740113425453
-0.2738740113425453
-0.2738740113425453
-0.2800284835075273
-0.2800284835075273
-0.28618295567253704
-0.2800284835075273
-0.2738740113425453
-0.2738740113425453
-0.26771953917753555
-0.26156506701252585
-0.26771953917753555
-0.2738740113425453
-0.26771953917753555
-0.2738740113425453
-0.2800284835075273
-0.2738740113425453
-0.26771953917753555
-0.26771953917753555
-0.2738740113425453
-0.2800284835075273
-0.2738740113425453
-0.2800284835075273
-0.2738740113425453
-0.2738740113425453
-0.2738740113425453
-0.2738740113425453
-0.29233742783754685
-0.29233742783754685
-0.2984919000025288
-0.2984919000025288
-0.26771953917753555
-0.2431016505175243
-0.2061748175275213
-0.1692479845375183
-0.14463009587750708
-0.18771140103251985
-0.2184837618575408
-0.2800284835075273
-0.32310978866254003
-0.3415732051575415
-0.34772767732255133
-0.3354187329925596
-0.32310978866254003
-0.3108008443325483
-0.2984919000025288
-0.2800284835075273
-0.2738740113425453
-0.26771953917753555
-0.2738740113425453
-0.2738740113425453
-0.2738740113425453
-0.2738740113425453
-0.26771953917753555
-0.26771953917753555
-0.2738740113425453
-0.2738740113425453
-0.26771953917753555
-0.26771953917753555
-0.26771953917753555
-0.26771953917753555
-0.26771953917753555
-0.26156506701252585
-0.26156506701252585
-0.26771953917753555
-0.26156506701252585
-0.26771953917753555
-0.26771953917753555
-0.26156506701252585
-0.26771953917753555
-0.26771953917753555
-0.26156506701252585
-0.26156506701252585
-0.26771953917753555
-0.26156506701252585
-0.2554105948475438
-0.2554105948475438
-0.26156506701252585
-0.2554105948475438
-0.2554105948475438
-0.2554105948475438
-0.2554105948475438
-0.26156506701252585
-0.2554105948475438
-0.26156506701252585
-0.2554105948475438
-0.26771953917753555
-0.26156506701252585
-0.26156506701252585
-0.26771953917753555
-0.26156506701252585
-0.26156506701252585
-0.26771953917753555
-0.26156506701252585
-0.26156506701252585
-0.26771953917753555
-0.26771953917753555
-0.26156506701252585
-0.26771953917753555
-0.26771953917753555
-0.2554105948475438
-0.26156506701252585
-0.26156506701252585
-0.26156506701252585
-0.26156506701252585
-0.26156506701252585
-0.2554105948475438
-0.24925612268253405
-0.2554105948475438
-0.2554105948475438
-0.2554105948475438
-0.26156506701252585
-0.26771953917753555
-0.26771953917753555
-0.26771953917753555
-0.26771953917753555
-0.26771953917753555
-0.26156506701252585
-0.26156506701252585
-0.26771953917753555
-0.2800284835075273
-0.30464637216753854
-0.2738740113425453
-0.26771953917753555
-0.26771953917753555
-0.26156506701252585
-0.2738740113425453
-0.26771953917753555
-0.2738740113425453
-0.29233742783754685
-0.28618295567253704
-0.2800284835075273
-0.28618295567253704
-0.2800284835075273
-0.2738740113425453
-0.2738740113425453
-0.2738740113425453
-0.2800284835075273
-0.26771953917753555
-0.2738740113425453
-0.2738740113425453
-0.26771953917753555
-0.26771953917753555
-0.26156506701252585
-0.26156506701252585
-0.26771953917753555
-0.26771953917753555
-0.26771953917753555
-0.26771953917753555
-0.26771953917753555
-0.26156506701252585
-0.26771953917753555
-0.26771953917753555
-0.26771953917753555
-0.26771953917753555
-0.26771953917753555
-0.26156506701252585
-0.2738740113425453
-0.2800284835075273
-0.2554105948475438
-0.26156506701252585
-0.26771953917753555
-0.2738740113425453
-0.26771953917753555
-0.26771953917753555
-0.26156506701252585
-0.2738740113425453
-0.26771953917753555
-0.26156506701252585
-0.26771953917753555
-0.26156506701252585
-0.26156506701252585
-0.26771953917753555
-0.26771953917753555
-0.26156506701252585
-0.26771953917753555
-0.26771953917753555
-0.26771953917753555
-0.26771953917753555
-0.26771953917753555
-0.26771953917753555
-0.26156506701252585
-0.26771953917753555
-0.26156506701252585
-0.26771953917753555
-0.26771953917753555
-0.26156506701252585
-0.26771953917753555
-0.2554105948475438
-0.26156506701252585
-0.2554105948475438
-0.2554105948475438
-0.26156506701252585
-0.2554105948475438
-0.2554105948475438
-0.26156506701252585
-0.2554105948475438
-0.2554105948475438
-0.26156506701252585
-0.26156506701252585
-0.26771953917753555
-0.26771953917753555
-0.2554105948475438
-0.26156506701252585
-0.26156506701252585
-0.26771953917753555
-0.2554105948475438
-0.26156506701252585
-0.26156506701252585
-0.26771953917753555
-0.26156506701252585
-0.26156506701252585
-0.2554105948475438
-0.2554105948475438
-0.26156506701252585
-0.26156506701252585
-0.26156506701252585
-0.26156506701252585
-0.26156506701252585
-0.26771953917753555
-0.26156506701252585
-0.26771953917753555
-0.26771953917753555
-0.26156506701252585
-0.2554105948475438
-0.26156506701252585
-0.2738740113425453
-0.2738740113425453
-0.26771953917753555
-0.2738740113425453
-0.26771953917753555
-0.26771953917753555
-0.26771953917753555
-0.26156506701252585
-0.2800284835075273
-0.26771953917753555
-0.2738740113425453
-0.2738740113425453
-0.26771953917753555
-0.2738740113425453
-0.26771953917753555
-0.26771953917753555
-0.2738740113425453
-0.26771953917753555
-0.2738740113425453
-0.26771953917753555
-0.2738740113425453
-0.26771953917753555
-0.2738740113425453
-0.2738740113425453
-0.2800284835075273
-0.2800284835075273
-0.2800284835075273
-0.2738740113425453
-0.26156506701252585
-0.26771953917753555
-0.26771953917753555
-0.2738740113425453
-0.2800284835075273
-0.2800284835075273
-0.2738740113425453
-0.2738740113425453
-0.2738740113425453
-0.26771953917753555
-0.2738740113425453
-0.26771953917753555
-0.2738740113425453
-0.26771953917753555
-0.26771953917753555
-0.26771953917753555
-0.2738740113425453
-0.2800284835075273
-0.29233742783754685
-0.29233742783754685
-0.29233742783754685
-0.26771953917753555
-0.24925612268253405
-0.21232928969253104
-0.1938658731975296
-0.18771140103251985
-0.23079270618753256
-0.26771953917753555
-0.30464637216753854
-0.34772767732255133
-0.360036621652543
-0.35388214948756097
-0.35388214948756097
-0.3415732051575415
-0.32310978866254003
-0.3108008443325483
-0.2984919000025288
-0.29233742783754685
-0.28618295567253704
-0.2800284835075273
-0.28618295567253704
-0.2738740113425453
-0.2800284835075273
-0.2800284835075273
-0.2738740113425453
-0.26771953917753555
-0.26771953917753555
-0.2738740113425453
-0.26771953917753555
-0.26771953917753555
-0.2738740113425453
-0.2800284835075273
-0.26771953917753555
-0.2738740113425453
-0.26771953917753555
-0.2738740113425453
-0.26771953917753555
-0.26771953917753555
-0.26771953917753555
-0.26771953917753555
-0.2738740113425453
-0.26771953917753555
-0.2738740113425453
-0.2738740113425453
-0.26771953917753555
-0.26156506701252585
-0.26771953917753555
-0.26156506701252585
-0.26771953917753555
-0.2738740113425453
-0.26156506701252585
-0.2738740113425453
-0.26771953917753555
-0.26771953917753555
-0.26771953917753555
-0.2738740113425453
-0.26771953917753555
-0.2738740113425453
-0.26771953917753555
-0.2738740113425453
-0.26771953917753555
-0.26771953917753555
-0.26771953917753555
-0.2738740113425453
-0.26771953917753555
-0.2738740113425453
-0.2738740113425453
-0.26771953917753555
-0.2738740113425453
-0.2738740113425453
-0.2738740113425453
-0.26771953917753555
-0.26771953917753555
-0.26156506701252585
-0.26156506701252585
-0.26156506701252585
-0.26156506701252585
-0.26156506701252585
-0.26156506701252585
-0.26771953917753555
-0.2800284835075273
-0.2800284835075273
-0.2738740113425453
-0.2738740113425453
-0.2738740113425453
-0.2738740113425453
-0.2800284835075273
-0.2800284835075273
-0.28618295567253704
-0.2800284835075273
-0.2800284835075273
-0.2800284835075273
-0.28618295567253704
-0.28618295567253704
-0.28618295567253704
-0.28618295567253704
-0.28618295567253704
-0.2800284835075273
-0.28618295567253704
-0.2800284835075273
-0.2800284835075273
-0.28618295567253704
-0.28618295567253704
-0.2738740113425453
-0.2800284835075273
-0.2800284835075273
-0.2800284835075273
-0.2738740113425453
-0.2800284835075273
-0.2800284835075273
-0.2738740113425453
-0.2800284835075273
-0.2800284835075273
-0.2800284835075273
-0.2800284835075273
-0.2738740113425453
-0.2800284835075273
-0.2800284835075273
-0.2738740113425453
-0.2738740113425453
-0.2800284835075273
-0.2738740113425453
-0.2800284835075273
-0.2800284835075273
-0.2738740113425453
-0.2738740113425453
-0.2800284835075273
-0.2800284835075273
-0.2984919000025288
-0.2738740113425453
-0.2738740113425453
-0.2738740113425453
-0.26771953917753555
-0.2800284835075273
-0.28618295567253704
-0.2984919000025288
-0.28618295567253704
-0.2800284835075273
-0.28618295567253704
-0.28618295567253704
-0.2800284835075273
-0.28618295567253704
-0.2800284835075273
-0.2738740113425453
-0.2738740113425453
-0.2800284835075273
-0.2738740113425453
-0.2738740113425453
-0.2738740113425453
-0.2800284835075273
-0.2738740113425453
-0.2738740113425453
-0.2800284835075273
-0.26771953917753555
-0.2738740113425453
-0.26771953917753555
-0.2738740113425453
-0.2738740113425453
-0.2738740113425453
-0.2738740113425453
-0.2800284835075273
-0.2800284835075273
-0.26771953917753555
-0.26771953917753555
-0.26771953917753555
-0.2738740113425453
-0.2800284835075273
-0.29233742783754685
-0.2738740113425453
-0.26156506701252585
-0.26771953917753555
-0.2738740113425453
-0.2738740113425453
-0.26771953917753555
-0.28618295567253704
-0.28618295567253704
-0.29233742783754685
-0.28618295567253704
-0.2800284835075273
-0.2800284835075273
-0.2738740113425453
-0.2800284835075273
-0.2738740113425453
-0.2738740113425453
-0.2738740113425453
-0.2800284835075273
-0.2738740113425453
-0.2800284835075273
-0.2800284835075273
-0.2800284835075273
-0.2738740113425453
-0.2738740113425453
-0.28618295567253704
-0.2800284835075273
-0.28618295567253704
-0.2800284835075273
-0.2800284835075273
-0.29233742783754685
-0.28618295567253704
-0.28618295567253704
-0.2800284835075273
-0.28618295567253704
-0.2800284835075273
-0.2800284835075273
-0.2800284835075273
-0.28618295567253704
-0.2800284835075273
-0.2800284835075273
-0.28618295567253704
-0.2800284835075273
-0.2800284835075273
-0.2800284835075273
-0.2800284835075273
-0.28618295567253704
-0.2800284835075273
-0.2800284835075273
-0.28618295567253704
-0.2800284835075273
-0.2800284835075273
-0.2800284835075273
-0.2800284835075273
-0.2738740113425453
-0.26771953917753555
-0.2738740113425453
-0.26771953917753555
-0.26771953917753555
-0.2738740113425453
-0.2738740113425453
-0.2738740113425453
-0.2800284835075273
-0.2800284835075273
-0.2800284835075273
-0.2738740113425453
-0.2738740113425453
-0.26771953917753555
-0.2738740113425453
-0.26771953917753555
-0.26771953917753555
-0.2738740113425453
-0.26771953917753555
-0.2800284835075273
-0.29233742783754685
-0.30464637216753854
-0.29233742783754685
-0.2800284835075273
-0.2554105948475438
-0.2184837618575408
-0.18155692886753785
-0.15078456804251686
-0.17540245670252808
-0.2431016505175243
-0.26771953917753555
-0.3108008443325483
-0.3415732051575415
-0.360036621652543
-0.360036621652543
-0.3354187329925596
-0.3292642608275498
-0.30464637216753854
-0.2984919000025288
-0.28618295567253704
-0.28618295567253704
-0.28618295567253704
-0.2800284835075273
-0.2800284835075273
-0.2800284835075273
-0.2800284835075273
-0.2738740113425453
-0.2738740113425453
-0.2800284835075273
-0.26771953917753555
-0.26771953917753555
-0.2738740113425453
-0.26771953917753555
-0.2738740113425453
-0.26771953917753555
-0.26771953917753555
-0.26771953917753555
-0.2738740113425453
-0.26771953917753555
-0.26771953917753555
-0.26156506701252585
-0.26771953917753555
-0.26156506701252585
-0.2554105948475438
-0.2554105948475438
-0.26156506701252585
-0.2554105948475438
-0.2554105948475438
-0.26156506701252585
-0.26156506701252585
-0.2554105948475438
-0.2554105948475438
-0.26156506701252585
-0.2554105948475438
-0.2554105948475438
-0.26156506701252585
-0.2554105948475438
-0.26771953917753555
-0.2738740113425453
-0.2738740113425453
-0.26771953917753555
-0.2738740113425453
-0.26156506701252585
-0.26156506701252585
-0.26771953917753555
-0.26771953917753555
-0.26156506701252585
-0.26771953917753555
-0.26771953917753555
-0.26771953917753555
-0.26156506701252585
-0.26771953917753555
-0.26156506701252585
-0.2431016505175243
-0.24925612268253405
-0.24925612268253405
-0.2554105948475438
-0.24925612268253405
-0.24925612268253405
-0.2431016505175243
-0.24925612268253405
-0.24925612268253405
-0.24925612268253405
-0.24925612268253405
-0.2554105948475438
-0.24925612268253405
-0.2554105948475438
-0.26156506701252585
-0.26771953917753555
-0.26156506701252585
-0.26771953917753555
-0.26771953917753555
-0.26156506701252585
-0.26156506701252585
-0.26771953917753555
-0.26771953917753555
-0.2554105948475438
-0.26156506701252585
-0.26156506701252585
-0.26156506701252585
-0.2554105948475438
-0.26771953917753555
-0.26771953917753555
-0.2554105948475438
-0.2554105948475438
-0.2554105948475438
-0.26156506701252585
-0.2554105948475438
-0.26156506701252585
-0.26771953917753555
-0.26156506701252585
-0.26156506701252585
-0.26771953917753555
-0.26771953917753555
-0.26771953917753555
-0.26156506701252585
-0.26156506701252585
-0.26771953917753555
-0.26771953917753555
-0.2738740113425453
-0.26156506701252585
-0.26771953917753555
-0.26156506701252585
-0.26156506701252585
-0.26156506701252585
-0.26771953917753555
-0.26771953917753555
-0.26156506701252585
-0.26156506701252585
-0.26771953917753555
-0.2738740113425453
-0.29233742783754685
-0.26156506701252585
-0.26771953917753555
-0.2800284835075273
-0.2738740113425453
-0.2738740113425453
-0.2738740113425453
-0.26156506701252585
-0.26156506701252585
-0.26156506701252585
-0.26771953917753555
-0.26156506701252585
-0.26771953917753555
-0.26771953917753555
-0.26771953917753555
-0.26771953917753555
-0.26156506701252585
-0.26156506701252585
-0.26771953917753555
-0.26156506701252585
-0.26156506701252585
-0.26156506701252585
-0.2554105948475438
-0.26156506701252585
-0.2554105948475438
-0.2554105948475438
-0.26156506701252585
-0.26771953917753555
-0.26156506701252585
-0.26156506701252585
-0.26156506701252585
-0.26771953917753555
-0.26771953917753555
-0.26771953917753555
-0.26771953917753555
-0.26771953917753555
-0.26156506701252585
-0.26771953917753555
-0.26156506701252585
-0.2554105948475438
-0.26771953917753555
-0.26156506701252585
-0.26771953917753555
-0.2554105948475438
-0.26156506701252585
-0.26156506701252585
-0.26156506701252585
-0.26156506701252585
-0.2554105948475438
-0.26156506701252585
-0.2554105948475438
-0.2554105948475438
-0.26156506701252585
-0.26156506701252585
-0.2554105948475438
-0.2554105948475438
-0.2554105948475438
-0.26156506701252585
-0.26156506701252585
-0.26156506701252585
-0.26771953917753555
-0.26156506701252585
-0.26771953917753555
-0.26771953917753555
-0.2554105948475438
-0.26156506701252585
-0.2554105948475438
-0.2554105948475438
-0.2554105948475438
-0.26156506701252585
-0.26771953917753555
-0.26156506701252585
-0.26771953917753555
-0.26156506701252585
-0.26156506701252585
-0.26156506701252585
-0.26156506701252585
-0.2554105948475438
-0.26771953917753555
-0.26771953917753555
-0.26771953917753555
-0.26156506701252585
-0.26771953917753555
-0.2554105948475438
-0.26156506701252585
-0.26156506701252585
-0.2554105948475438
-0.26156506701252585
-0.26156506701252585
-0.26771953917753555
-0.26156506701252585
-0.26156506701252585
-0.26156506701252585
-0.2554105948475438
-0.2554105948475438
-0.2554105948475438
-0.2554105948475438
-0.24925612268253405
-0.26156506701252585
-0.2554105948475438
-0.2554105948475438
-0.26771953917753555
-0.26156506701252585
-0.26156506701252585
-0.26156506701252585
-0.26771953917753555
-0.26156506701252585
-0.26771953917753555
-0.26156506701252585
-0.26156506701252585
-0.26156506701252585
-0.26771953917753555
-0.28618295567253704
-0.29233742783754685
-0.31695531649755804
-0.28618295567253704
-0.24925612268253405
-0.2061748175275213
-0.18155692886753785
-0.15078456804251686
-0.14463009587750708
-0.2061748175275213
-0.29233742783754685
-0.30464637216753854
-0.3292642608275498
-0.3354187329925596
-0.3415732051575415
-0.3292642608275498
-0.3108008443325483
-0.2984919000025288
-0.2984919000025288
-0.28618295567253704
-0.28618295567253704
-0.2800284835075273
-0.2738740113425453
-0.2738740113425453
-0.26771953917753555
-0.26156506701252585
-0.26771953917753555
-0.26156506701252585
-0.26771953917753555
-0.26156506701252585
-0.26771953917753555
-0.26156506701252585
-0.26156506701252585
-0.26771953917753555
-0.2554105948475438
-0.2554105948475438
-0.26156506701252585
-0.26156506701252585
-0.2554105948475438
-0.24925612268253405
-0.2554105948475438
-0.2554105948475438
-0.26156506701252585
-0.24925612268253405
-0.24925612268253405
-0.24925612268253405
-0.2554105948475438
-0.24925612268253405
-0.24925612268253405
-0.2431016505175243
-0.2431016505175243
-0.24925612268253405
-0.24925612268253405
-0.2431016505175243
-0.24925612268253405
-0.2554105948475438
-0.2554105948475438
-0.24925612268253405
-0.24925612268253405
-0.24925612268253405
-0.2554105948475438
-0.24925612268253405
-0.26156506701252585
-0.26156506701252585
-0.26156506701252585
-0.2554105948475438
-0.2554105948475438
-0.2554105948475438
-0.26156506701252585
-0.26156506701252585
-0.2554105948475438
-0.2554105948475438
-0.2554105948475438
-0.2554105948475438
-0.2554105948475438
-0.2554105948475438
-0.2554105948475438
-0.2554105948475438
-0.26156506701252585
-0.2554105948475438
-0.2554105948475438
-0.2554105948475438
-0.26156506701252585
-0.26771953917753555
-0.26771953917753555
-0.26771953917753555
-0.26771953917753555
-0.2738740113425453
-0.26771953917753555
-0.2800284835075273
-0.2738740113425453
-0.2738740113425453
-0.2738740113425453
-0.2738740113425453
-0.2800284835075273
-0.2738740113425453
-0.2800284835075273
-0.2738740113425453
-0.2800284835075273
-0.2800284835075273
-0.2738740113425453
-0.2738740113425453
-0.2738740113425453
-0.26771953917753555
-0.26771953917753555
-0.26771953917753555
-0.2800284835075273
-0.2800284835075273
-0.2738740113425453
-0.2738740113425453
-0.2738740113425453
-0.2800284835075273
-0.2738740113425453
-0.2800284835075273
-0.28618295567253704
-0.2800284835075273
-0.2800284835075273
-0.2800284835075273
-0.2800284835075273
-0.28618295567253704
-0.28618295567253704
-0.28618295567253704
-0.2800284835075273
-0.2800284835075273
-0.2800284835075273
-0.28618295567253704
-0.28618295567253704
-0.2800284835075273
-0.2800284835075273
-0.2800284835075273
-0.2800284835075273
-0.28618295567253704
-0.3108008443325483
-0.28618295567253704
-0.2738740113425453
-0.2738740113425453
-0.2800284835075273
-0.2738740113425453
-0.29233742783754685
-0.29233742783754685
-0.28618295567253704
-0.2800284835075273
-0.2800284835075273
-0.28618295567253704
-0.2800284835075273
-0.28618295567253704
-0.2800284835075273
-0.2738740113425453
-0.2738740113425453
-0.2800284835075273
-0.2800284835075273
-0.2800284835075273
-0.2800284835075273
-0.2800284835075273
-0.28618295567253704
-0.28618295567253704
-0.28618295567253704
-0.2800284835075273
-0.28618295567253704
-0.28618295567253704
-0.2800284835075273
-0.2800284835075273
-0.29233742783754685
-0.28618295567253704
-0.28618295567253704
-0.2800284835075273
-0.2800284835075273
-0.28618295567253704
-0.2800284835075273
-0.2800284835075273
-0.2800284835075273
-0.2800284835075273
-0.2800284835075273
-0.28618295567253704
-0.2800284835075273
-0.2800284835075273
-0.28618295567253704
-0.29233742783754685
-0.29233742783754685
-0.28618295567253704
-0.2800284835075273
-0.28618295567253704
-0.2800284835075273
-0.2800284835075273
-0.2800284835075273
-0.28618295567253704
-0.29233742783754685
-0.28618295567253704
-0.29233742783754685
-0.28618295567253704
-0.2800284835075273
-0.29233742783754685
-0.29233742783754685
-0.28618295567253704
-0.29233742783754685
-0.29233742783754685
-0.28618295567253704
-0.29233742783754685
-0.29233742783754685
-0.29233742783754685
-0.29233742783754685
-0.28618295567253704
-0.28618295567253704
-0.2800284835075273
-0.28618295567253704
-0.29233742783754685
-0.28618295567253704
-0.29233742783754685
-0.2800284835075273
-0.2800284835075273
-0.28618295567253704
-0.29233742783754685
-0.28618295567253704
-0.29233742783754685
-0.2984919000025288
-0.28618295567253704
-0.29233742783754685
-0.29233742783754685
-0.2984919000025288
-0.29233742783754685
-0.28618295567253704
-0.28618295567253704
-0.2800284835075273
-0.2800284835075273
-0.29233742783754685
-0.2984919000025288
-0.3108008443325483
-0.31695531649755804
-0.31695531649755804
-0.30464637216753854
-0.2800284835075273
-0.2431016505175243
-0.21232928969253104
-0.17540245670252808
-0.18771140103251985
-0.23694717835254234
-0.29233742783754685
-0.3415732051575415
-0.36619109381755277
-0.3723455659825625
-0.36619109381755277
-0.360036621652543
-0.3415732051575415
-0.32310978866254003
-0.31695531649755804
-0.31695531649755804
-0.30464637216753854
-0.30464637216753854
-0.30464637216753854
-0.30464637216753854
-0.30464637216753854
-0.30464637216753854
-0.30464637216753854
-0.30464637216753854
-0.3292642608275498
-0.29233742783754685
-0.29233742783754685
-0.30464637216753854
-0.31695531649755804
-0.30464637216753854
-0.3108008443325483
-0.2984919000025288
-0.30464637216753854
-0.29233742783754685
-0.29233742783754685
-0.2984919000025288
-0.29233742783754685
-0.29233742783754685
-0.2984919000025288
-0.2984919000025288
-0.2984919000025288
-0.2984919000025288
-0.29233742783754685
-0.29233742783754685
-0.29233742783754685
-0.29233742783754685
-0.29233742783754685
-0.29233742783754685
-0.28618295567253704
-0.29233742783754685
-0.28618295567253704
-0.29233742783754685
-0.29233742783754685
-0.29233742783754685
-0.29233742783754685
-0.29233742783754685
-0.29233742783754685
-0.28618295567253704
-0.28618295567253704
-0.28618295567253704
-0.29233742783754685
-0.28618295567253704
-0.29233742783754685
-0.29233742783754685
-0.29233742783754685
-0.28618295567253704
-0.29233742783754685
-0.28618295567253704
-0.28618295567253704
-0.29233742783754685
-0.29233742783754685
-0.28618295567253704
-0.28618295567253704
-0.2800284835075273
-0.28618295567253704
-0.28618295567253704
-0.29233742783754685
-0.28618295567253704
-0.29233742783754685
-0.29233742783754685
-0.28618295567253704
-0.29233742783754685
-0.29233742783754685
-0.28618295567253704
-0.2984919000025288
-0.29233742783754685
-0.29233742783754685
-0.29233742783754685
-0.29233742783754685
-0.2984919000025288
-0.30464637216753854
-0.30464637216753854
-0.3292642608275498
-0.2984919000025288
-0.29233742783754685
-0.29233742783754685
-0.2984919000025288
-0.29233742783754685
-0.2984919000025288
-0.2984919000025288
-0.30464637216753854
-0.2984919000025288
-0.30464637216753854
-0.29233742783754685
-0.29233742783754685
-0.2984919000025288
-0.2984919000025288
-0.29233742783754685
-0.2984919000025288
-0.2984919000025288
-0.2984919000025288
-0.29233742783754685
-0.2984919000025288
-0.29233742783754685
-0.2984919000025288
-0.28618295567253704
-0.2984919000025288
-0.30464637216753854
-0.2984919000025288
-0.2984919000025288
-0.29233742783754685
-0.28618295567253704
-0.29233742783754685
-0.29233742783754685
-0.28618295567253704
-0.2984919000025288
-0.29233742783754685
-0.2984919000025288
-0.2984919000025288
-0.2984919000025288
-0.29233742783754685
-0.29233742783754685
-0.28618295567253704
-0.2984919000025288
-0.29233742783754685
-0.29233742783754685
-0.2984919000025288
-0.29233742783754685
-0.2984919000025288
-0.29233742783754685
-0.2984919000025288
-0.29233742783754685
-0.2984919000025288
-0.29233742783754685
-0.29233742783754685
-0.30464637216753854
-0.32310978866254003
-0.30464637216753854
-0.30464637216753854
-0.30464637216753854
-0.2984919000025288
-0.2984919000025288
-0.2984919000025288
-0.2984919000025288
-0.2984919000025288
-0.2984919000025288
-0.29233742783754685
-0.29233742783754685
-0.2984919000025288
-0.2984919000025288
-0.2984919000025288
-0.2984919000025288
-0.2984919000025288
-0.2984919000025288
-0.30464637216753854
-0.2984919000025288
-0.30464637216753854
-0.2984919000025288
-0.30464637216753854
-0.30464637216753854
-0.2984919000025288
-0.3108008443325483
-0.2984919000025288
-0.3108008443325483
-0.30464637216753854
-0.30464637216753854
-0.30464637216753854
-0.30464637216753854
-0.30464637216753854
-0.30464637216753854
-0.3108008443325483
-0.30464637216753854
-0.3108008443325483
-0.3108008443325483
-0.30464637216753854
-0.29233742783754685
-0.30464637216753854
-0.30464637216753854
-0.30464637216753854
-0.3108008443325483
-0.3108008443325483
-0.30464637216753854
-0.30464637216753854
-0.30464637216753854
-0.3108008443325483
-0.3108008443325483
-0.3108008443325483
-0.3108008443325483
-0.31695531649755804
-0.31695531649755804
-0.31695531649755804
-0.31695531649755804
-0.32310978866254003
-0.31695531649755804
-0.31695531649755804
-0.31695531649755804
-0.3108008443325483
-0.32310978866254003
-0.32310978866254003
-0.3354187329925596
-0.34772767732255133
-0.3415732051575415
-0.3354187329925596
-0.30464637216753854
-0.26156506701252585
-0.23079270618753256
-0.1938658731975296
-0.18771140103251985
-0.23694717835254234
-0.30464637216753854
-0.35388214948756097
-0.390808982477564
-0.396963454642546
-0.390808982477564
-0.37850003814754446
-0.36619109381755277
-0.3415732051575415
-0.3292642608275498
-0.32310978866254003
-0.3108008443325483
-0.31695531649755804
-0.3108008443325483
-0.31695531649755804
-0.31695531649755804
-0.3108008443325483
-0.3108008443325483
-0.30464637216753854
-0.30464637216753854
-0.30464637216753854
-0.3108008443325483
-0.30464637216753854
-0.30464637216753854
-0.30464637216753854
-0.3108008443325483
-0.3108008443325483
-0.30464637216753854
-0.2984919000025288
-0.30464637216753854
-0.2984919000025288
-0.2984919000025288
-0.2984919000025288
-0.2984919000025288
-0.30464637216753854
-0.2984919000025288
-0.30464637216753854
-0.30464637216753854
-0.2984919000025288
-0.30464637216753854
-0.2984919000025288
-0.30464637216753854
-0.2984919000025288
-0.30464637216753854
-0.30464637216753854
-0.2984919000025288
-0.2984919000025288
-0.2984919000025288
-0.30464637216753854
-0.30464637216753854
-0.32310978866254003
-0.2984919000025288
-0.29233742783754685
-0.2984919000025288
-0.2984919000025288
-0.2984919000025288
-0.2984919000025288
-0.3108008443325483
-0.31695531649755804
-0.30464637216753854
-0.3108008443325483
-0.2984919000025288
-0.30464637216753854
-0.30464637216753854
-0.30464637216753854
-0.29233742783754685
-0.2984919000025288
-0.29233742783754685
-0.29233742783754685
-0.2984919000025288
-0.29233742783754685
-0.2984919000025288
-0.30464637216753854
-0.2984919000025288
-0.30464637216753854
-0.3108008443325483
-0.30464637216753854
-0.2984919000025288
-0.3108008443325483
-0.30464637216753854
-0.30464637216753854
-0.3108008443325483
-0.3108008443325483
-0.30464637216753854
-0.30464637216753854
-0.3108008443325483
-0.30464637216753854
-0.3108008443325483
-0.30464637216753854
-0.3108008443325483
-0.30464637216753854
-0.30464637216753854
-0.3108008443325483
-0.30464637216753854
-0.30464637216753854
-0.3108008443325483
-0.30464637216753854
-0.30464637216753854
-0.30464637216753854
-0.3108008443325483
-0.30464637216753854
-0.3108008443325483
-0.30464637216753854
-0.3108008443325483
-0.31695531649755804
-0.31695531649755804
-0.3108008443325483
-0.31695531649755804
-0.3108008443325483
-0.3108008443325483
-0.3108008443325483
-0.30464637216753854
-0.30464637216753854
-0.31695531649755804
-0.3108008443325483
-0.3108008443325483
-0.30464637216753854
-0.3108008443325483
-0.30464637216753854
-0.30464637216753854
-0.30464637216753854
-0.3108008443325483
-0.30464637216753854
-0.3108008443325483
-0.30464637216753854
-0.3108008443325483
-0.30464637216753854
-0.30464637216753854
-0.30464637216753854
-0.30464637216753854
-0.3108008443325483
-0.30464637216753854
-0.30464637216753854
-0.3108008443325483
-0.30464637216753854
-0.30464637216753854
-0.30464637216753854
-0.30464637216753854
-0.30464637216753854
-0.3108008443325483
-0.3108008443325483
-0.3108008443325483
-0.30464637216753854
-0.30464637216753854
-0.31695531649755804
-0.3108008443325483
-0.3108008443325483
-0.3108008443325483
-0.3108008443325483
-0.31695531649755804
-0.3108008443325483
-0.3108008443325483
-0.31695531649755804
-0.3108008443325483
-0.3108008443325483
-0.3108008443325483
-0.31695531649755804
-0.30464637216753854
-0.30464637216753854
-0.3108008443325483
-0.2984919000025288
-0.30464637216753854
-0.3108008443325483
-0.3108008443325483
-0.3108008443325483
-0.30464637216753854
-0.30464637216753854
-0.30464637216753854
-0.30464637216753854
-0.3108008443325483
-0.3108008443325483
-0.31695531649755804
-0.3292642608275498
-0.30464637216753854
-0.29233742783754685
-0.2984919000025288
-0.30464637216753854
-0.3108008443325483
-0.3108008443325483
-0.30464637216753854
-0.2984919000025288
-0.2984919000025288
-0.2984919000025288
-0.30464637216753854
-0.30464637216753854
-0.2984919000025288
-0.3108008443325483
-0.30464637216753854
-0.30464637216753854
-0.3108008443325483
-0.3108008443325483
-0.30464637216753854
-0.30464637216753854
-0.3292642608275498
-0.3415732051575415
-0.2984919000025288
-0.30464637216753854
-0.2984919000025288
-0.29233742783754685
-0.28618295567253704
-0.2984919000025288
-0.2984919000025288
-0.3108008443325483
-0.2984919000025288
-0.2984919000025288
-0.2984919000025288
-0.2984919000025288
-0.29233742783754685
-0.2984919000025288
-0.29233742783754685
-0.2984919000025288
-0.30464637216753854
-0.2984919000025288
-0.2984919000025288
-0.2984919000025288
-0.2984919000025288
-0.29233742783754685
-0.29233742783754685
-0.29233742783754685
-0.29233742783754685
-0.2984919000025288
-0.30464637216753854
-0.32310978866254003
-0.32310978866254003
-0.3108008443325483
-0.28618295567253704
-0.2554105948475438
-0.2184837618575408
-0.18155692886753785
-0.18155692886753785
-0.2246382340225228
-0.2800284835075273
-0.3292642608275498
-0.360036621652543
-0.3723455659825625
-0.3723455659825625
-0.360036621652543
-0.3354187329925596
-0.32310978866254003
-0.3108008443325483
-0.30464637216753854
-0.2984919000025288
-0.29233742783754685
-0.29233742783754685
-0.29233742783754685
-0.2984919000025288
-0.2984919000025288
-0.29233742783754685
-0.29233742783754685
-0.29233742783754685
-0.29233742783754685
-0.29233742783754685
-0.28618295567253704
-0.29233742783754685
-0.29233742783754685
-0.29233742783754685
-0.28618295567253704
-0.29233742783754685
-0.28618295567253704
-0.28618295567253704
-0.28618295567253704
-0.28618295567253704
-0.28618295567253704
-0.28618295567253704
-0.28618295567253704
-0.2800284835075273
-0.2800284835075273
-0.28618295567253704
-0.2800284835075273
-0.26771953917753555
-0.2738740113425453
-0.26771953917753555
-0.26771953917753555
-0.2800284835075273
-0.2800284835075273
-0.2800284835075273
-0.2800284835075273
-0.2800284835075273
-0.2800284835075273
-0.28618295567253704
-0.28618295567253704
-0.2800284835075273
-0.2800284835075273
-0.2800284835075273
-0.28618295567253704
-0.29233742783754685
-0.28618295567253704
-0.28618295567253704
-0.2800284835075273
-0.2800284835075273
-0.28618295567253704
-0.2800284835075273
-0.2800284835075273
-0.28618295567253704
-0.30464637216753854
-0.26771953917753555
-0.26771953917753555
-0.2800284835075273
-0.2800284835075273
-0.2738740113425453
-0.2738740113425453
-0.2800284835075273
-0.28618295567253704
-0.2800284835075273
-0.2800284835075273
-0.2800284835075273
-0.28618295567253704
-0.28618295567253704
-0.28618295567253704
-0.28618295567253704
-0.29233742783754685
-0.29233742783754685
-0.2984919000025288
-0.2984919000025288
-0.2984919000025288
-0.2984919000025288
-0.2984919000025288
-0.28618295567253704
-0.28618295567253704
-0.28618295567253704
-0.29233742783754685
-0.29233742783754685
-0.29233742783754685
-0.29233742783754685
-0.29233742783754685
-0.29233742783754685
-0.29233742783754685
-0.29233742783754685
-0.28618295567253704
-0.2800284835075273
-0.29233742783754685
-0.29233742783754685
-0.29233742783754685
-0.29233742783754685
-0.28618295567253704
-0.29233742783754685
-0.28618295567253704
-0.28618295567253704
-0.29233742783754685
-0.28618295567253704
-0.29233742783754685
-0.28618295567253704
-0.29233742783754685
-0.28618295567253704
-0.28618295567253704
-0.28618295567253704
-0.28618295567253704
-0.28618295567253704
-0.29233742783754685
-0.29233742783754685
-0.29233742783754685
-0.2800284835075273
-0.28618295567253704
-0.28618295567253704
-0.28618295567253704
-0.28618295567253704
-0.28618295567253704
-0.29233742783754685
-0.29233742783754685
-0.2800284835075273
-0.2800284835075273
-0.29233742783754685
-0.28618295567253704
-0.2800284835075273
-0.2800284835075273
-0.2800284835075273
-0.2800284835075273
-0.28618295567253704
-0.2800284835075273
-0.28618295567253704
-0.2800284835075273
-0.2800284835075273
-0.2800284835075273
-0.2800284835075273
-0.2800284835075273
-0.2800284835075273
-0.28618295567253704
-0.28618295567253704
-0.2800284835075273
-0.2738740113425453
-0.2738740113425453
-0.2800284835075273
-0.2738740113425453
-0.2800284835075273
-0.2800284835075273
-0.2738740113425453
-0.26771953917753555
-0.2738740113425453
-0.2738740113425453
-0.2738740113425453
-0.2738740113425453
-0.26156506701252585
-0.26771953917753555
-0.26156506701252585
-0.26156506701252585
-0.26156506701252585
-0.26771953917753555
-0.2554105948475438
-0.26156506701252585
-0.2554105948475438
-0.26156506701252585
-0.26156506701252585
-0.26156506701252585
-0.26156506701252585
-0.26156506701252585
-0.2554105948475438
-0.2554105948475438
-0.2554105948475438
-0.2554105948475438
-0.26156506701252585
-0.2554105948475438
-0.2554105948475438
-0.26156506701252585
-0.26156506701252585
-0.2554105948475438
-0.26156506701252585
-0.2738740113425453
-0.26156506701252585
-0.26156506701252585
-0.2554105948475438
-0.24925612268253405
-0.24925612268253405
-0.2554105948475438
-0.24925612268253405
-0.24925612268253405
-0.24925612268253405
-0.24925612268253405
-0.2554105948475438
-0.24925612268253405
-0.2554105948475438
-0.24925612268253405
-0.2554105948475438
-0.24925612268253405
-0.2431016505175243
-0.2431016505175243
-0.2554105948475438
-0.24925612268253405
-0.24925612268253405
-0.24925612268253405
-0.24925612268253405
-0.2431016505175243
-0.24925612268253405
-0.24925612268253405
-0.2431016505175243
-0.2431016505175243
-0.24925612268253405
-0.2431016505175243
-0.24925612268253405
-0.24925612268253405
-0.24925612268253405
-0.2431016505175243
-0.2431016505175243
-0.2431016505175243
-0.24925612268253405
-0.24925612268253405
-0.2431016505175243
-0.2554105948475438
-0.2554105948475438
-0.26156506701252585
-0.2738740113425453
-0.2738740113425453
-0.26771953917753555
-0.2431016505175243
-0.21232928969253104
-0.18155692886753785
-0.17540245670252808
-0.17540245670252808
-0.21232928969253104
-0.26771953917753555
-0.2984919000025288
-0.3354187329925596
-0.3354187329925596
-0.3415732051575415
-0.3354187329925596
-0.3108008443325483
-0.29233742783754685
-0.29233742783754685
-0.2800284835075273
-0.26771953917753555
-0.2738740113425453
-0.26156506701252585
-0.24925612268253405
-0.2554105948475438
-0.2554105948475438
-0.24925612268253405
-0.2554105948475438
-0.2554105948475438
-0.2554105948475438
-0.2554105948475438
-0.26156506701252585
-0.2554105948475438
-0.26156506701252585
-0.26156506701252585
-0.26156506701252585
-0.26156506701252585
-0.26156506701252585
-0.24925612268253405
-0.26156506701252585
-0.26156506701252585
-0.26156506701252585
-0.24925612268253405
-0.2554105948475438
-0.2554105948475438
-0.26156506701252585
-0.2554105948475438
-0.26156506701252585
-0.2554105948475438
-0.2554105948475438
-0.26156506701252585
-0.26156506701252585
-0.26156506701252585
-0.2554105948475438
-0.26771953917753555
-0.29233742783754685
-0.26156506701252585
-0.2554105948475438
-0.2554105948475438
-0.24925612268253405
-0.24925612268253405
-0.2554105948475438
-0.2554105948475438
-0.26771953917753555
-0.2738740113425453
-0.26156506701252585
-0.26156506701252585
-0.26156506701252585
-0.26156506701252585
-0.26156506701252585
-0.26156506701252585
-0.26771953917753555
-0.26156506701252585
-0.26156506701252585
-0.2554105948475438
-0.26156506701252585
-0.2554105948475438
-0.2554105948475438
-0.2554105948475438
-0.26156506701252585
-0.2800284835075273
-0.26156506701252585
-0.2554105948475438
-0.26771953917753555
-0.26771953917753555
-0.2738740113425453
-0.2738740113425453
-0.2800284835075273
-0.28618295567253704
-0.2800284835075273
-0.2738740113425453
-0.2800284835075273
-0.2800284835075273
-0.2738740113425453
-0.2800284835075273
-0.28618295567253704
-0.2800284835075273
-0.2800284835075273
-0.28618295567253704
-0.2738740113425453
-0.2800284835075273
-0.2800284835075273
-0.2738740113425453
-0.2800284835075273
-0.2800284835075273
-0.2738740113425453
-0.2800284835075273
-0.2738740113425453
-0.2800284835075273
-0.2738740113425453
-0.2800284835075273
-0.2800284835075273
-0.26771953917753555
-0.2738740113425453
-0.2800284835075273
-0.2738740113425453
-0.2800284835075273
-0.2738740113425453
-0.2738740113425453
-0.28618295567253704
-0.2800284835075273
-0.2738740113425453
-0.28618295567253704
-0.28618295567253704
-0.2738740113425453
-0.28618295567253704
-0.2800284835075273
-0.28618295567253704
-0.28618295567253704
-0.29233742783754685
-0.2800284835075273
-0.2800284835075273
-0.2800284835075273
-0.28618295567253704
-0.28618295567253704
-0.2800284835075273
-0.28618295567253704
-0.2800284835075273
-0.2800284835075273
-0.2800284835075273
-0.28618295567253704
-0.2800284835075273
-0.28618295567253704
-0.29233742783754685
-0.28618295567253704
-0.29233742783754685
-0.28618295567253704
-0.28618295567253704
-0.29233742783754685
-0.28618295567253704
-0.29233742783754685
-0.29233742783754685
-0.28618295567253704
-0.29233742783754685
-0.2984919000025288
-0.2984919000025288
-0.28618295567253704
-0.28618295567253704
-0.29233742783754685
-0.29233742783754685
-0.2984919000025288
-0.28618295567253704
-0.29233742783754685
-0.29233742783754685
-0.2984919000025288
-0.2984919000025288
-0.2984919000025288
-0.29233742783754685
-0.2984919000025288
-0.2984919000025288
-0.2984919000025288
-0.2984919000025288
-0.2984919000025288
-0.29233742783754685
-0.30464637216753854
-0.2984919000025288
-0.29233742783754685
-0.2984919000025288
-0.29233742783754685
-0.2984919000025288
-0.2984919000025288
-0.2984919000025288
-0.2984919000025288
-0.2984919000025288
-0.30464637216753854
-0.30464637216753854
-0.2984919000025288
-0.30464637216753854
-0.2984919000025288
-0.2984919000025288
-0.2984919000025288
-0.30464637216753854
-0.30464637216753854
-0.30464637216753854
-0.2984919000025288
-0.2984919000025288
-0.2984919000025288
-0.29233742783754685
-0.2984919000025288
-0.29233742783754685
-0.29233742783754685
-0.3108008443325483
-0.31695531649755804
-0.2984919000025288
-0.2984919000025288
-0.29233742783754685
-0.2984919000025288
-0.31695531649755804
-0.30464637216753854
-0.30464637216753854
-0.3108008443325483
-0.2984919000025288
-0.30464637216753854
-0.30464637216753854
-0.30464637216753854
-0.2984919000025288
-0.30464637216753854
-0.30464637216753854
-0.2984919000025288
-0.29233742783754685
-0.2984919000025288
-0.29233742783754685
-0.29233742783754685
-0.29233742783754685
-0.2984919000025288
-0.2984919000025288
-0.29233742783754685
-0.28618295567253704
-0.29233742783754685
-0.29233742783754685
-0.2984919000025288
-0.30464637216753854
-0.2984919000025288
-0.2984919000025288
-0.29233742783754685
-0.2984919000025288
-0.2984919000025288
-0.30464637216753854
-0.2984919000025288
-0.30464637216753854
-0.30464637216753854
-0.2984919000025288
-0.30464637216753854
-0.3108008443325483
-0.31695531649755804
-0.32310978866254003
-0.3354187329925596
-0.3292642608275498
-0.30464637216753854
-0.2738740113425453
-0.23694717835254234
-0.2061748175275213
-0.18155692886753785
-0.21232928969253104
-0.26771953917753555
-0.31695531649755804
-0.35388214948756097
-0.37850003814754446
-0.3723455659825625
-0.3723455659825625
-0.34772767732255133
-0.3415732051575415
-0.3292642608275498
-0.31695531649755804
-0.3108008443325483
-0.3108008443325483
-0.30464637216753854
-0.30464637216753854
-0.2984919000025288
-0.2984919000025288
-0.30464637216753854
-0.30464637216753854
-0.29233742783754685
-0.2984919000025288
-0.2984919000025288
-0.2984919000025288
-0.2984919000025288
-0.29233742783754685
-0.2984919000025288
-0.29233742783754685
-0.29233742783754685
-0.29233742783754685
-0.29233742783754685
-0.29233742783754685
-0.2984919000025288
-0.29233742783754685
-0.2984919000025288
-0.29233742783754685
-0.29233742783754685
-0.29233742783754685
-0.29233742783754685
-0.29233742783754685
-0.28618295567253704
-0.28618295567253704
-0.29233742783754685
-0.29233742783754685
-0.29233742783754685
-0.28618295567253704
-0.29233742783754685
-0.29233742783754685
-0.29233742783754685
-0.29233742783754685
-0.2984919000025288
-0.2984919000025288
-0.2984919000025288
-0.2984919000025288
-0.30464637216753854
-0.30464637216753854
-0.2984919000025288
-0.2984919000025288
-0.2984919000025288
-0.29233742783754685
-0.2984919000025288
-0.30464637216753854
-0.30464637216753854
-0.2984919000025288
-0.30464637216753854
-0.30464637216753854
-0.2984919000025288
-0.2984919000025288
-0.30464637216753854
-0.2984919000025288
-0.30464637216753854
-0.31695531649755804
-0.3354187329925596
-0.2984919000025288
-0.2984919000025288
-0.3108008443325483
-0.30464637216753854
-0.30464637216753854
-0.3108008443325483
-0.30464637216753854
-0.3108008443325483
-0.3108008443325483
-0.3108008443325483
-0.3108008443325483
-0.3108008443325483
-0.30464637216753854
-0.2984919000025288
-0.2984919000025288
-0.3108008443325483
-0.3108008443325483
-0.3108008443325483
-0.31695531649755804
-0.3108008443325483
-0.3108008443325483
-0.31695531649755804
-0.3108008443325483
-0.30464637216753854
-0.30464637216753854
-0.30464637216753854
-0.3108008443325483
-0.30464637216753854
-0.3108008443325483
-0.3108008443325483
-0.3108008443325483
-0.3108008443325483
-0.30464637216753854
-0.30464637216753854
-0.30464637216753854
-0.2984919000025288
-0.30464637216753854
-0.2984919000025288
-0.30464637216753854
-0.30464637216753854
-0.30464637216753854
-0.3108008443325483
-0.3108008443325483
-0.2984919000025288
-0.30464637216753854
-0.2984919000025288
-0.30464637216753854
-0.2984919000025288
-0.2984919000025288
-0.3108008443325483
-0.3292642608275498
-0.29233742783754685
-0.29233742783754685
-0.2984919000025288
-0.29233742783754685
-0.2984919000025288
-0.29233742783754685
-0.2984919000025288
-0.3108008443325483
-0.3108008443325483
-0.30464637216753854
-0.30464637216753854
-0.30464637216753854
-0.2984919000025288
-0.2984919000025288
-0.30464637216753854
-0.30464637216753854
-0.2984919000025288
-0.2984919000025288
-0.2984919000025288
-0.2984919000025288
-0.2984919000025288
-0.30464637216753854
-0.30464637216753854
-0.3108008443325483
-0.3108008443325483
-0.30464637216753854
-0.2984919000025288
-0.30464637216753854
-0.2984919000025288
-0.2984919000025288
-0.2984919000025288
-0.2984919000025288
-0.2984919000025288
-0.30464637216753854
-0.30464637216753854
-0.2984919000025288
-0.2984919000025288
-0.2984919000025288
-0.30464637216753854
-0.2984919000025288
-0.30464637216753854
-0.30464637216753854
-0.2984919000025288
-0.30464637216753854
-0.2984919000025288
-0.2984919000025288
-0.2984919000025288
-0.2984919000025288
-0.2984919000025288
-0.29233742783754685
-0.2984919000025288
-0.2984919000025288
-0.29233742783754685
-0.29233742783754685
-0.2984919000025288
-0.29233742783754685
-0.29233742783754685
-0.29233742783754685
-0.2984919000025288
-0.29233742783754685
-0.29233742783754685
-0.29233742783754685
-0.2984919000025288
-0.28618295567253704
-0.28618295567253704
-0.28618295567253704
-0.29233742783754685
-0.29233742783754685
-0.29233742783754685
-0.2984919000025288
-0.31695531649755804
-0.2984919000025288
-0.2984919000025288
-0.29233742783754685
-0.29233742783754685
-0.29233742783754685
-0.29233742783754685
-0.29233742783754685
-0.29233742783754685
-0.28618295567253704
-0.28618295567253704
-0.29233742783754685
-0.29233742783754685
-0.28618295567253704
-0.28618295567253704
-0.29233742783754685
-0.29233742783754685
-0.28618295567253704
-0.28618295567253704
-0.29233742783754685
-0.28618295567253704
-0.28618295567253704
-0.28618295567253704
-0.28618295567253704
-0.29233742783754685
-0.29233742783754685
-0.29233742783754685
-0.2738740113425453
-0.2738740113425453
-0.26771953917753555
-0.26771953917753555
-0.2738740113425453
-0.2800284835075273
-0.2738740113425453
-0.2800284835075273
-0.2800284835075273
-0.2800284835075273
-0.2800284835075273
-0.2800284835075273
-0.28618295567253704
-0.28618295567253704
-0.2800284835075273
-0.29233742783754685
-0.28618295567253704
-0.28618295567253704
-0.29233742783754685
-0.29233742783754685
-0.28618295567253704
-0.28618295567253704
-0.29233742783754685
-0.29233742783754685
-0.2984919000025288
-0.31695531649755804
-0.32310978866254003
-0.3108008443325483
-0.29233742783754685
-0.2554105948475438
-0.21232928969253104
-0.17540245670252808
-0.15078456804251686
-0.18155692886753785
-0.23694717835254234
-0.2984919000025288
-0.3415732051575415
-0.360036621652543
-0.360036621652543
-0.34772767732255133
-0.3354187329925596
-0.3292642608275498
-0.3108008443325483
-0.30464637216753854
-0.2984919000025288
-0.2984919000025288
-0.29233742783754685
-0.2984919000025288
-0.29233742783754685
-0.29233742783754685
-0.2984919000025288
-0.29233742783754685
-0.29233742783754685
-0.29233742783754685
-0.29233742783754685
-0.28618295567253704
-0.29233742783754685
-0.29233742783754685
-0.2984919000025288
-0.29233742783754685
-0.29233742783754685
-0.28618295567253704
-0.28618295567253704
-0.2800284835075273
-0.28618295567253704
-0.28618295567253704
-0.28618295567253704
-0.2800284835075273
-0.28618295567253704
-0.2800284835075273
-0.2800284835075273
-0.2800284835075273
-0.28618295567253704
-0.29233742783754685
-0.29233742783754685
-0.2984919000025288
-0.29233742783754685
-0.28618295567253704
-0.28618295567253704
-0.29233742783754685
-0.29233742783754685
-0.2984919000025288
-0.2984919000025288
-0.29233742783754685
-0.2984919000025288
-0.29233742783754685
-0.29233742783754685
-0.29233742783754685
-0.29233742783754685
-0.29233742783754685
-0.29233742783754685
-0.2984919000025288
-0.2984919000025288
-0.29233742783754685
-0.30464637216753854
-0.3292642608275498
-0.29233742783754685
-0.29233742783754685
-0.2984919000025288
-0.29233742783754685
-0.2984919000025288
-0.30464637216753854
-0.3108008443325483
-0.2984919000025288
-0.2984919000025288
-0.2984919000025288
-0.2984919000025288
-0.30464637216753854
-0.30464637216753854
-0.30464637216753854
-0.3108008443325483
-0.3108008443325483
-0.31695531649755804
-0.31695531649755804
-0.3108008443325483
-0.3108008443325483
-0.31695531649755804
-0.32310978866254003
-0.3292642608275498
-0.31695531649755804
-0.32310978866254003
-0.32310978866254003
-0.32310978866254003
-0.31695531649755804
-0.3292642608275498
-0.31695531649755804
-0.31695531649755804
-0.32310978866254003
-0.32310978866254003
-0.31695531649755804
-0.32310978866254003
-0.32310978866254003
-0.32310978866254003
-0.32310978866254003
-0.32310978866254003
-0.32310978866254003
-0.32310978866254003
-0.31695531649755804
-0.31695531649755804
-0.31695531649755804
-0.32310978866254003
-0.32310978866254003
-0.32310978866254003
-0.31695531649755804
-0.31695531649755804
-0.31695531649755804
-0.31695531649755804
-0.31695531649755804
-0.31695531649755804
-0.31695531649755804
-0.31695531649755804
-0.3108008443325483
-0.31695531649755804
-0.31695531649755804
-0.31695531649755804
-0.3108008443325483
-0.3108008443325483
-0.31695531649755804
-0.31695531649755804
-0.3108008443325483
-0.3108008443325483
-0.31695531649755804
-0.31695531649755804
-0.31695531649755804
-0.31695531649755804
-0.3108008443325483
-0.31695531649755804
-0.3108008443325483
-0.3108008443325483
-0.3108008443325483
-0.3108008443325483
-0.3108008443325483
-0.31695531649755804
-0.31695531649755804
-0.32310978866254003
-0.31695531649755804
-0.32310978866254003
-0.32310978866254003
-0.32310978866254003
-0.32310978866254003
-0.32310978866254003
-0.31695531649755804
-0.31695531649755804
-0.32310978866254003
-0.32310978866254003
-0.31695531649755804
-0.32310978866254003
-0.32310978866254003
-0.3292642608275498
-0.32310978866254003
-0.32310978866254003
-0.31695531649755804
-0.31695531649755804
-0.32310978866254003
-0.31695531649755804
-0.31695531649755804
-0.32310978866254003
-0.32310978866254003
-0.32310978866254003
-0.31695531649755804
-0.32310978866254003
-0.32310978866254003
-0.32310978866254003
-0.32310978866254003
-0.31695531649755804
-0.32310978866254003
-0.31695531649755804
-0.32310978866254003
-0.32310978866254003
-0.31695531649755804
-0.3108008443325483
-0.31695531649755804
-0.31695531649755804
-0.3108008443325483
-0.31695531649755804
-0.31695531649755804
-0.32310978866254003
-0.3415732051575415
-0.31695531649755804
-0.3108008443325483
-0.30464637216753854
-0.3415732051575415
-0.3415732051575415
-0.31695531649755804
-0.3108008443325483
-0.31695531649755804
-0.3108008443325483
-0.3108008443325483
-0.3108008443325483
-0.32310978866254003
-0.32310978866254003
-0.3292642608275498
-0.32310978866254003
-0.31695531649755804
-0.31695531649755804
-0.31695531649755804
-0.31695531649755804
-0.31695531649755804
-0.3108008443325483
-0.3108008443325483
-0.3108008443325483
-0.3108008443325483
-0.31695531649755804
-0.3108008443325483
-0.3108008443325483
-0.3108008443325483
-0.3108008443325483
-0.3108008443325483
-0.31695531649755804
-0.3108008443325483
-0.31695531649755804
-0.3108008443325483
-0.31695531649755804
-0.3292642608275498
-0.32310978866254003
-0.31695531649755804
-0.30464637216753854
-0.2984919000025288
-0.2984919000025288
-0.3108008443325483
-0.30464637216753854
-0.3108008443325483
-0.3108008443325483
-0.31695531649755804
-0.31695531649755804
-0.3108008443325483
-0.3108008443325483
-0.3108008443325483
-0.31695531649755804
-0.3108008443325483
-0.3108008443325483
-0.31695531649755804
-0.3108008443325483
-0.3108008443325483
-0.31695531649755804
-0.3292642608275498
-0.3415732051575415
-0.3415732051575415
-0.3292642608275498
-0.2984919000025288
-0.26771953917753555
-0.23079270618753256
-0.2000203453625393
-0.2061748175275213
-0.2554105948475438
-0.31695531649755804
-0.35388214948756097
-0.390808982477564
-0.396963454642546
-0.390808982477564
-0.36619109381755277
-0.360036621652543
-0.34772767732255133
-0.3354187329925596
-0.32310978866254003
-0.3292642608275498
-0.32310978866254003
-0.31695531649755804
-0.32310978866254003
-0.32310978866254003
-0.3108008443325483
-0.30464637216753854
-0.30464637216753854
-0.3108008443325483
-0.31695531649755804
-0.3108008443325483
-0.3108008443325483
-0.3108008443325483
-0.3108008443325483
-0.31695531649755804
-0.31695531649755804
-0.3108008443325483
-0.31695531649755804
-0.3108008443325483
-0.31695531649755804
-0.31695531649755804
-0.31695531649755804
-0.31695531649755804
-0.31695531649755804
-0.3108008443325483
-0.3108008443325483
-0.31695531649755804
-0.3108008443325483
-0.31695531649755804
-0.31695531649755804
-0.31695531649755804
-0.32310978866254003
-0.31695531649755804
-0.31695531649755804
-0.31695531649755804
-0.31695531649755804
-0.32310978866254003
-0.3292642608275498
-0.32310978866254003
-0.32310978866254003
-0.31695531649755804
-0.32310978866254003
-0.31695531649755804
-0.3292642608275498
-0.35388214948756097
-0.32310978866254003
-0.32310978866254003
-0.3354187329925596
-0.3292642608275498
-0.31695531649755804
-0.32310978866254003
-0.32310978866254003
-0.31695531649755804
-0.32310978866254003
-0.3108008443325483
-0.31695531649755804
-0.3108008443325483
-0.31695531649755804
-0.30464637216753854
-0.3108008443325483
-0.3108008443325483
-0.3108008443325483
-0.31695531649755804
-0.3108008443325483
-0.31695531649755804
-0.3108008443325483
-0.3108008443325483
-0.32310978866254003
-0.31695531649755804
-0.31695531649755804
-0.3108008443325483
-0.31695531649755804
-0.32310978866254003
-0.32310978866254003
-0.31695531649755804
-0.32310978866254003
-0.32310978866254003
-0.31695531649755804
-0.32310978866254003
-0.31695531649755804
-0.32310978866254003
-0.32310978866254003
-0.32310978866254003
-0.31695531649755804
-0.31695531649755804
-0.31695531649755804
-0.31695531649755804
-0.31695531649755804
-0.3108008443325483
-0.3108008443325483
-0.3108008443325483
-0.30464637216753854
-0.3108008443325483
-0.3108008443325483
-0.3108008443325483
-0.30464637216753854
-0.3108008443325483
-0.30464637216753854
-0.3108008443325483
-0.3108008443325483
-0.30464637216753854
-0.3108008443325483
-0.3108008443325483
-0.3108008443325483
-0.3108008443325483
-0.30464637216753854
-0.3108008443325483
-0.31695531649755804
-0.3108008443325483
-0.3108008443325483
-0.3108008443325483
-0.30464637216753854
-0.30464637216753854
-0.2984919000025288
-0.30464637216753854
-0.30464637216753854
-0.30464637216753854
-0.30464637216753854
-0.3108008443325483
-0.30464637216753854
-0.3108008443325483
-0.3108008443325483
-0.30464637216753854
-0.30464637216753854
-0.30464637216753854
-0.31695531649755804
-0.32310978866254003
-0.32310978866254003
-0.3108008443325483
-0.31695531649755804
-0.30464637216753854
-0.3108008443325483
-0.3108008443325483
-0.30464637216753854
-0.30464637216753854
-0.3108008443325483
-0.30464637216753854
-0.3108008443325483
-0.30464637216753854
-0.2984919000025288
-0.2984919000025288
-0.30464637216753854
-0.2984919000025288
-0.30464637216753854
-0.30464637216753854
-0.2984919000025288
-0.2984919000025288
-0.3108008443325483
-0.30464637216753854
-0.30464637216753854
-0.30464637216753854
-0.3108008443325483
-0.3108008443325483
-0.30464637216753854
-0.30464637216753854
-0.3108008443325483
-0.30464637216753854
-0.30464637216753854
-0.31695531649755804
-0.3108008443325483
-0.3108008443325483
-0.30464637216753854
-0.30464637216753854
-0.30464637216753854
-0.30464637216753854
-0.3108008443325483
-0.3354187329925596
-0.2984919000025288
-0.2984919000025288
-0.2984919000025288
-0.2984919000025288
-0.30464637216753854
-0.2984919000025288
-0.2984919000025288
-0.3108008443325483
-0.31695531649755804
-0.3108008443325483
-0.30464637216753854
-0.3108008443325483
-0.30464637216753854
-0.30464637216753854
