-1.5847765824877347
-1.7263294422827367
-1.6955570814577436
-1.689402609292734
-1.689402609292734
-1.6340123598077294
-1.689402609292734
-1.6586302484677409
-1.590931054652717
-1.757101803107758
-1.7078660257877356
-1.7263294422827367
-1.7201749701177547
-1.6586302484677409
-1.615548943312728
-1.5601586938277234
-1.5847765824877347
-1.7140204979527456
-1.6278578876427194
-1.4986139721777092
-1.590931054652717
-1.6032399989827366
-1.5663131659927332
-1.510922916507701
-1.615548943312728
-1.7017115536227536
-1.6709391927977324
-1.6955570814577436
-1.6586302484677409
-1.9848172732127856
-2.5694921288878514
-0.6431423412426027
-1.326288751557686
-1.5293863330027024
-1.6586302484677409
-1.6340123598077294
-1.6278578876427194
-1.6093944711477182
-1.6217034154777374
-1.4986139721777092
-1.7017115536227536
-1.6524757763027313
-1.6093944711477182
-1.6217034154777374
-1.6278578876427194
-1.6401668319727392
-1.615548943312728
-1.590931054652717
-1.8371099412527454
-1.6586302484677409
-1.6032399989827366
-1.5601586938277234
-1.5540042216627135
-1.5663131659927332
-1.4863050278477177
-1.4924595000126994
-1.6647847206327224
-1.6032399989827366
-1.6093944711477182
-1.6217034154777374
-1.504768444342719
-1.2955163907326928
-1.5293863330027024
-1.5232318608377204
-1.5478497494977315
-1.4863050278477177
-1.4863050278477177
-1.4924595000126994
-1.504768444342719
-1.5232318608377204
-1.4924595000126994
-1.504768444342719
-1.5170773886727107
-1.4924595000126994
-1.467841611352716
-1.3693700567126987
-1.437069250527695
-1.437069250527695
-1.3447521680526875
-1.5355408051677124
-1.504768444342719
-1.4247603061977032
-1.4309147783627132
-1.437069250527695
-1.4186058340326935
-1.4493781948577145
-1.3447521680526875
-1.5847765824877347
-1.1662724752676545
-0.8585488670176111
-1.990971745377768
-1.5355408051677124
-1.4247603061977032
-1.3447521680526875
-1.6955570814577436
-2.1632969659978185
-1.5170773886727107
-1.3693700567126987
-1.400142417537692
-1.4186058340326935
-1.4124513618677115
-1.3878334732077002
-1.0801098649576568
-1.2585895577426898
-1.400142417537692
-1.4247603061977032
-1.3816790010426905
-1.4801505556827075
-1.4616871391877062
-1.4062968897027015
-1.437069250527695
-1.5601586938277234
-1.4986139721777092
-1.4309147783627132
-1.4124513618677115
-1.473996083517698
-1.3570611123826792
-1.467841611352716
-1.4493781948577145
-1.4924595000126994
-1.437069250527695
-1.4186058340326935
-1.4186058340326935
-1.4555326670226965
-1.467841611352716
-1.3385976958876775
-1.4801505556827075
-1.5232318608377204
-1.4863050278477177
-1.473996083517698
-1.2955163907326928
-1.504768444342719
-1.4924595000126994
-0.6308333969125834
-1.7078660257877356
-1.5293863330027024
-0.575443147427579
-1.3078253350626845
-1.3816790010426905
-1.39398794537271
-1.3878334732077002
-1.7755652196027594
-2.2186872154828228
-1.6463213041377216
-1.4432237226927047
-1.6340123598077294
-1.5601586938277234
-1.5416952773327224
-1.5355408051677124
-1.4986139721777092
-1.6586302484677409
-1.5724676381577152
-1.578622110322725
-1.615548943312728
-1.590931054652717
-1.5478497494977315
-1.4924595000126994
-1.437069250527695
-1.590931054652717
-1.6647847206327224
-1.5724676381577152
-1.5847765824877347
-1.5847765824877347
-1.5724676381577152
-1.4986139721777092
-1.6217034154777374
-1.6586302484677409
-1.578622110322725
-1.578622110322725
-1.6278578876427194
-1.6586302484677409
-1.6647847206327224
-1.8371099412527454
-1.7940286360977609
-1.7447928587777384
-1.6586302484677409
-1.6217034154777374
-1.6340123598077294
-1.6340123598077294
-1.615548943312728
-1.4924595000126994
-1.6647847206327224
-1.6586302484677409
-1.615548943312728
-1.6032399989827366
-1.3016708628976748
-1.400142417537692
-1.5724676381577152
-1.4863050278477177
-1.7386383866127564
-1.7201749701177547
-1.689402609292734
-1.689402609292734
-1.6955570814577436
-1.677093664962742
-1.6032399989827366
-2.1632969659978185
-2.347931130947833
-0.7600773123775938
-1.3570611123826792
-1.7386383866127564
-1.683248137127724
-1.6586302484677409
-1.5970855268177266
-1.5724676381577152
-1.7140204979527456
-1.6463213041377216
-1.6524757763027313
-1.6093944711477182
-1.5970855268177266
-1.1231911701126696
-0.4092723989725655
-2.8095165433228986
-1.9971262175427773
-1.8248009969227534
-1.7447928587777384
-1.7017115536227536
-1.6647847206327224
-1.6647847206327224
-1.6093944711477182
-1.7324839144477464
-1.683248137127724
-1.6217034154777374
-1.6217034154777374
-1.6401668319727392
-1.6032399989827366
-1.5355408051677124
-1.437069250527695
-1.8001831082627426
-1.6955570814577436
-1.6647847206327224
-1.6524757763027313
-1.6647847206327224
-1.6647847206327224
-1.6463213041377216
-1.5663131659927332
-1.7632562752727399
-1.6463213041377216
-1.590931054652717
-1.6217034154777374
-1.5724676381577152
-1.6217034154777374
-1.7263294422827367
-1.6032399989827366
-1.8063375804277528
-1.689402609292734
-1.6524757763027313
-1.6586302484677409
-1.6709391927977324
-1.6401668319727392
-1.5232318608377204
-1.5293863330027024
-1.689402609292734
-1.677093664962742
-1.5847765824877347
-1.6709391927977324
-1.7817196917677414
-1.7632562752727399
-1.6278578876427194
-1.6586302484677409
-1.683248137127724
-1.6709391927977324
-1.6463213041377216
-1.6586302484677409
-1.7078660257877356
-1.7263294422827367
-1.5847765824877347
-1.7324839144477464
-1.6093944711477182
-1.7694107474377496
-1.7078660257877356
-1.6340123598077294
-1.6647847206327224
-2.052516467027782
-2.563337656722869
-0.8770122835126126
-1.3570611123826792
-1.6217034154777374
-1.6524757763027313
-1.6032399989827366
-1.578622110322725
-1.5970855268177266
-1.4555326670226965
-1.677093664962742
-1.677093664962742
-1.7078660257877356
-1.7201749701177547
-1.677093664962742
-1.689402609292734
-1.6340123598077294
-1.5663131659927332
-1.757101803107758
-1.6340123598077294
-1.6340123598077294
-1.689402609292734
-1.7017115536227536
-1.6647847206327224
-1.7694107474377496
-1.677093664962742
-1.830955469087764
-1.7140204979527456
-1.6586302484677409
-1.7140204979527456
-1.7509473309427481
-1.7263294422827367
-1.6217034154777374
-1.683248137127724
-1.7694107474377496
-1.6955570814577436
-1.6278578876427194
-1.6217034154777374
-1.8124920525927626
-1.757101803107758
-1.5970855268177266
-1.757101803107758
-1.8248009969227534
-1.7694107474377496
-1.7324839144477464
-1.7386383866127564
-1.7017115536227536
-1.6524757763027313
-1.510922916507701
-1.7694107474377496
-1.7755652196027594
-2.212532743317813
-2.1017522443478045
-1.818646524757745
-1.757101803107758
-1.6955570814577436
-1.590931054652717
-1.8678823020777668
-1.7817196917677414
-1.2339716690826785
-0.36619109381755277
-2.1079067165127863
-1.7509473309427481
-1.7324839144477464
-1.8863457185727683
-2.003280689707787
-1.849418885582765
-1.8124920525927626
-1.7694107474377496
-1.7201749701177547
-1.757101803107758
-1.7324839144477464
-1.7078660257877356
-1.8248009969227534
-1.7447928587777384
-1.7140204979527456
-1.7078660257877356
-1.7078660257877356
-1.5416952773327224
-1.757101803107758
-1.8063375804277528
-1.7940286360977609
-1.7386383866127564
-1.7447928587777384
-1.8001831082627426
-1.7694107474377496
-1.7201749701177547
-1.7447928587777384
-1.7878741639327511
-1.7755652196027594
-1.7386383866127564
-1.7447928587777384
-1.5970855268177266
-1.757101803107758
-1.6955570814577436
-1.578622110322725
-1.7632562752727399
-1.7201749701177547
-1.683248137127724
-1.7017115536227536
-1.7201749701177547
-1.7017115536227536
-1.6463213041377216
-1.590931054652717
-1.818646524757745
-1.7201749701177547
-1.6032399989827366
-1.7817196917677414
-1.7324839144477464
-1.7201749701177547
-1.6401668319727392
-1.6093944711477182
-1.8063375804277528
-1.7324839144477464
-1.7447928587777384
-1.7632562752727399
-1.7940286360977609
-1.7878741639327511
-1.683248137127724
-1.6032399989827366
-1.7078660257877356
-1.7263294422827367
-1.972508328882766
-2.5141018794028467
-0.7231504793875909
-1.178581419597674
-1.4863050278477177
-1.6032399989827366
-1.7017115536227536
-1.7201749701177547
-1.7386383866127564
-1.7324839144477464
-1.757101803107758
-1.8001831082627426
-2.009435161872797
-1.861727829912757
-1.677093664962742
-1.590931054652717
-1.5478497494977315
-1.5416952773327224
-1.5847765824877347
-1.6032399989827366
-1.4801505556827075
-1.6647847206327224
-1.6278578876427194
-1.6401668319727392
-1.689402609292734
-1.3016708628976748
-1.289361918567683
-1.5416952773327224
-1.5293863330027024
-1.7878741639327511
-1.7324839144477464
-1.677093664962742
-1.683248137127724
-1.6524757763027313
-1.5970855268177266
-1.5478497494977315
-1.5293863330027024
-1.6463213041377216
-1.5355408051677124
-1.3878334732077002
-1.6093944711477182
-1.5478497494977315
-1.510922916507701
-1.5232318608377204
-1.5724676381577152
-1.7878741639327511
-1.7078660257877356
-1.689402609292734
-1.683248137127724
-1.6463213041377216
-1.5601586938277234
-1.0985732814526583
-0.07693090206251085
-1.7447928587777384
-1.5478497494977315
-1.3570611123826792
-1.4309147783627132
-1.4863050278477177
-1.5232318608377204
-1.1601180031026725
-1.1170366979476598
-2.501792935072855
-1.8063375804277528
-1.6401668319727392
-1.6093944711477182
-1.6032399989827366
-1.5232318608377204
-1.615548943312728
-2.347931130947833
-1.8001831082627426
-1.578622110322725
-1.5355408051677124
-1.4986139721777092
-1.5170773886727107
-1.5293863330027024
-1.3878334732077002
-1.6278578876427194
-1.5847765824877347
-1.590931054652717
-1.5847765824877347
-1.4863050278477177
-1.510922916507701
-1.590931054652717
-1.510922916507701
-1.6647847206327224
-1.6340123598077294
-1.683248137127724
-1.6524757763027313
-1.6401668319727392
-1.6401668319727392
-1.5663131659927332
-1.578622110322725
-1.7509473309427481
-1.6278578876427194
-1.5170773886727107
-1.6093944711477182
-1.5478497494977315
-1.504768444342719
-1.4186058340326935
-1.5355408051677124
-1.6463213041377216
-1.5355408051677124
-1.5724676381577152
-1.6340123598077294
-1.6647847206327224
-1.6709391927977324
-1.5847765824877347
-1.7201749701177547
-1.5232318608377204
-1.6463213041377216
-1.6709391927977324
-1.6032399989827366
-1.5478497494977315
-1.4432237226927047
-1.289361918567683
-1.5724676381577152
-1.578622110322725
-1.5478497494977315
-1.5540042216627135
-1.6093944711477182
-1.6093944711477182
-1.6032399989827366
-1.8678823020777668
-2.760280766002876
-0.7416138958825924
-1.1539635309376628
-1.4247603061977032
-1.4616871391877062
-1.510922916507701
-1.437069250527695
-1.3570611123826792
-1.6093944711477182
-1.5663131659927332
-1.5724676381577152
-1.6217034154777374
-1.6278578876427194
-1.4124513618677115
-1.5601586938277234
-1.4924595000126994
-1.6093944711477182
-1.5847765824877347
-1.5416952773327224
-1.5232318608377204
-1.5478497494977315
-1.5724676381577152
-1.473996083517698
-1.5293863330027024
-1.6278578876427194
-1.5478497494977315
-1.4924595000126994
-1.4186058340326935
-1.590931054652717
-1.578622110322725
-0.9262480608326351
-1.6524757763027313
-2.0340530505327803
-1.6647847206327224
-1.677093664962742
-1.6647847206327224
-1.6278578876427194
-1.6586302484677409
-1.5293863330027024
-1.7263294422827367
-1.578622110322725
-1.6093944711477182
-1.757101803107758
-1.6586302484677409
-1.615548943312728
-1.6093944711477182
-1.473996083517698
-1.7017115536227536
-1.6032399989827366
-1.5663131659927332
-1.5663131659927332
-1.6032399989827366
-1.590931054652717
-1.5847765824877347
-1.4186058340326935
-1.7447928587777384
-1.6955570814577436
-1.615548943312728
-1.1231911701126696
-0.3108008443325483
-2.0217441062027888
-1.6401668319727392
-2.1571424938328088
-2.212532743317813
-1.6955570814577436
-1.6032399989827366
-1.5970855268177266
-1.615548943312728
-1.4247603061977032
-1.5355408051677124
-1.590931054652717
-1.6401668319727392
-1.5663131659927332
-1.510922916507701
-1.5293863330027024
-1.578622110322725
-1.6278578876427194
-0.8831667556776225
-1.6278578876427194
-2.120215660842805
-1.6463213041377216
-1.5540042216627135
-1.4555326670226965
-1.6401668319727392
-1.5970855268177266
-1.4555326670226965
-1.6463213041377216
-1.6278578876427194
-1.590931054652717
-1.5847765824877347
-1.5478497494977315
-1.5416952773327224
-1.5663131659927332
-1.4616871391877062
-1.6217034154777374
-1.5416952773327224
-1.4924595000126994
-1.683248137127724
-1.5663131659927332
-1.578622110322725
-1.5847765824877347
-1.4186058340326935
-1.6463213041377216
-1.6032399989827366
-1.5970855268177266
-1.5847765824877347
-1.578622110322725
-1.5847765824877347
-1.5724676381577152
-1.437069250527695
-1.467841611352716
-1.6093944711477182
-1.5970855268177266
-1.590931054652717
-1.5416952773327224
-1.5232318608377204
-1.467841611352716
-1.5416952773327224
-1.578622110322725
-1.5293863330027024
-1.5724676381577152
-1.9355814958927628
-2.544874240227868
-0.4092723989725655
0.46466264845757
-1.2708985020726815
-1.9294270237277809
-1.5478497494977315
-1.504768444342719
-1.5601586938277234
-1.5170773886727107
-1.473996083517698
-1.3878334732077002
-1.5601586938277234
-1.5724676381577152
-1.5540042216627135
-1.590931054652717
-2.1632969659978185
-2.6371913227028756
-1.8801912464077586
-1.5170773886727107
-1.7694107474377496
-1.7201749701177547
-1.615548943312728
-1.5663131659927332
-1.5355408051677124
-1.5355408051677124
-1.473996083517698
-1.3816790010426905
-1.5724676381577152
-1.5478497494977315
-1.5416952773327224
-1.683248137127724
-1.578622110322725
-1.6032399989827366
-1.5478497494977315
-1.504768444342719
-1.615548943312728
-1.578622110322725
-1.6093944711477182
-1.590931054652717
-1.578622110322725
-1.5970855268177266
-1.5170773886727107
-1.578622110322725
-1.5970855268177266
-1.7509473309427481
-1.689402609292734
-1.6278578876427194
-1.6093944711477182
-1.6647847206327224
-1.5540042216627135
-1.6524757763027313
-1.6709391927977324
-1.578622110322725
-1.5601586938277234
-1.5663131659927332
-1.5970855268177266
-1.5601586938277234
-1.3878334732077002
-1.2339716690826785
-0.538516314437576
-1.9294270237277809
-1.5724676381577152
-1.504768444342719
-1.4986139721777092
-1.4801505556827075
-1.7755652196027594
-2.347931130947833
-1.8001831082627426
-1.6709391927977324
-1.6524757763027313
-1.590931054652717
-1.615548943312728
-1.7078660257877356
-1.5724676381577152
-1.7632562752727399
-1.683248137127724
-1.6524757763027313
-1.6463213041377216
-1.6401668319727392
-1.6278578876427194
-1.5663131659927332
-1.590931054652717
-1.7509473309427481
-1.689402609292734
-1.5970855268177266
-1.7509473309427481
-1.7447928587777384
-1.7017115536227536
-1.6032399989827366
-1.6401668319727392
-1.7632562752727399
-1.6647847206327224
-1.590931054652717
-1.578622110322725
-1.6278578876427194
-1.6586302484677409
-1.578622110322725
-1.6463213041377216
-1.4801505556827075
-1.504768444342719
-1.6524757763027313
-1.6647847206327224
-1.6524757763027313
-1.6586302484677409
-1.504768444342719
-1.677093664962742
-1.6647847206327224
-1.6278578876427194
-1.6278578876427194
-1.5724676381577152
-1.5601586938277234
-1.590931054652717
-1.2278171969176688
-1.4555326670226965
-1.5724676381577152
-1.5970855268177266
-1.6032399989827366
-1.6032399989827366
-1.5970855268177266
-1.5416952773327224
-0.427735815467567
-2.631036850537866
-1.0247196154726523
-1.0062561989776508
-1.4924595000126994
-1.590931054652717
-1.861727829912757
-1.8740367742427766
-2.261768520637808
-2.304849825792821
-1.7940286360977609
-1.689402609292734
-1.6586302484677409
-1.6032399989827366
-1.5355408051677124
-1.467841611352716
-1.5416952773327224
-1.6340123598077294
-1.590931054652717
-1.5416952773327224
-1.467841611352716
-1.6032399989827366
-1.5355408051677124
-1.4801505556827075
-1.5293863330027024
-1.5478497494977315
-1.4924595000126994
-1.473996083517698
-1.4986139721777092
-1.510922916507701
-1.4863050278477177
-1.39398794537271
-1.683248137127724
-1.6709391927977324
-1.8371099412527454
-1.818646524757745
-1.6463213041377216
-1.6524757763027313
-1.6217034154777374
-1.4801505556827075
-1.677093664962742
-1.6586302484677409
-1.6093944711477182
-1.5663131659927332
-1.590931054652717
-1.6340123598077294
-1.6401668319727392
-1.326288751557686
-1.5416952773327224
-1.6955570814577436
-1.6955570814577436
-1.6463213041377216
-1.6278578876427194
-1.6278578876427194
-1.5540042216627135
-1.504768444342719
-1.6647847206327224
-1.5663131659927332
-1.5663131659927332
-1.5416952773327224
-1.1170366979476598
-0.360036621652543
-1.6955570814577436
-2.2309961598128147
-2.114061188677796
-1.7201749701177547
-1.6955570814577436
-1.6463213041377216
-1.5847765824877347
-1.5724676381577152
-1.5293863330027024
-1.5601586938277234
-1.5355408051677124
-1.5170773886727107
-1.5601586938277234
-1.6463213041377216
-1.7940286360977609
-1.6032399989827366
-1.4493781948577145
-1.6586302484677409
-1.6217034154777374
-1.615548943312728
-1.6340123598077294
-1.6586302484677409
-1.6278578876427194
-1.5724676381577152
-1.4555326670226965
-1.7755652196027594
-1.6401668319727392
-1.5663131659927332
-1.677093664962742
-1.6217034154777374
-1.5663131659927332
-1.4863050278477177
-1.4432237226927047
-1.6340123598077294
-1.590931054652717
-1.5601586938277234
-1.5724676381577152
-1.5970855268177266
-1.5601586938277234
-1.510922916507701
-1.4062968897027015
-1.4986139721777092
-1.5724676381577152
-1.5232318608377204
-1.5540042216627135
-1.6401668319727392
-1.6709391927977324
-1.590931054652717
-1.6278578876427194
-1.818646524757745
-1.7201749701177547
-1.6955570814577436
-1.5724676381577152
-1.5540042216627135
-1.3570611123826792
-1.2585895577426898
-1.504768444342719
-1.4432237226927047
-1.4616871391877062
-1.4924595000126994
-1.5416952773327224
-1.91096360723278
-2.526410823732866
-0.6431423412426027
-1.3201342793926762
-1.5663131659927332
-1.578622110322725
-1.6093944711477182
-1.5232318608377204
-1.615548943312728
-1.5293863330027024
-1.363215584547689
-1.5847765824877347
-1.4801505556827075
-1.510922916507701
-1.510922916507701
-1.5170773886727107
-1.5232318608377204
-1.504768444342719
-1.437069250527695
-1.6093944711477182
-1.5478497494977315
-1.4432237226927047
-1.6340123598077294
-1.5724676381577152
-1.5540042216627135
-1.5293863330027024
-1.5293863330027024
-1.6709391927977324
-1.5970855268177266
-1.590931054652717
-1.6463213041377216
-1.6340123598077294
-1.590931054652717
-1.473996083517698
-1.5478497494977315
-1.4493781948577145
-1.590931054652717
-1.4493781948577145
-1.467841611352716
-1.510922916507701
-1.4986139721777092
-1.4493781948577145
-1.6032399989827366
-1.6278578876427194
-1.5847765824877347
-1.5540042216627135
-1.5663131659927332
-1.5540042216627135
-1.4986139721777092
-1.3447521680526875
-1.6647847206327224
-1.5601586938277234
-1.4863050278477177
-1.4432237226927047
-1.4432237226927047
-1.4863050278477177
-1.473996083517698
-1.3816790010426905
-1.5540042216627135
-1.0247196154726523
-0.23079270618753256
-1.9232725515627715
-1.467841611352716
-1.3878334732077002
-1.510922916507701
-1.830955469087764
-2.2186872154828228
-1.6955570814577436
-1.590931054652717
-1.5601586938277234
-1.5355408051677124
-1.5540042216627135
-1.4924595000126994
-1.437069250527695
-1.4986139721777092
-1.4493781948577145
-1.3447521680526875
-1.3324432237226955
-1.4801505556827075
-1.5478497494977315
-1.5355408051677124
-1.5478497494977315
-1.689402609292734
-1.590931054652717
-1.5416952773327224
-1.5232318608377204
-1.4616871391877062
-1.363215584547689
-1.3693700567126987
-1.4924595000126994
-1.4124513618677115
-1.6463213041377216
-1.5724676381577152
-1.5355408051677124
-1.5232318608377204
-1.5416952773327224
-1.4801505556827075
-1.6401668319727392
-1.5847765824877347
-1.5293863330027024
-1.5416952773327224
-1.5478497494977315
-1.4493781948577145
-1.400142417537692
-1.2462806134126705
-1.5970855268177266
-1.4986139721777092
-1.4309147783627132
-1.4309147783627132
-1.4555326670226965
-1.4986139721777092
-1.467841611352716
-1.4247603061977032
-1.6401668319727392
-1.5724676381577152
-1.5478497494977315
-1.5478497494977315
-1.510922916507701
-1.39398794537271
-1.5540042216627135
-1.4432237226927047
-1.6647847206327224
-1.9048091350677696
-2.4525571577528327
-0.6369878690775933
-1.2093537804226673
-1.578622110322725
-1.4924595000126994
-1.5170773886727107
-1.6709391927977324
-1.615548943312728
-1.5293863330027024
-1.363215584547689
-1.5724676381577152
-1.6032399989827366
-1.5416952773327224
-1.5540042216627135
-1.5724676381577152
-1.5847765824877347
-1.5970855268177266
-1.5663131659927332
-1.5416952773327224
-1.578622110322725
-1.4801505556827075
-1.6709391927977324
-1.504768444342719
-1.5601586938277234
-1.7017115536227536
-1.5724676381577152
-1.5416952773327224
-1.5540042216627135
-1.4616871391877062
-1.6401668319727392
-1.6032399989827366
-1.590931054652717
-1.6340123598077294
-1.6401668319727392
-1.5970855268177266
-1.5970855268177266
-1.3693700567126987
-1.7263294422827367
-1.7078660257877356
-1.6340123598077294
-1.6524757763027313
-1.683248137127724
-1.6401668319727392
-1.590931054652717
-1.615548943312728
-1.7940286360977609
-1.6586302484677409
-1.6093944711477182
-1.6340123598077294
-1.6463213041377216
-1.4247603061977032
-1.5232318608377204
-1.5970855268177266
-1.7201749701177547
-1.6032399989827366
-1.5601586938277234
-1.5847765824877347
-1.6278578876427194
-1.0985732814526583
-0.33541873299255964
-2.7418173495078744
-2.052516467027782
-1.6955570814577436
-1.5970855268177266
-1.5355408051677124
-1.7755652196027594
-1.689402609292734
-0.9631748938226381
-1.5232318608377204
-2.2925408814628288
-0.7662317845426038
-1.467841611352716
-1.5970855268177266
-1.615548943312728
-1.615548943312728
-1.8740367742427766
-2.4156303247628297
-1.8740367742427766
-1.615548943312728
-1.7632562752727399
-1.6709391927977324
-1.6647847206327224
-1.6463213041377216
-1.5478497494977315
-1.7324839144477464
-1.6340123598077294
-1.6463213041377216
-1.6401668319727392
-1.6217034154777374
-1.5970855268177266
-1.5847765824877347
-1.4924595000126994
-1.6709391927977324
-1.7324839144477464
-1.6401668319727392
-1.6340123598077294
-1.6278578876427194
-1.6278578876427194
-1.590931054652717
-1.6278578876427194
-1.6524757763027313
-1.6278578876427194
-1.615548943312728
-1.5970855268177266
-1.5540042216627135
-1.4309147783627132
-1.4493781948577145
-1.6586302484677409
-1.6032399989827366
-1.5416952773327224
-1.5847765824877347
-1.6217034154777374
-1.5847765824877347
-1.5970855268177266
-1.5293863330027024
-1.7017115536227536
-1.6647847206327224
-1.590931054652717
-1.615548943312728
-1.4863050278477177
-1.6093944711477182
-1.6093944711477182
-1.590931054652717
-1.615548943312728
-1.677093664962742
-1.6217034154777374
-1.6093944711477182
-1.6709391927977324
-1.6401668319727392
-1.590931054652717
-2.009435161872797
-2.446402685587851
-0.6800691742326057
-1.1908903639276658
-1.590931054652717
-1.5970855268177266
-1.5724676381577152
-1.4863050278477177
-1.4309147783627132
-1.7140204979527456
-1.6647847206327224
-1.6524757763027313
-1.615548943312728
-1.590931054652717
-1.615548943312728
-1.5601586938277234
-1.510922916507701
-1.4863050278477177
-1.6647847206327224
-1.5847765824877347
-1.510922916507701
-1.5355408051677124
-1.5601586938277234
-1.504768444342719
-1.5724676381577152
-1.590931054652717
-1.578622110322725
-1.5416952773327224
-1.504768444342719
-1.5355408051677124
-1.504768444342719
-1.3816790010426905
-1.7201749701177547
-1.5540042216627135
-1.4924595000126994
-1.6278578876427194
-1.5663131659927332
-1.5355408051677124
-1.510922916507701
-1.363215584547689
-1.578622110322725
-1.4924595000126994
-1.504768444342719
-1.5416952773327224
-1.467841611352716
-1.473996083517698
-1.6217034154777374
-1.5232318608377204
-1.7263294422827367
-1.615548943312728
-1.104727753617668
-0.49543500928256323
-1.8740367742427766
-1.5170773886727107
-1.4432237226927047
-2.003280689707787
-2.1325246051727973
-1.6217034154777374
-1.4986139721777092
-1.6586302484677409
-1.683248137127724
-1.6093944711477182
-1.5293863330027024
-1.5724676381577152
-1.6647847206327224
-1.578622110322725
-1.5355408051677124
-1.5478497494977315
-1.5847765824877347
-1.5724676381577152
-1.510922916507701
-1.6278578876427194
-1.4616871391877062
-1.504768444342719
-1.5724676381577152
-1.5970855268177266
-1.6401668319727392
-1.6463213041377216
-1.5232318608377204
-1.6463213041377216
-1.6709391927977324
-1.6401668319727392
-1.6217034154777374
-1.615548943312728
-1.6524757763027313
-1.689402609292734
-1.4432237226927047
-1.683248137127724
-1.7078660257877356
-1.7017115536227536
-1.6709391927977324
-1.6093944711477182
-1.590931054652717
-1.5416952773327224
-1.4247603061977032
-1.5970855268177266
-1.5540042216627135
-1.5601586938277234
-1.5601586938277234
-1.5601586938277234
-1.6278578876427194
-1.7755652196027594
-1.6463213041377216
-1.7324839144477464
-1.6647847206327224
-1.6647847206327224
-1.683248137127724
-1.677093664962742
-1.6463213041377216
-1.5970855268177266
-1.6278578876427194
-1.7201749701177547
-1.6278578876427194
-1.9294270237277809
-2.4587116299178424
-0.7539228402126119
-1.184735891762656
-1.4493781948577145
-1.6463213041377216
-1.6647847206327224
-1.6647847206327224
-1.6709391927977324
-1.683248137127724
-1.6647847206327224
-1.615548943312728
-1.510922916507701
-1.6647847206327224
-1.615548943312728
-1.590931054652717
-1.6278578876427194
-1.6401668319727392
-1.615548943312728
-1.6032399989827366
-1.4863050278477177
-1.6955570814577436
-1.7263294422827367
-1.689402609292734
-1.677093664962742
-1.7263294422827367
-1.757101803107758
-1.677093664962742
-1.3755245288776807
-1.689402609292734
-1.7078660257877356
-1.5663131659927332
-1.504768444342719
-1.5540042216627135
-1.5970855268177266
-1.6032399989827366
-1.5847765824877347
-1.7324839144477464
-1.6955570814577436
-1.6586302484677409
-1.6463213041377216
-1.6401668319727392
-1.4863050278477177
-1.590931054652717
-1.6032399989827366
-1.7017115536227536
-1.6463213041377216
-1.6278578876427194
-1.6278578876427194
-1.6463213041377216
-1.677093664962742
-1.6401668319727392
-1.6463213041377216
-1.615548943312728
-1.578622110322725
-1.590931054652717
-1.473996083517698
-1.5663131659927332
-1.5478497494977315
-0.9877927824826491
-0.24925612268253405
-2.0463619948628
-1.6709391927977324
-1.6217034154777374
-1.615548943312728
-1.6032399989827366
-1.5663131659927332
-1.8248009969227534
-2.391012436102846
-1.8063375804277528
-1.4986139721777092
-1.6524757763027313
-1.6278578876427194
-1.6278578876427194
-1.5847765824877347
-1.578622110322725
-1.7447928587777384
-1.6463213041377216
-1.6217034154777374
-1.6524757763027313
-1.6278578876427194
-1.6093944711477182
-1.5970855268177266
-1.5416952773327224
-1.7755652196027594
-1.6955570814577436
-1.5970855268177266
-1.5663131659927332
-1.6278578876427194
-1.6401668319727392
-1.5293863330027024
-1.5540042216627135
-1.7509473309427481
-1.677093664962742
-1.6401668319727392
-1.6524757763027313
-1.683248137127724
-1.590931054652717
-1.5540042216627135
-1.7201749701177547
-1.683248137127724
-1.6032399989827366
-1.5540042216627135
-1.5232318608377204
-1.5663131659927332
-1.590931054652717
-1.5355408051677124
-1.6463213041377216
-1.6647847206327224
-1.677093664962742
-1.683248137127724
-1.510922916507701
-1.6401668319727392
-1.6463213041377216
-1.5416952773327224
-1.689402609292734
-1.6586302484677409
-1.689402609292734
-1.683248137127724
-1.6340123598077294
-1.6401668319727392
-1.6401668319727392
-1.9048091350677696
-2.631036850537866
-0.7600773123775938
-1.11088222578265
-1.6647847206327224
-1.5970855268177266
-1.5540042216627135
-1.5416952773327224
-1.504768444342719
-1.677093664962742
-1.6093944711477182
-1.615548943312728
-1.6524757763027313
-1.5478497494977315
-1.5847765824877347
-1.2955163907326928
-0.3538821494875609
-1.7878741639327511
-1.5416952773327224
-1.473996083517698
-1.510922916507701
-1.4863050278477177
-1.4986139721777092
-1.6093944711477182
-2.347931130947833
-2.0955977721827947
-1.7017115536227536
-1.6340123598077294
-1.6340123598077294
-1.6463213041377216
-1.5416952773327224
-1.2708985020726815
-1.6586302484677409
-1.6524757763027313
-1.5355408051677124
-1.5355408051677124
-1.5601586938277234
-1.5663131659927332
-1.5724676381577152
-1.473996083517698
-1.683248137127724
-1.683248137127724
-1.6647847206327224
-1.6586302484677409
-1.6032399989827366
-1.6093944711477182
-1.7017115536227536
-1.5232318608377204
-1.6463213041377216
-1.6093944711477182
-1.578622110322725
-1.5540042216627135
-1.5416952773327224
-1.615548943312728
-1.615548943312728
-1.5724676381577152
-1.7140204979527456
-1.7447928587777384
-1.7817196917677414
-1.4924595000126994
-0.5200528979425745
-2.249459576307816
-1.7940286360977609
-2.298695353627811
-2.1632969659978185
-1.7017115536227536
-1.6340123598077294
-1.6093944711477182
-1.5970855268177266
-1.6278578876427194
-1.5847765824877347
-1.7017115536227536
-1.4924595000126994
-1.5355408051677124
-1.7263294422827367
-1.7447928587777384
-1.7017115536227536
-1.7140204979527456
-1.6093944711477182
-1.7201749701177547
-1.6524757763027313
-1.5970855268177266
-1.5847765824877347
-1.6032399989827366
-1.578622110322725
-1.615548943312728
-1.4924595000126994
-1.8001831082627426
-1.7263294422827367
-1.683248137127724
-1.7017115536227536
-1.7140204979527456
-1.6340123598077294
-1.5355408051677124
-1.467841611352716
-1.683248137127724
-1.6217034154777374
-1.5724676381577152
-1.615548943312728
-1.6463213041377216
-1.510922916507701
-1.6709391927977324
-1.6217034154777374
-1.8248009969227534
-1.7386383866127564
-1.689402609292734
-1.6586302484677409
-1.689402609292734
-1.677093664962742
-1.5293863330027024
-1.5293863330027024
-1.7201749701177547
-1.615548943312728
-1.5540042216627135
-1.590931054652717
-1.7263294422827367
-1.6647847206327224
-1.578622110322725
-1.6278578876427194
-1.677093664962742
-1.6524757763027313
-1.6340123598077294
-1.9355814958927628
-2.5141018794028467
-0.7293049515526008
-1.104727753617668
-1.5293863330027024
-1.5416952773327224
-1.6278578876427194
-1.7017115536227536
-1.6278578876427194
-1.6032399989827366
-1.5847765824877347
-1.473996083517698
-1.689402609292734
-1.677093664962742
-1.6586302484677409
-1.6401668319727392
-1.5847765824877347
-1.578622110322725
-1.6093944711477182
-1.3509066402176972
-1.5970855268177266
-1.6401668319727392
-1.6217034154777374
-1.6586302484677409
-1.6524757763027313
-1.6463213041377216
-1.6093944711477182
-1.5540042216627135
-1.7140204979527456
-1.5970855268177266
-1.5847765824877347
-1.5970855268177266
-1.6217034154777374
-1.5416952773327224
-1.6032399989827366
-1.6586302484677409
-1.7940286360977609
-1.689402609292734
-1.6401668319727392
-1.6647847206327224
-1.6647847206327224
-1.615548943312728
-1.504768444342719
-1.6093944711477182
-1.677093664962742
-1.6032399989827366
-1.590931054652717
-1.5232318608377204
-1.7755652196027594
-1.7447928587777384
-1.6093944711477182
-1.7201749701177547
-1.6955570814577436
-1.6340123598077294
-1.5847765824877347
-1.578622110322725
-1.5663131659927332
-1.5478497494977315
-1.4062968897027015
-1.2031993082576575
-0.5077439536125827
-1.8801912464077586
-1.7324839144477464
-1.677093664962742
-1.7078660257877356
-1.677093664962742
-1.9294270237277809
-2.2802319371328093
-1.7140204979527456
-1.6093944711477182
-1.5724676381577152
-1.6093944711477182
-1.6340123598077294
-1.6586302484677409
-1.5293863330027024
-1.6709391927977324
-1.7817196917677414
-1.6955570814577436
-1.6093944711477182
-1.5724676381577152
-1.5724676381577152
-1.5170773886727107
-1.4924595000126994
-1.5724676381577152
-1.5293863330027024
-1.578622110322725
-1.6278578876427194
-1.6709391927977324
-1.7324839144477464
-2.070979883522784
-1.8863457185727683
-1.677093664962742
-1.6093944711477182
-1.5970855268177266
-1.5663131659927332
-1.5355408051677124
-1.4924595000126994
-1.473996083517698
-1.6401668319727392
-1.5724676381577152
-1.6032399989827366
-1.6955570814577436
-1.3139798072276945
-1.1601180031026725
-1.504768444342719
-1.4986139721777092
-1.7324839144477464
-1.677093664962742
-1.6093944711477182
-1.5847765824877347
-1.5724676381577152
-1.5663131659927332
-1.5355408051677124
-1.4986139721777092
-1.8001831082627426
-1.7386383866127564
-1.5970855268177266
-1.7940286360977609
-1.7324839144477464
-1.6524757763027313
-1.5416952773327224
-1.4863050278477177
-2.0586709391927913
-2.55102871239285
-0.7293049515526008
-1.2278171969176688
-1.5540042216627135
-1.6463213041377216
-1.615548943312728
-1.6647847206327224
-1.6340123598077294
-1.6709391927977324
-1.7201749701177547
-1.7078660257877356
-1.7140204979527456
-1.7447928587777384
-1.6524757763027313
-1.6217034154777374
-1.6586302484677409
-1.6217034154777374
-1.578622110322725
-1.5601586938277234
-1.5847765824877347
-1.6032399989827366
-1.5478497494977315
-1.9048091350677696
-1.7940286360977609
-1.7078660257877356
-1.7386383866127564
-1.689402609292734
-1.6278578876427194
-1.6401668319727392
-1.5663131659927332
-1.6401668319727392
-1.5663131659927332
-1.510922916507701
-1.467841611352716
-1.400142417537692
-1.4555326670226965
-1.5170773886727107
-1.4493781948577145
-1.6524757763027313
-1.5970855268177266
-1.6340123598077294
-1.6524757763027313
-1.6278578876427194
-1.590931054652717
-1.5170773886727107
-1.437069250527695
-1.6093944711477182
-1.473996083517698
-0.9816383103176396
-0.05231301340249961
-0.9754838381526297
-1.326288751557686
-1.3693700567126987
-1.4555326670226965
-1.615548943312728
-1.615548943312728
-1.6647847206327224
-1.689402609292734
-1.1908903639276658
-0.5508252587675677
-2.052516467027782
-2.360240075277825
-2.55718318455786
-2.723353933012873
-1.7632562752727399
-1.5355408051677124
-1.4863050278477177
-1.4986139721777092
-1.4062968897027015
-1.5478497494977315
-1.590931054652717
-1.6032399989827366
-1.6093944711477182
-1.6647847206327224
-1.7140204979527456
-1.7140204979527456
-1.4801505556827075
-1.7509473309427481
-1.6463213041377216
-1.5478497494977315
-1.4616871391877062
-1.437069250527695
-1.4432237226927047
-1.4616871391877062
-0.427735815467567
-2.3233132422878215
-1.437069250527695
-0.9508659494926462
-1.5355408051677124
-1.5663131659927332
-1.4924595000126994
-1.7324839144477464
-2.077134355687793
-2.2186872154828228
-1.6586302484677409
-1.5232318608377204
-1.4986139721777092
-1.467841611352716
-1.4863050278477177
-1.4801505556827075
-1.4863050278477177
-1.6709391927977324
-1.6278578876427194
-1.6278578876427194
-1.5970855268177266
-1.7386383866127564
-1.6955570814577436
-1.6217034154777374
-1.689402609292734
-1.6586302484677409
-1.5478497494977315
-1.5478497494977315
-1.5416952773327224
-1.504768444342719
-1.473996083517698
-1.473996083517698
-1.6401668319727392
-1.6217034154777374
-1.7386383866127564
-1.8432644134177558
-1.7509473309427481
-1.7263294422827367
-1.677093664962742
-1.5663131659927332
-1.6955570814577436
-1.6032399989827366
-1.5355408051677124
-1.473996083517698
-1.4432237226927047
-1.4924595000126994
-1.510922916507701
-1.326288751557686
-1.7386383866127564
-1.8124920525927626
-1.7201749701177547
-1.677093664962742
-1.615548943312728
-1.5663131659927332
-1.4247603061977032
-1.3509066402176972
-1.5970855268177266
-1.510922916507701
-1.4801505556827075
-1.473996083517698
-1.5540042216627135
-1.4493781948577145
-1.6278578876427194
-2.403321380432838
-1.9786628010477763
-0.7539228402126119
-1.4432237226927047
-1.5601586938277234
-1.5540042216627135
-1.5478497494977315
-1.4801505556827075
-1.467841611352716
-1.4863050278477177
-1.473996083517698
-1.4924595000126994
-1.363215584547689
-1.6401668319727392
-1.6647847206327224
-1.6032399989827366
-1.689402609292734
-1.6093944711477182
-1.5540042216627135
-1.578622110322725
-1.5540042216627135
-1.4924595000126994
-1.504768444342719
-1.4247603061977032
-1.5663131659927332
-1.510922916507701
-1.4062968897027015
-1.5847765824877347
-1.5847765824877347
-1.5663131659927332
-1.5478497494977315
-1.504768444342719
-1.7263294422827367
-1.1539635309376628
-0.538516314437576
-1.9848172732127856
-1.6217034154777374
-1.578622110322725
-1.5170773886727107
-1.9048091350677696
-2.224841687647805
-1.8371099412527454
-1.6524757763027313
-1.6401668319727392
-1.6340123598077294
-1.5970855268177266
-1.5355408051677124
-1.5663131659927332
-1.7878741639327511
-1.677093664962742
-1.6278578876427194
-1.615548943312728
-1.6955570814577436
-1.5970855268177266
-1.578622110322725
-1.757101803107758
-1.7324839144477464
-1.6401668319727392
-1.5970855268177266
-1.5970855268177266
-1.6217034154777374
-1.6217034154777374
-1.5293863330027024
-1.6278578876427194
-1.6709391927977324
-1.6955570814577436
-1.7017115536227536
-1.5663131659927332
-1.7140204979527456
-1.830955469087764
-1.683248137127724
-1.7386383866127564
-1.7201749701177547
-1.7140204979527456
-1.677093664962742
-1.6278578876427194
-1.615548943312728
-1.5847765824877347
-1.4432237226927047
-1.6586302484677409
-1.6647847206327224
-1.615548943312728
-1.689402609292734
-1.689402609292734
-1.6524757763027313
-1.6401668319727392
-1.6340123598077294
-1.7755652196027594
-1.6463213041377216
-1.6093944711477182
-1.578622110322725
-1.578622110322725
-1.578622110322725
-1.5478497494977315
-1.5416952773327224
-1.5355408051677124
-1.9478904402227823
-2.55102871239285
-0.7539228402126119
-1.2278171969176688
-1.5601586938277234
-1.5416952773327224
-1.6401668319727392
-1.689402609292734
-1.6217034154777374
-1.6524757763027313
-1.6647847206327224
-1.6647847206327224
-1.6217034154777374
-1.5478497494977315
-1.855573357747775
-1.7817196917677414
-1.7078660257877356
-1.7078660257877356
-1.7386383866127564
-1.7447928587777384
-1.7078660257877356
-1.5724676381577152
-1.8124920525927626
-1.7940286360977609
-1.7017115536227536
-1.6709391927977324
-1.6217034154777374
-1.7386383866127564
-1.7632562752727399
-1.5232318608377204
-1.7878741639327511
-1.7140204979527456
-1.6586302484677409
-1.6401668319727392
-1.6647847206327224
-1.6647847206327224
-1.7078660257877356
-1.5478497494977315
-1.677093664962742
-1.6647847206327224
-1.6401668319727392
-1.830955469087764
-1.7017115536227536
-1.6217034154777374
-1.5847765824877347
-1.5416952773327224
-1.683248137127724
-1.6401668319727392
-1.6278578876427194
-1.5663131659927332
-1.5293863330027024
-1.510922916507701
-1.467841611352716
-1.5416952773327224
-1.326288751557686
-1.363215584547689
-1.5601586938277234
-1.5293863330027024
-1.4986139721777092
-1.000101726812641
0.31695531649755804
-2.772589710332896
-2.3540856031128428
-1.6340123598077294
-1.5601586938277234
-1.5478497494977315
-1.5355408051677124
-1.5355408051677124
-1.5170773886727107
-1.91096360723278
-1.6401668319727392
-1.5601586938277234
-1.5724676381577152
-1.6032399989827366
-1.578622110322725
-1.5355408051677124
-1.4555326670226965
-1.7140204979527456
-1.590931054652717
-1.5355408051677124
-1.578622110322725
-1.5540042216627135
-1.1662724752676545
-1.3570611123826792
-1.4924595000126994
-1.7447928587777384
-1.6217034154777374
-1.5724676381577152
-1.5724676381577152
-1.590931054652717
-1.5847765824877347
-1.4986139721777092
-1.4863050278477177
-1.6401668319727392
-1.5724676381577152
-1.5355408051677124
-1.473996083517698
-1.683248137127724
-1.615548943312728
-1.504768444342719
-1.5355408051677124
-1.6217034154777374
-1.578622110322725
-1.5355408051677124
-1.5355408051677124
-1.5663131659927332
-1.5970855268177266
-0.889321227842632
-1.6463213041377216
-1.954044912387765
-1.5970855268177266
-1.6955570814577436
-1.5847765824877347
-1.578622110322725
-1.6032399989827366
-1.4555326670226965
-1.5970855268177266
-1.5663131659927332
-1.5478497494977315
-1.5970855268177266
-1.5847765824877347
-1.5663131659927332
-1.9601993845527748
-2.409475852597848
-0.8154675618626261
-1.289361918567683
-1.5847765824877347
-1.6032399989827366
-1.578622110322725
-1.5724676381577152
-1.5478497494977315
-1.4924595000126994
-1.6586302484677409
-1.5540042216627135
-1.6032399989827366
-1.6093944711477182
-1.6093944711477182
-1.4247603061977032
-1.4863050278477177
-1.5170773886727107
-1.6709391927977324
-1.5478497494977315
-1.590931054652717
-1.615548943312728
-1.5970855268177266
-1.5601586938277234
-1.4493781948577145
-1.5601586938277234
-1.6709391927977324
-1.5663131659927332
-1.5540042216627135
-1.4493781948577145
-1.6647847206327224
-1.5724676381577152
-0.3846545103125543
-0.37850003814754446
-2.55102871239285
-1.7140204979527456
-1.5970855268177266
-1.6032399989827366
-1.6093944711477182
-1.5724676381577152
-1.6709391927977324
-2.3848579639378364
-1.89865466290276
-1.615548943312728
-1.7386383866127564
-1.6463213041377216
-1.5724676381577152
-1.5170773886727107
-1.4555326670226965
-1.6586302484677409
-1.6463213041377216
-1.615548943312728
-1.5663131659927332
-1.5478497494977315
-1.5540042216627135
-1.5663131659927332
-1.437069250527695
-1.6093944711477182
-1.6647847206327224
-1.1539635309376628
-0.575443147427579
-1.8801912464077586
-1.578622110322725
-1.5355408051677124
-2.083288827852803
-2.138679077337807
-1.6709391927977324
-1.5847765824877347
-1.5355408051677124
-1.4986139721777092
-1.467841611352716
-1.3570611123826792
-1.5293863330027024
-1.590931054652717
-1.5847765824877347
-1.6032399989827366
-1.590931054652717
-1.5355408051677124
-1.5170773886727107
-0.9693293659876481
-1.677093664962742
-2.0217441062027888
-1.6463213041377216
-1.615548943312728
-1.4863050278477177
-1.6217034154777374
-1.6093944711477182
-1.4555326670226965
-1.6340123598077294
-1.590931054652717
-1.5355408051677124
-1.5540042216627135
-1.5355408051677124
-1.5355408051677124
-1.504768444342719
-1.437069250527695
-1.5970855268177266
-1.590931054652717
-1.400142417537692
-1.578622110322725
-1.590931054652717
-1.5478497494977315
-1.4555326670226965
-1.4186058340326935
-1.689402609292734
-1.5540042216627135
-1.473996083517698
-1.4555326670226965
-1.467841611352716
-1.4616871391877062
-1.4062968897027015
-1.4616871391877062
-1.473996083517698
-1.6524757763027313
-1.5355408051677124
-1.4616871391877062
-1.504768444342719
-1.5478497494977315
-1.467841611352716
-1.467841611352716
-1.6093944711477182
-1.5601586938277234
-1.861727829912757
-2.4402482134228407
-0.6862236463975879
-1.104727753617668
-1.3078253350626845
-1.6340123598077294
-1.578622110322725
-1.578622110322725
-1.5478497494977315
-1.510922916507701
-1.5293863330027024
-1.5847765824877347
-1.4801505556827075
-1.590931054652717
-1.578622110322725
-1.590931054652717
-1.578622110322725
-1.437069250527695
-1.3693700567126987
-1.504768444342719
-1.400142417537692
-1.6401668319727392
-1.5724676381577152
-1.5847765824877347
-1.6093944711477182
-1.5663131659927332
-1.578622110322725
-1.5970855268177266
-1.5355408051677124
-1.683248137127724
-1.5970855268177266
-1.5663131659927332
-1.8124920525927626
-1.7386383866127564
-1.6093944711477182
-1.5355408051677124
-1.5355408051677124
-1.6340123598077294
-1.5663131659927332
-1.5478497494977315
-1.5663131659927332
-1.5478497494977315
-1.5232318608377204
-1.473996083517698
-1.5355408051677124
-1.326288751557686
-1.3878334732077002
-1.5724676381577152
-1.5601586938277234
-1.5293863330027024
-1.5663131659927332
-1.5170773886727107
-1.5847765824877347
-1.5601586938277234
-1.4924595000126994
-1.4801505556827075
-1.510922916507701
-1.504768444342719
-1.4986139721777092
-0.7846952010376053
-0.5138984257775646
-1.9417359680577726
-1.615548943312728
-1.5478497494977315
-1.5478497494977315
-1.578622110322725
-1.5724676381577152
-1.7940286360977609
-2.378703491772827
-1.8678823020777668
-1.7509473309427481
-1.683248137127724
-1.6586302484677409
-1.6647847206327224
-1.7817196917677414
-1.578622110322725
-1.7386383866127564
-1.6586302484677409
-1.6278578876427194
-1.5847765824877347
-1.5724676381577152
-1.578622110322725
-1.5601586938277234
-1.5355408051677124
-1.7140204979527456
-1.6463213041377216
-1.6524757763027313
-1.5970855268177266
-1.7017115536227536
-1.6647847206327224
-1.6032399989827366
-1.6032399989827366
-1.683248137127724
-1.6463213041377216
-1.677093664962742
-1.7017115536227536
-1.6709391927977324
-1.6463213041377216
-1.6093944711477182
-1.7140204979527456
-1.5416952773327224
-1.3324432237226955
-1.5601586938277234
-1.6217034154777374
-1.6093944711477182
-1.5847765824877347
-1.5232318608377204
-1.7324839144477464
-1.7140204979527456
-1.6340123598077294
-1.6278578876427194
-1.6524757763027313
-1.6217034154777374
-1.5601586938277234
-1.4062968897027015
-1.830955469087764
-1.6955570814577436
-1.5478497494977315
-1.5232318608377204
-1.5355408051677124
-1.510922916507701
-1.4555326670226965
-1.7694107474377496
-2.55102871239285
-0.6923781185625978
-1.1355001144426613
-1.4616871391877062
-1.510922916507701
-1.473996083517698
-1.5847765824877347
-1.4986139721777092
-1.6463213041377216
-1.590931054652717
-1.5724676381577152
-1.5540042216627135
-1.5478497494977315
-1.5970855268177266
-1.5232318608377204
-1.5293863330027024
-1.6463213041377216
-1.5724676381577152
-1.5540042216627135
-1.4863050278477177
-1.6217034154777374
-1.5847765824877347
-1.5232318608377204
-1.578622110322725
-1.578622110322725
-1.5601586938277234
-1.5724676381577152
-1.5724676381577152
-1.5540042216627135
-1.5540042216627135
-1.4309147783627132
-1.5724676381577152
-1.510922916507701
-1.4616871391877062
-1.689402609292734
-1.6032399989827366
-1.5724676381577152
-1.5540042216627135
-1.467841611352716
-1.6340123598077294
-1.5970855268177266
-1.590931054652717
-1.6032399989827366
-1.578622110322725
-1.5663131659927332
-1.5478497494977315
-1.467841611352716
-1.677093664962742
-1.6401668319727392
-1.590931054652717
-1.615548943312728
-1.6524757763027313
-1.6278578876427194
-1.578622110322725
-1.5663131659927332
-1.7509473309427481
-1.6340123598077294
-1.6032399989827366
-1.1293456422776516
-0.33541873299255964
-2.0217441062027888
-1.830955469087764
-2.304849825792821
-2.0278985783677985
-1.6586302484677409
-1.6032399989827366
-1.6278578876427194
-1.6586302484677409
-1.6278578876427194
-1.578622110322725
-1.6524757763027313
-1.7140204979527456
-1.7324839144477464
-1.7078660257877356
-1.4186058340326935
-1.4555326670226965
-1.6401668319727392
-1.473996083517698
-1.6586302484677409
-1.6647847206327224
-1.6093944711477182
-1.578622110322725
-1.5847765824877347
-1.615548943312728
-1.5601586938277234
-1.4863050278477177
-1.6463213041377216
-1.6524757763027313
-1.5232318608377204
-1.7509473309427481
-1.7140204979527456
-1.7263294422827367
-1.7140204979527456
-1.6032399989827366
-1.818646524757745
-1.7386383866127564
-1.7201749701177547
-1.683248137127724
-1.6463213041377216
-1.6340123598077294
-1.5232318608377204
-0.7293049515526008
-2.975687291777912
-0.9939472546476313
-1.326288751557686
-1.6032399989827366
-1.5847765824877347
-1.5970855268177266
-1.6647847206327224
-2.335622186617841
-2.0955977721827947
-1.7447928587777384
-1.6955570814577436
-1.683248137127724
-1.6647847206327224
-1.5724676381577152
-1.1970448360926755
-1.6278578876427194
-1.689402609292734
-1.6647847206327224
-1.689402609292734
-1.7263294422827367
-1.677093664962742
-1.6463213041377216
-1.5478497494977315
-1.7386383866127564
-1.7632562752727399
-1.7509473309427481
-1.7263294422827367
-1.7201749701177547
-1.8063375804277528
-1.7324839144477464
-1.5724676381577152
-1.7940286360977609
-1.7447928587777384
-1.689402609292734
-1.689402609292734
-1.757101803107758
-1.7940286360977609
-1.7263294422827367
-1.6217034154777374
-1.830955469087764
-1.757101803107758
-1.677093664962742
-1.8248009969227534
-1.7940286360977609
-1.757101803107758
-1.689402609292734
-1.6709391927977324
-1.849418885582765
-1.8371099412527454
-1.7878741639327511
-1.7324839144477464
-1.7263294422827367
-1.7694107474377496
-1.6709391927977324
-1.689402609292734
-1.5540042216627135
-1.6647847206327224
-1.683248137127724
-1.6278578876427194
-1.6032399989827366
-1.6401668319727392
-1.8063375804277528
-2.754126293837894
-1.25243508557768
-1.000101726812641
-1.5724676381577152
-1.6032399989827366
-1.6032399989827366
-1.6401668319727392
-0.7846952010376053
-0.8523943948526291
-1.504768444342719
-1.5724676381577152
-1.615548943312728
-1.6217034154777374
-1.5601586938277234
-1.504768444342719
-1.5170773886727107
-1.1908903639276658
-0.1692479845375183
-1.972508328882766
-1.6586302484677409
-1.6709391927977324
-2.3171587701228398
-2.114061188677796
-2.089443300017785
-2.409475852597848
-1.8371099412527454
-1.7078660257877356
-1.677093664962742
-1.677093664962742
-1.6340123598077294
-1.5540042216627135
-1.5724676381577152
-1.8001831082627426
-1.6955570814577436
-1.6093944711477182
-1.677093664962742
-1.830955469087764
-1.7017115536227536
-1.615548943312728
-1.7140204979527456
-1.7632562752727399
-1.6647847206327224
-1.6463213041377216
-1.6463213041377216
-1.6340123598077294
-1.6217034154777374
-1.5601586938277234
-1.677093664962742
-1.683248137127724
-1.6463213041377216
-1.6586302484677409
-1.6093944711477182
-1.6463213041377216
-1.677093664962742
-1.5170773886727107
-1.6586302484677409
-1.6647847206327224
-1.6524757763027313
-1.5970855268177266
-1.6093944711477182
-1.6524757763027313
-1.7017115536227536
-1.467841611352716
-1.7201749701177547
-1.7201749701177547
-1.6401668319727392
-1.590931054652717
-1.5601586938277234
-1.5416952773327224
-1.5355408051677124
-1.4863050278477177
-1.6647847206327224
-1.6032399989827366
-1.6278578876427194
-1.6647847206327224
-1.6278578876427194
-1.473996083517698
-1.6032399989827366
-1.510922916507701
-1.9848172732127856
-2.4894839907428636
-0.7169960072226089
-1.2278171969176688
-1.4616871391877062
-1.4493781948577145
-1.3816790010426905
-1.4616871391877062
-1.6463213041377216
-1.590931054652717
-1.683248137127724
-1.8063375804277528
-1.9171180793977614
-1.7017115536227536
-1.590931054652717
-1.6093944711477182
-1.6586302484677409
-1.615548943312728
-1.5540042216627135
-1.5170773886727107
-1.4801505556827075
-1.437069250527695
-1.3570611123826792
-1.6278578876427194
-1.6093944711477182
-1.2770529742376913
-1.5293863330027024
-1.578622110322725
-1.578622110322725
-1.5601586938277234
-1.4616871391877062
-1.6586302484677409
-1.5724676381577152
-1.510922916507701
-1.4924595000126994
-1.510922916507701
-1.5355408051677124
-1.4863050278477177
-1.3816790010426905
-1.6463213041377216
-1.7017115536227536
-1.6340123598077294
-1.6278578876427194
-1.6647847206327224
-1.677093664962742
-1.6093944711477182
-1.4801505556827075
-1.6586302484677409
-1.5724676381577152
-1.5170773886727107
-1.4863050278477177
-1.504768444342719
-1.5232318608377204
-1.5170773886727107
-1.6032399989827366
-1.7017115536227536
-1.683248137127724
-1.7078660257877356
-1.7078660257877356
-1.184735891762656
-0.4831260649525715
-2.2186872154828228
-2.471020574247862
-2.0217441062027888
-1.6463213041377216
-1.578622110322725
-1.3570611123826792
-1.4801505556827075
-1.5478497494977315
-1.467841611352716
-1.6524757763027313
-1.689402609292734
-1.7078660257877356
-1.7386383866127564
-1.7632562752727399
-1.7509473309427481
-1.7386383866127564
-1.615548943312728
-1.6709391927977324
-1.5540042216627135
-1.363215584547689
-1.5847765824877347
-1.5663131659927332
-1.510922916507701
-1.4924595000126994
-1.4432237226927047
-1.7078660257877356
-1.6032399989827366
-1.590931054652717
-1.6217034154777374
-1.6463213041377216
-1.590931054652717
-1.5478497494977315
-1.5232318608377204
-1.6032399989827366
-1.7201749701177547
-1.6278578876427194
-1.5970855268177266
-1.6093944711477182
-1.5970855268177266
-1.504768444342719
-1.510922916507701
-1.5970855268177266
-1.504768444342719
-1.4555326670226965
-1.510922916507701
-1.5601586938277234
-1.510922916507701
-1.473996083517698
-1.6278578876427194
-1.5970855268177266
-1.6217034154777374
-1.590931054652717
-1.5724676381577152
-1.6093944711477182
-1.6278578876427194
-1.4924595000126994
-1.6586302484677409
-1.6217034154777374
-1.578622110322725
-1.5847765824877347
-1.5232318608377204
-1.9171180793977614
-2.6433457948678853
-0.6800691742326057
-1.3016708628976748
-1.5232318608377204
-1.5170773886727107
-1.5478497494977315
-1.504768444342719
-1.4801505556827075
-1.4493781948577145
-1.3324432237226955
-1.5416952773327224
-1.4924595000126994
-1.3447521680526875
-1.2462806134126705
-1.510922916507701
-1.5663131659927332
-1.5293863330027024
-1.5232318608377204
-1.7386383866127564
-1.6278578876427194
-1.6093944711477182
-1.5724676381577152
-1.510922916507701
-1.467841611352716
-1.4493781948577145
-1.5416952773327224
-1.6340123598077294
-1.8063375804277528
-1.6340123598077294
-1.615548943312728
-1.6217034154777374
-1.6278578876427194
-1.615548943312728
-1.6709391927977324
-1.7017115536227536
-1.615548943312728
-1.5601586938277234
-1.5847765824877347
-1.5540042216627135
-1.5601586938277234
-1.3447521680526875
-1.5293863330027024
-1.5663131659927332
-1.510922916507701
-1.5170773886727107
-1.5416952773327224
-1.5663131659927332
-1.578622110322725
-0.6923781185625978
-1.1231911701126696
-1.7817196917677414
-1.5478497494977315
-1.5416952773327224
-1.5540042216627135
-1.677093664962742
-1.7140204979527456
-1.91096360723278
-2.255614048472826
-1.2462806134126705
-0.26771953917753555
-2.052516467027782
-1.6524757763027313
-1.6093944711477182
-1.5847765824877347
-2.077134355687793
-2.2309961598128147
-1.7817196917677414
-1.6217034154777374
-1.510922916507701
-1.677093664962742
-1.7324839144477464
-1.4801505556827075
-1.5293863330027024
-1.7324839144477464
-1.7078660257877356
-1.7140204979527456
-1.6524757763027313
-1.6340123598077294
-1.6401668319727392
-1.590931054652717
-1.590931054652717
-1.504768444342719
-1.5601586938277234
-1.5970855268177266
-1.5724676381577152
-1.578622110322725
-1.578622110322725
-1.5478497494977315
-1.6955570814577436
-1.6340123598077294
-1.578622110322725
-1.578622110322725
-1.5478497494977315
-1.504768444342719
-1.4493781948577145
-0.901630172172624
-0.4831260649525715
-1.25243508557768
-1.437069250527695
-1.5540042216627135
-1.6463213041377216
-1.683248137127724
-1.689402609292734
-1.6524757763027313
-1.91096360723278
-1.8063375804277528
-1.7078660257877356
-1.6401668319727392
-1.6093944711477182
-2.1571424938328088
-2.4402482134228407
-1.6955570814577436
-1.7509473309427481
-1.6401668319727392
-1.6217034154777374
-1.6463213041377216
-1.7447928587777384
-1.7694107474377496
-1.683248137127724
-1.7940286360977609
-1.892500190737778
-2.120215660842805
-2.6618092113628857
-0.6800691742326057
-1.4124513618677115
-1.8063375804277528
-1.7201749701177547
-1.7324839144477464
-1.7140204979527456
-1.6647847206327224
-1.6463213041377216
-1.6586302484677409
-1.7263294422827367
-1.7878741639327511
-1.6524757763027313
-1.677093664962742
-1.6524757763027313
-1.5847765824877347
-1.7817196917677414
-1.683248137127724
-1.6217034154777374
-1.6032399989827366
-1.510922916507701
-1.7509473309427481
-1.7263294422827367
-1.7694107474377496
-1.8063375804277528
-1.8740367742427766
-1.8371099412527454
-1.830955469087764
-1.683248137127724
-1.8001831082627426
-1.8432644134177558
-1.8124920525927626
-1.818646524757745
-1.8124920525927626
-1.8001831082627426
-1.8001831082627426
-1.8124920525927626
-1.9971262175427773
-1.8740367742427766
-1.818646524757745
-1.8124920525927626
-1.7878741639327511
-1.6586302484677409
-1.5663131659927332
-1.6709391927977324
-1.7386383866127564
-1.6463213041377216
-1.6217034154777374
-1.6524757763027313
-1.6709391927977324
-1.683248137127724
-1.6217034154777374
-1.7509473309427481
-1.8678823020777668
-1.7817196917677414
-1.7878741639327511
-1.683248137127724
-1.8432644134177558
-1.1970448360926755
-0.4523537041275505
-2.815671015487909
-1.9355814958927628
-1.5847765824877347
-1.5293863330027024
-1.5601586938277234
-1.6217034154777374
-1.6278578876427194
-1.510922916507701
-1.677093664962742
-1.6217034154777374
-1.510922916507701
-1.6586302484677409
-1.5970855268177266
-1.615548943312728
-1.5970855268177266
-1.510922916507701
-1.7140204979527456
-1.6032399989827366
-1.5540042216627135
-1.510922916507701
-1.4801505556827075
-1.4986139721777092
-1.4863050278477177
-1.467841611352716
-1.473996083517698
-1.6709391927977324
-1.6093944711477182
-1.5355408051677124
-1.4863050278477177
-1.437069250527695
-1.3016708628976748
-1.3201342793926762
-1.5170773886727107
-1.5170773886727107
-1.5478497494977315
-1.5601586938277234
-1.5293863330027024
-1.467841611352716
-1.25243508557768
-1.5232318608377204
-1.467841611352716
-1.400142417537692
-1.400142417537692
-1.3878334732077002
-1.4124513618677115
-1.4432237226927047
-1.3385976958876775
-1.4309147783627132
-1.3447521680526875
-1.3139798072276945
-1.3816790010426905
-1.400142417537692
-1.4493781948577145
-1.5540042216627135
-1.400142417537692
-1.590931054652717
-1.5293863330027024
-1.4616871391877062
-1.4493781948577145
-1.4863050278477177
-1.4924595000126994
-1.8248009969227534
-2.3417766587828237
-0.7908496732026148
-1.2278171969176688
-1.4309147783627132
-1.5170773886727107
-1.4924595000126994
-1.4309147783627132
-1.3570611123826792
-1.3816790010426905
-1.6217034154777374
-1.590931054652717
-1.5416952773327224
-1.4986139721777092
-1.4863050278477177
-1.504768444342719
-1.4555326670226965
-1.5232318608377204
-1.4924595000126994
-1.6278578876427194
-1.6340123598077294
-1.5724676381577152
-1.5293863330027024
-1.5232318608377204
-1.437069250527695
-1.5355408051677124
-1.6093944711477182
-1.6032399989827366
-1.6093944711477182
-1.5847765824877347
-1.5540042216627135
-1.5847765824877347
-1.4186058340326935
-1.6217034154777374
-1.6217034154777374
-1.6093944711477182
-1.615548943312728
-1.6463213041377216
-1.6340123598077294
-1.6217034154777374
-1.467841611352716
-1.7324839144477464
-1.6955570814577436
-1.6955570814577436
-1.7078660257877356
-1.6463213041377216
-1.5170773886727107
-1.7017115536227536
-1.5847765824877347
-1.7263294422827367
-1.689402609292734
-1.6955570814577436
-1.6955570814577436
-1.7201749701177547
-1.7386383866127564
-1.6709391927977324
-1.5970855268177266
-1.8063375804277528
-1.757101803107758
-1.215508252587677
-0.26771953917753555
-2.052516467027782
-1.7386383866127564
-1.6340123598077294
-2.304849825792821
-2.255614048472826
-1.8371099412527454
-1.8248009969227534
-1.861727829912757
-1.849418885582765
-1.849418885582765
-1.7694107474377496
-1.818646524757745
-1.7940286360977609
-1.818646524757745
-1.855573357747775
-1.7509473309427481
-1.7386383866127564
-1.7386383866127564
-1.5663131659927332
-1.7201749701177547
-1.6955570814577436
-1.689402609292734
-1.7078660257877356
-1.7201749701177547
-1.7201749701177547
-1.7078660257877356
-1.4986139721777092
-1.6524757763027313
-1.7201749701177547
-1.683248137127724
-1.6709391927977324
-1.6524757763027313
-1.7140204979527456
-1.7694107474377496
-1.7263294422827367
-1.8678823020777668
-1.818646524757745
-1.7940286360977609
-1.7509473309427481
-1.7324839144477464
-1.6217034154777374
-1.7817196917677414
-1.6032399989827366
-1.7140204979527456
-1.677093664962742
-1.689402609292734
-1.6955570814577436
-1.6955570814577436
-1.7509473309427481
-1.7447928587777384
-1.7755652196027594
-1.8740367742427766
-1.757101803107758
-1.7201749701177547
-1.5293863330027024
-1.6278578876427194
-1.5601586938277234
-1.0862643371226666
-1.1601180031026725
-2.446402685587851
-0.5631342030975872
-1.3139798072276945
-1.5293863330027024
-1.590931054652717
-1.6032399989827366
-1.7201749701177547
-2.4525571577528327
-1.9171180793977614
-1.578622110322725
-1.7755652196027594
-1.7017115536227536
-1.6709391927977324
-1.6401668319727392
-1.504768444342719
-1.7078660257877356
-1.6401668319727392
-1.5847765824877347
-1.578622110322725
-1.590931054652717
-1.5478497494977315
-1.4801505556827075
-1.3201342793926762
-1.590931054652717
-1.6709391927977324
-1.677093664962742
-1.6709391927977324
-1.7201749701177547
-1.6955570814577436
-1.6401668319727392
-1.5847765824877347
-1.8063375804277528
-1.689402609292734
-1.6401668319727392
-1.6217034154777374
-1.6463213041377216
-1.6217034154777374
-1.9171180793977614
-1.830955469087764
-1.7263294422827367
-1.6463213041377216
-1.6463213041377216
-1.615548943312728
-1.6093944711477182
-1.6401668319727392
-1.5847765824877347
-1.6586302484677409
-1.7140204979527456
-1.677093664962742
-1.7140204979527456
-1.3509066402176972
-1.2647440299076718
-1.5170773886727107
-1.473996083517698
-1.5847765824877347
-1.5847765824877347
-1.5724676381577152
-1.578622110322725
-1.615548943312728
-1.615548943312728
-1.5847765824877347
-1.0493375041326358
-1.4555326670226965
-2.255614048472826
-0.4585081762925601
-1.4247603061977032
-1.5663131659927332
-1.5355408051677124
-1.5170773886727107
-1.8371099412527454
-2.3110042979578305
-1.757101803107758
-1.615548943312728
-1.6524757763027313
-1.6524757763027313
-1.6709391927977324
-1.615548943312728
-1.6093944711477182
-1.6586302484677409
-1.7017115536227536
-1.6340123598077294
-1.615548943312728
-1.6032399989827366
-1.5540042216627135
-1.4801505556827075
-1.5232318608377204
-1.6278578876427194
-1.6032399989827366
-1.590931054652717
-1.6093944711477182
-1.6524757763027313
-1.615548943312728
-1.5170773886727107
-1.7509473309427481
-1.7017115536227536
-1.6340123598077294
-1.615548943312728
-1.6217034154777374
-1.615548943312728
-1.5970855268177266
-1.5232318608377204
-1.6217034154777374
-1.6647847206327224
-1.6217034154777374
-1.5847765824877347
-1.4801505556827075
-1.437069250527695
-1.6278578876427194
-1.467841611352716
-1.615548943312728
-1.6093944711477182
-1.6093944711477182
-1.5970855268177266
-1.5601586938277234
-1.578622110322725
-1.615548943312728
-1.4986139721777092
-1.7140204979527456
-1.6586302484677409
-1.7017115536227536
-1.9971262175427773
-1.7817196917677414
-1.6586302484677409
-1.677093664962742
-2.544874240227868
-1.2770529742376913
-0.8154675618626261
-1.4186058340326935
-1.4924595000126994
-1.4924595000126994
-1.473996083517698
-1.473996083517698
-1.5293863330027024
-1.3385976958876775
-1.2708985020726815
-1.4555326670226965
-1.5232318608377204
-1.5170773886727107
-1.510922916507701
-1.473996083517698
-1.5232318608377204
-1.5540042216627135
-1.4986139721777092
-1.504768444342719
-1.5478497494977315
-1.5601586938277234
-1.578622110322725
-1.4493781948577145
-1.6709391927977324
-1.6278578876427194
-1.578622110322725
-1.5663131659927332
-1.578622110322725
-1.5478497494977315
-1.5170773886727107
-1.400142417537692
-1.615548943312728
-1.578622110322725
-1.510922916507701
-1.4616871391877062
-1.4924595000126994
-1.3878334732077002
-1.5293863330027024
-1.4247603061977032
-1.5970855268177266
-1.5601586938277234
-1.504768444342719
-1.4801505556827075
-1.4801505556827075
-1.4616871391877062
-1.4124513618677115
-1.3693700567126987
-1.5601586938277234
-1.4863050278477177
-1.4309147783627132
-1.4555326670226965
-1.590931054652717
-1.4863050278477177
-1.4186058340326935
-1.3816790010426905
-1.5293863330027024
-1.467841611352716
-1.4801505556827075
-0.9939472546476313
-0.3846545103125543
-1.7940286360977609
-1.4616871391877062
-2.064825411357801
-1.677093664962742
-1.3078253350626845
-1.4186058340326935
-1.3693700567126987
-1.3385976958876775
-1.363215584547689
-1.3570611123826792
-1.4801505556827075
-1.4616871391877062
-1.4309147783627132
-1.3509066402176972
-1.2832074464026733
-1.2708985020726815
-1.2955163907326928
-1.141654586607671
-1.4493781948577145
-1.504768444342719
-1.4555326670226965
-1.504768444342719
-1.5293863330027024
-1.510922916507701
-1.4493781948577145
-1.2955163907326928
-1.504768444342719
-1.4186058340326935
-1.3324432237226955
-1.2585895577426898
-1.289361918567683
-1.1724269474326645
-1.2832074464026733
-1.2770529742376913
-1.5170773886727107
-1.4801505556827075
-1.3755245288776807
-1.4493781948577145
-1.4432237226927047
-1.4186058340326935
-1.3570611123826792
-1.3693700567126987
-1.4863050278477177
-1.3755245288776807
-1.3509066402176972
-1.1355001144426613
-1.363215584547689
-1.3755245288776807
-1.25243508557768
-1.3693700567126987
-1.4616871391877062
-1.4062968897027015
-1.3878334732077002
-1.4247603061977032
-1.4616871391877062
-1.437069250527695
-0.7539228402126119
-1.4801505556827075
-1.892500190737778
-1.3693700567126987
-1.4555326670226965
-1.7940286360977609
-2.3540856031128428
-0.5569797309325777
-0.9939472546476313
-1.4309147783627132
-1.4309147783627132
-1.437069250527695
-1.4124513618677115
-1.3878334732077002
-1.4247603061977032
-1.467841611352716
-1.3324432237226955
-1.5601586938277234
-1.5970855268177266
-1.5293863330027024
-1.5416952773327224
-1.5293863330027024
-1.5170773886727107
-1.4924595000126994
-1.4186058340326935
-1.6217034154777374
-1.5293863330027024
-1.4986139721777092
-1.504768444342719
-1.4924595000126994
-1.400142417537692
-1.4186058340326935
-1.4555326670226965
-1.5970855268177266
-1.4986139721777092
-1.4863050278477177
-1.5724676381577152
-1.6524757763027313
-1.6278578876427194
-1.5170773886727107
-1.5293863330027024
-1.6340123598077294
-1.5478497494977315
-1.4924595000126994
-1.3078253350626845
-1.4309147783627132
-1.4493781948577145
-0.7970041453676248
-1.615548943312728
-2.114061188677796
-1.6955570814577436
-1.6032399989827366
-1.6032399989827366
-1.6032399989827366
-1.590931054652717
-1.504768444342719
-1.7078660257877356
-1.683248137127724
-1.4986139721777092
-1.6463213041377216
-1.6278578876427194
-1.6217034154777374
-1.5970855268177266
-1.4863050278477177
-1.2401261412476885
-0.31695531649755804
-2.114061188677796
-1.7140204979527456
-1.590931054652717
-1.5540042216627135
-1.5293863330027024
-1.0985732814526583
-3.301874316522985
-1.0862643371226666
-1.1724269474326645
-1.578622110322725
-1.6278578876427194
-1.6217034154777374
-1.6032399989827366
-2.200223798987821
-2.175605910327811
-1.7694107474377496
-1.7078660257877356
-1.6955570814577436
-1.6524757763027313
-1.677093664962742
-1.615548943312728
-1.830955469087764
-1.7817196917677414
-1.6709391927977324
-1.6647847206327224
-1.6401668319727392
-1.615548943312728
-1.6093944711477182
-0.9631748938226381
-1.7324839144477464
-2.0955977721827947
-1.6955570814577436
-1.6647847206327224
-1.578622110322725
-1.5601586938277234
-1.7017115536227536
-1.578622110322725
-1.7324839144477464
-1.6647847206327224
-1.6217034154777374
-1.6278578876427194
-1.6340123598077294
-1.5970855268177266
-1.5540042216627135
-1.4493781948577145
-1.7386383866127564
-1.6524757763027313
-1.5663131659927332
-1.5847765824877347
-1.6093944711477182
-1.5540042216627135
-1.510922916507701
-1.4555326670226965
-1.6278578876427194
-1.4986139721777092
-1.4493781948577145
-1.473996083517698
-1.4863050278477177
-1.4801505556827075
-1.4124513618677115
-1.4493781948577145
-1.4493781948577145
-1.5540042216627135
-1.5355408051677124
-1.4863050278477177
-1.4432237226927047
-1.4309147783627132
-1.4186058340326935
-2.3848579639378364
-1.2585895577426898
-0.6739147020675963
-1.2832074464026733
-1.3016708628976748
-1.3816790010426905
-1.4062968897027015
0.003077236082504875
-1.5170773886727107
-2.477175046412844
-1.6524757763027313
-1.5170773886727107
-1.4555326670226965
-1.4309147783627132
-1.400142417537692
-1.3139798072276945
-1.5232318608377204
-1.504768444342719
-1.4801505556827075
-1.467841611352716
-1.4493781948577145
-1.2708985020726815
-1.4247603061977032
-1.2832074464026733
-1.504768444342719
-1.4432237226927047
-1.4186058340326935
-1.437069250527695
-1.4493781948577145
-1.4432237226927047
-1.4124513618677115
-1.3447521680526875
-1.590931054652717
-1.467841611352716
-1.4124513618677115
-1.4924595000126994
-1.615548943312728
-1.4863050278477177
-1.4247603061977032
-1.4309147783627132
-1.5540042216627135
-1.4555326670226965
-1.4493781948577145
-1.4616871391877062
-1.4555326670226965
-1.4863050278477177
-1.4062968897027015
-1.5663131659927332
-1.578622110322725
-1.473996083517698
-1.590931054652717
-1.5416952773327224
-1.0493375041326358
-0.2246382340225228
-2.070979883522784
-2.4217847969278394
-2.003280689707787
-1.6586302484677409
-1.590931054652717
-1.5540042216627135
-1.5663131659927332
-1.615548943312728
-1.5478497494977315
-1.9294270237277809
-1.7509473309427481
-1.6032399989827366
-1.590931054652717
-1.615548943312728
-1.6217034154777374
-1.5601586938277234
-1.4432237226927047
-1.6524757763027313
-1.677093664962742
-1.6217034154777374
-1.6340123598077294
-1.6955570814577436
-1.3816790010426905
-1.3755245288776807
-1.5416952773327224
-1.7447928587777384
-1.7263294422827367
-1.683248137127724
-1.6524757763027313
-1.6955570814577436
-1.689402609292734
-1.6401668319727392
-1.6217034154777374
-1.7940286360977609
-1.6955570814577436
-1.689402609292734
-1.5847765824877347
-1.7755652196027594
-1.683248137127724
-1.578622110322725
-1.6217034154777374
-1.7017115536227536
-1.6278578876427194
-1.5663131659927332
-1.6093944711477182
-1.6586302484677409
-1.590931054652717
-1.6340123598077294
-1.5970855268177266
-1.615548943312728
-1.473996083517698
-1.677093664962742
-1.6463213041377216
-1.6217034154777374
-1.6032399989827366
-1.5232318608377204
-1.7140204979527456
-1.6586302484677409
-1.5970855268177266
-1.6401668319727392
-1.6586302484677409
-1.9601993845527748
-2.5387197680628573
-0.5939065639225805
-1.2585895577426898
-1.6709391927977324
-1.6032399989827366
-1.6217034154777374
-1.6217034154777374
-1.6217034154777374
-1.5478497494977315
-1.473996083517698
-1.7078660257877356
-1.6586302484677409
-1.615548943312728
-1.6217034154777374
-1.6278578876427194
-1.504768444342719
-1.437069250527695
-1.5170773886727107
-1.6217034154777374
-1.578622110322725
-1.5847765824877347
-1.5724676381577152
-1.5847765824877347
-1.615548943312728
-1.5478497494977315
-1.590931054652717
-1.683248137127724
-1.6093944711477182
-1.590931054652717
-1.2093537804226673
-0.6554512855725947
-1.289361918567683
-1.510922916507701
-1.5601586938277234
-1.510922916507701
-1.5478497494977315
-1.5478497494977315
-1.578622110322725
-1.578622110322725
-1.6093944711477182
-1.4986139721777092
-1.6278578876427194
-1.6524757763027313
-2.083288827852803
-2.4279392690928487
-1.8124920525927626
-1.6586302484677409
-1.6093944711477182
-1.4616871391877062
-1.5970855268177266
-1.590931054652717
-1.5970855268177266
-1.578622110322725
-1.504768444342719
-1.5170773886727107
-1.4986139721777092
-1.4924595000126994
-1.5416952773327224
-1.1170366979476598
-0.3415732051575415
-2.0340530505327803
-1.615548943312728
-1.4863050278477177
-1.4555326670226965
-2.0278985783677985
-2.0955977721827947
-1.615548943312728
-1.578622110322725
-1.5724676381577152
-1.5355408051677124
-1.5232318608377204
-1.3447521680526875
-1.6647847206327224
-1.677093664962742
-1.5663131659927332
-1.5540042216627135
-1.5663131659927332
-1.5416952773327224
-1.5478497494977315
-1.4616871391877062
-1.5663131659927332
-1.5601586938277234
-1.5170773886727107
-1.4924595000126994
-1.4432237226927047
-1.4616871391877062
-1.615548943312728
-1.4186058340326935
-1.5540042216627135
-1.5663131659927332
-1.5293863330027024
-1.4801505556827075
-1.4801505556827075
-1.4924595000126994
-1.4801505556827075
-1.3693700567126987
-1.4924595000126994
-1.4863050278477177
-1.3139798072276945
-1.3201342793926762
-1.504768444342719
-1.4801505556827075
-1.4616871391877062
-1.3447521680526875
-1.6217034154777374
-1.5663131659927332
-1.5601586938277234
-1.5478497494977315
-1.5293863330027024
-1.5416952773327224
-1.467841611352716
-1.4986139721777092
-1.4801505556827075
-1.590931054652717
-1.6217034154777374
-1.5663131659927332
-1.5232318608377204
-1.5232318608377204
-1.4247603061977032
-1.4616871391877062
-1.5847765824877347
-1.861727829912757
-2.4587116299178424
-0.6985325907276074
-1.25243508557768
-1.6217034154777374
-1.4986139721777092
-1.683248137127724
-1.677093664962742
-1.6647847206327224
-1.689402609292734
-1.6709391927977324
-1.6524757763027313
-1.615548943312728
-0.9570204216576284
-0.6000610360875902
-2.04020752269779
-1.6401668319727392
-1.6093944711477182
-1.6340123598077294
-1.4801505556827075
-1.6524757763027313
-1.8371099412527454
-2.477175046412844
-1.8801912464077586
-1.6524757763027313
-1.615548943312728
-1.6401668319727392
-1.6340123598077294
-1.5293863330027024
-1.4493781948577145
-1.6093944711477182
-1.504768444342719
-1.4924595000126994
-1.4616871391877062
-1.615548943312728
-1.578622110322725
-1.504768444342719
-1.437069250527695
-1.6586302484677409
-1.5663131659927332
-1.5478497494977315
-1.5293863330027024
-1.4801505556827075
-1.504768444342719
-1.4432237226927047
-1.4863050278477177
-1.5416952773327224
-1.4616871391877062
-1.6032399989827366
-1.5293863330027024
-1.5293863330027024
-1.5355408051677124
-1.4924595000126994
-1.5601586938277234
-1.5724676381577152
-1.5170773886727107
-1.5416952773327224
-1.5170773886727107
-1.510922916507701
-1.0247196154726523
-0.21232928969253104
-2.304849825792821
-1.7140204979527456
-1.5416952773327224
-1.5540042216627135
-1.5355408051677124
-1.4863050278477177
-1.4801505556827075
-1.4062968897027015
-1.578622110322725
-1.4986139721777092
-1.504768444342719
-1.510922916507701
-1.5540042216627135
-1.689402609292734
-1.9294270237277809
-1.590931054652717
-1.689402609292734
-1.5970855268177266
-1.5540042216627135
-1.5601586938277234
-1.5724676381577152
-1.5416952773327224
-1.4555326670226965
-1.4555326670226965
-1.6524757763027313
-1.5540042216627135
-1.5416952773327224
-1.4247603061977032
-1.578622110322725
-1.615548943312728
-1.510922916507701
-1.5478497494977315
-1.6463213041377216
-1.5601586938277234
-1.5416952773327224
-1.5847765824877347
-1.6401668319727392
-1.6278578876427194
-1.5293863330027024
-1.578622110322725
-1.6217034154777374
-1.5540042216627135
-1.6586302484677409
-1.6032399989827366
-1.615548943312728
-1.5724676381577152
-1.4801505556827075
-1.6340123598077294
-1.578622110322725
-1.5478497494977315
-1.5416952773327224
-1.5355408051677124
-1.5601586938277234
-1.5478497494977315
-1.3816790010426905
-1.6463213041377216
-1.689402609292734
-1.5847765824877347
-1.590931054652717
-1.5232318608377204
-1.510922916507701
-1.861727829912757
-2.4217847969278394
-0.7846952010376053
-1.2031993082576575
-1.5478497494977315
-1.5478497494977315
-1.5170773886727107
-1.4863050278477177
-1.504768444342719
-1.5724676381577152
-1.6524757763027313
-1.5355408051677124
-1.5478497494977315
-1.5663131659927332
-1.5663131659927332
-1.5355408051677124
-1.4863050278477177
-1.5416952773327224
-1.6278578876427194
-1.5724676381577152
-1.5724676381577152
-1.4309147783627132
-1.3755245288776807
-1.504768444342719
-1.473996083517698
-1.5663131659927332
-1.6093944711477182
-1.5478497494977315
-1.510922916507701
-1.504768444342719
-1.4863050278477177
-1.4986139721777092
-1.4186058340326935
-1.590931054652717
-1.5970855268177266
-1.4555326670226965
-1.677093664962742
-1.6217034154777374
-1.5724676381577152
-1.5478497494977315
-1.437069250527695
-1.6340123598077294
-1.6032399989827366
-1.5724676381577152
-1.5478497494977315
-1.5478497494977315
-1.5663131659927332
-1.4801505556827075
-1.3878334732077002
-1.5847765824877347
-1.6647847206327224
-1.5601586938277234
-1.5170773886727107
-1.5416952773327224
-1.5293863330027024
-1.473996083517698
-1.400142417537692
-1.5170773886727107
-1.504768444342719
-1.0062561989776508
-0.15693904020752658
-2.003280689707787
-1.5970855268177266
-1.400142417537692
-2.249459576307816
-2.083288827852803
-1.6647847206327224
-1.5970855268177266
-1.578622110322725
-1.5416952773327224
-1.578622110322725
-1.5601586938277234
-1.590931054652717
-1.6093944711477182
-1.590931054652717
-1.6032399989827366
-1.5355408051677124
-1.4062968897027015
-1.5724676381577152
-1.4555326670226965
-1.5724676381577152
-1.5724676381577152
-1.5478497494977315
-1.504768444342719
-1.504768444342719
-1.5355408051677124
-1.5232318608377204
-1.363215584547689
-1.6340123598077294
-1.6032399989827366
-1.4432237226927047
-1.473996083517698
-1.6217034154777374
-1.5416952773327224
-1.4801505556827075
-1.400142417537692
-1.6524757763027313
-1.5847765824877347
-1.5170773886727107
-1.5232318608377204
-1.5416952773327224
-1.5478497494977315
-1.5232318608377204
-1.473996083517698
-1.5478497494977315
-1.5847765824877347
-1.5663131659927332
-1.4986139721777092
-1.4986139721777092
-1.5170773886727107
-1.4616871391877062
-1.504768444342719
-1.6709391927977324
-1.6093944711477182
-1.5478497494977315
-1.5293863330027024
-1.5540042216627135
-1.5663131659927332
-1.3447521680526875
-1.473996083517698
-1.6340123598077294
-1.6463213041377216
-1.990971745377768
-2.581801073217871
-0.7846952010376053
-1.2770529742376913
-1.5355408051677124
-1.6647847206327224
-1.7017115536227536
-1.6955570814577436
-1.683248137127724
-1.6586302484677409
-1.6032399989827366
-1.7694107474377496
-1.5540042216627135
-1.689402609292734
-1.6217034154777374
-1.6340123598077294
-1.6278578876427194
-1.6463213041377216
-1.683248137127724
-1.6586302484677409
-1.6278578876427194
-1.7509473309427481
-1.7140204979527456
-1.6955570814577436
-1.6463213041377216
-1.7940286360977609
-1.7078660257877356
-1.677093664962742
-1.6524757763027313
-1.757101803107758
-1.683248137127724
-1.7140204979527456
-1.7263294422827367
-1.683248137127724
-1.677093664962742
-1.6278578876427194
-1.689402609292734
-1.8001831082627426
-1.677093664962742
-1.7755652196027594
-1.7201749701177547
-1.7140204979527456
-1.7324839144477464
-1.6340123598077294
-1.7263294422827367
-1.7140204979527456
-1.6586302484677409
-1.6278578876427194
-1.6340123598077294
-1.6217034154777374
-1.6586302484677409
-1.6032399989827366
-1.8371099412527454
-1.7755652196027594
-1.6586302484677409
-1.6401668319727392
-1.6278578876427194
-1.6586302484677409
-1.6524757763027313
-1.0554919762976458
-0.4092723989725655
-2.114061188677796
-1.683248137127724
-1.5847765824877347
-1.615548943312728
-1.510922916507701
-1.5970855268177266
-2.0217441062027888
-2.3848579639378364
-1.8678823020777668
-1.689402609292734
-1.6524757763027313
-1.683248137127724
-1.6709391927977324
-1.6524757763027313
-1.6032399989827366
-1.7324839144477464
-1.689402609292734
-1.7140204979527456
-1.5232318608377204
-1.683248137127724
-1.7386383866127564
-1.4432237226927047
-1.0247196154726523
-2.778744182497905
-0.6492968134075847
-1.3570611123826792
-1.5970855268177266
-1.6278578876427194
-1.6586302484677409
-1.7078660257877356
-2.335622186617841
-2.070979883522784
-1.6463213041377216
-1.7755652196027594
-1.6955570814577436
-1.6647847206327224
-1.6463213041377216
-1.5724676381577152
-1.7201749701177547
-1.6955570814577436
-1.6647847206327224
-1.689402609292734
-1.6709391927977324
-1.5970855268177266
-1.5724676381577152
-1.4124513618677115
-1.5540042216627135
-1.7509473309427481
-1.683248137127724
-1.7017115536227536
-1.7078660257877356
-1.7201749701177547
-1.677093664962742
-1.615548943312728
-1.7324839144477464
-1.5970855268177266
-1.5416952773327224
-1.5293863330027024
-1.578622110322725
-1.5293863330027024
-1.4616871391877062
-1.6401668319727392
-1.8248009969227534
-1.7201749701177547
-1.6709391927977324
-1.6524757763027313
-1.6709391927977324
-1.6524757763027313
-1.5601586938277234
-1.5355408051677124
-1.6647847206327224
-1.6955570814577436
-1.4801505556827075
-1.4924595000126994
-1.683248137127724
-1.689402609292734
-1.5416952773327224
-1.615548943312728
-1.683248137127724
-1.6278578876427194
-1.6093944711477182
-1.578622110322725
-1.5416952773327224
-1.5540042216627135
-1.6401668319727392
-2.612573434042864
-0.9262480608326351
-0.8770122835126126
-1.3878334732077002
-1.5232318608377204
-1.5355408051677124
-1.590931054652717
-1.5293863330027024
-1.677093664962742
-1.6217034154777374
-1.6093944711477182
-1.6093944711477182
-1.615548943312728
-1.5663131659927332
-1.5601586938277234
-1.5355408051677124
-1.5232318608377204
-1.6647847206327224
-1.6278578876427194
-1.6093944711477182
-1.5847765824877347
-1.5355408051677124
-1.4986139721777092
-1.467841611352716
-1.6709391927977324
-1.5970855268177266
-1.5970855268177266
-1.6463213041377216
-1.6401668319727392
-1.6278578876427194
-1.4616871391877062
-1.7140204979527456
-1.7201749701177547
-1.6093944711477182
-1.5847765824877347
-1.0370285598026439
-0.24925612268253405
-1.9355814958927628
-1.5970855268177266
-2.2740774649678275
-1.9601993845527748
-1.6524757763027313
-1.6524757763027313
-1.6524757763027313
-1.590931054652717
-1.7017115536227536
-1.5601586938277234
-1.683248137127724
-1.6463213041377216
-1.6278578876427194
-1.578622110322725
-1.5293863330027024
-1.467841611352716
-1.437069250527695
-1.3816790010426905
-1.5601586938277234
-1.5540042216627135
-1.4801505556827075
-1.5478497494977315
-1.6709391927977324
-1.6340123598077294
-1.615548943312728
-1.510922916507701
-1.683248137127724
-1.6032399989827366
-1.578622110322725
-1.5540042216627135
-1.5232318608377204
-1.5232318608377204
-1.4801505556827075
-1.504768444342719
-1.1908903639276658
-0.5323618422725662
-1.3201342793926762
-1.5355408051677124
-1.5663131659927332
-1.6217034154777374
-1.5970855268177266
-1.6093944711477182
-1.6709391927977324
-1.6032399989827366
-1.5293863330027024
-1.4616871391877062
-1.39398794537271
-1.4247603061977032
-2.224841687647805
-2.975687291777912
-1.954044912387765
-1.689402609292734
-1.7140204979527456
-1.7263294422827367
-1.6955570814577436
-1.7324839144477464
-1.6401668319727392
-1.7324839144477464
-1.6647847206327224
-1.5970855268177266
-1.578622110322725
-1.8678823020777668
-1.2708985020726815
0.5939065639225805
-0.7970041453676248
-1.5170773886727107
-1.5416952773327224
-1.5232318608377204
-1.5540042216627135
-1.5724676381577152
-1.5540042216627135
-1.5416952773327224
-1.504768444342719
-1.6093944711477182
-1.5540042216627135
-1.6093944711477182
-1.8863457185727683
-1.7386383866127564
-1.6278578876427194
-1.5970855268177266
-1.5724676381577152
-1.7263294422827367
-1.6032399989827366
-1.5416952773327224
-1.5416952773327224
-1.5416952773327224
-1.5170773886727107
-1.504768444342719
-1.510922916507701
-1.7263294422827367
-2.2309961598128147
-1.9478904402227823
-1.689402609292734
-1.6586302484677409
-1.6401668319727392
-1.5601586938277234
-1.5293863330027024
-1.5540042216627135
-1.5170773886727107
-1.4432237226927047
-1.4309147783627132
-1.4493781948577145
-1.5355408051677124
-1.4924595000126994
-1.861727829912757
-1.8371099412527454
-1.757101803107758
-1.7694107474377496
-1.7201749701177547
-1.683248137127724
-1.6340123598077294
-1.437069250527695
-1.578622110322725
-1.510922916507701
-1.510922916507701
-1.5478497494977315
-1.5293863330027024
-1.4062968897027015
-1.4863050278477177
-1.4863050278477177
-1.1478090587726528
-0.5077439536125827
-1.855573357747775
-1.510922916507701
-1.4801505556827075
-1.4986139721777092
-1.5293863330027024
-2.052516467027782
-2.286386409297819
-1.7632562752727399
-1.6463213041377216
-1.3693700567126987
-1.5293863330027024
-1.5540042216627135
-1.4924595000126994
-1.504768444342719
-1.6463213041377216
-1.5724676381577152
-1.5724676381577152
-1.6278578876427194
-1.677093664962742
-1.6586302484677409
-1.4801505556827075
-1.5724676381577152
-1.6340123598077294
-1.5540042216627135
-1.615548943312728
-1.5232318608377204
-1.5170773886727107
-1.5416952773327224
-1.473996083517698
-1.6647847206327224
-1.7017115536227536
-1.6401668319727392
-1.6278578876427194
-1.615548943312728
-1.578622110322725
-1.5601586938277234
-1.3816790010426905
-1.4616871391877062
-1.6524757763027313
-1.6340123598077294
-1.6401668319727392
-1.6586302484677409
-1.689402609292734
-1.6463213041377216
-1.4863050278477177
-1.615548943312728
-1.5478497494977315
-1.5232318608377204
-1.467841611352716
-1.467841611352716
-1.4432237226927047
-1.510922916507701
-1.6401668319727392
-1.757101803107758
-1.7017115536227536
-1.7201749701177547
-1.6955570814577436
-1.6401668319727392
-1.6401668319727392
-1.6032399989827366
-1.5478497494977315
-1.954044912387765
-2.4587116299178424
-0.6862236463975879
-1.0924188092876486
-1.0801098649576568
-1.4247603061977032
-1.4924595000126994
-1.5724676381577152
-1.6340123598077294
-1.5970855268177266
-1.5847765824877347
-1.590931054652717
-1.590931054652717
-1.5601586938277234
-1.4616871391877062
-1.6032399989827366
-1.6340123598077294
-1.6586302484677409
-1.966353856717784
-1.683248137127724
-1.5540042216627135
-1.4986139721777092
-1.5724676381577152
-1.5663131659927332
-1.5355408051677124
-1.578622110322725
-1.5416952773327224
-1.5724676381577152
-1.5663131659927332
-1.5293863330027024
-0.44619923196256844
-1.326288751557686
-1.7324839144477464
-1.504768444342719
-1.4493781948577145
-1.4924595000126994
-1.5355408051677124
-1.5232318608377204
-2.0463619948628
-2.335622186617841
-1.8740367742427766
-1.757101803107758
-1.7201749701177547
-1.677093664962742
-1.6647847206327224
-1.467841611352716
-1.4863050278477177
-1.578622110322725
-1.437069250527695
-1.400142417537692
-1.4062968897027015
-1.4863050278477177
-1.5970855268177266
-1.6217034154777374
-1.7201749701177547
-1.8063375804277528
-1.8001831082627426
-1.757101803107758
-1.677093664962742
-1.0493375041326358
-0.5200528979425745
-1.954044912387765
-2.255614048472826
-1.7755652196027594
-1.5663131659927332
-1.590931054652717
-1.615548943312728
-1.6524757763027313
-1.6401668319727392
-1.5416952773327224
-1.7140204979527456
-1.677093664962742
-1.5601586938277234
-1.510922916507701
-1.6340123598077294
-1.590931054652717
-1.5478497494977315
-1.400142417537692
-1.677093664962742
-1.5970855268177266
-1.590931054652717
-1.6524757763027313
-1.6463213041377216
-1.6217034154777374
-1.5663131659927332
-1.5170773886727107
-1.184735891762656
-0.24925612268253405
-1.0554919762976458
-1.363215584547689
-1.4247603061977032
-1.437069250527695
-1.4924595000126994
-1.5355408051677124
-1.677093664962742
-1.677093664962742
-1.615548943312728
-1.6093944711477182
-1.5847765824877347
-1.5601586938277234
-2.120215660842805
-2.6925815721878803
-1.861727829912757
-1.5478497494977315
-1.4801505556827075
-1.4555326670226965
-1.4986139721777092
-1.510922916507701
-0.8462399226876194
-1.689402609292734
-2.175605910327811
-1.7324839144477464
-1.689402609292734
-1.689402609292734
-1.4432237226927047
-1.6032399989827366
-1.4616871391877062
-1.5170773886727107
-1.510922916507701
-1.5293863330027024
-1.5293863330027024
-1.5416952773327224
-1.892500190737778
-2.55102871239285
-0.6923781185625978
-1.3570611123826792
-1.6278578876427194
-1.615548943312728
-1.4432237226927047
-1.6463213041377216
-1.5847765824877347
-1.504768444342719
-1.437069250527695
-1.6340123598077294
-1.5293863330027024
-1.5170773886727107
-1.5416952773327224
-1.5663131659927332
-1.6032399989827366
-1.5847765824877347
-1.615548943312728
-1.7017115536227536
-1.5170773886727107
-1.7447928587777384
-1.6401668319727392
-1.5601586938277234
-1.5416952773327224
-1.4493781948577145
-1.4986139721777092
-1.5478497494977315
-1.4186058340326935
-1.4616871391877062
-1.4924595000126994
-1.4924595000126994
-1.5416952773327224
-0.9139391165026156
-1.757101803107758
-2.089443300017785
-1.615548943312728
-1.5416952773327224
-1.510922916507701
-1.467841611352716
-1.4493781948577145
-1.25243508557768
-1.4863050278477177
-1.5293863330027024
-1.4924595000126994
-1.5540042216627135
-1.615548943312728
-1.4863050278477177
-1.5478497494977315
-1.467841611352716
-1.6586302484677409
-1.5724676381577152
-1.4986139721777092
-1.4616871391877062
-1.4986139721777092
-1.5170773886727107
-1.4801505556827075
-1.467841611352716
-1.689402609292734
-1.1355001144426613
-0.37850003814754446
-1.8371099412527454
-1.5663131659927332
-1.5170773886727107
-1.4616871391877062
-2.0586709391927913
-2.04020752269779
-1.6093944711477182
-1.5478497494977315
-1.5293863330027024
-1.5601586938277234
-1.5724676381577152
-1.473996083517698
-1.510922916507701
-1.6217034154777374
-1.510922916507701
-1.8371099412527454
-1.5847765824877347
-1.4863050278477177
-1.4924595000126994
-0.8831667556776225
-1.6463213041377216
-2.089443300017785
-1.757101803107758
-1.7140204979527456
-1.6586302484677409
-1.615548943312728
-1.5724676381577152
-1.400142417537692
-1.289361918567683
-1.437069250527695
-1.4924595000126994
-1.5170773886727107
-1.5170773886727107
-1.5232318608377204
-1.5478497494977315
-1.510922916507701
-1.7017115536227536
-1.6647847206327224
-1.6278578876427194
-1.6093944711477182
-1.5970855268177266
-1.510922916507701
-1.3570611123826792
-1.473996083517698
-1.6032399989827366
-1.5232318608377204
-1.5170773886727107
-1.5724676381577152
-1.5847765824877347
-1.6278578876427194
-1.5970855268177266
-1.5847765824877347
-1.7140204979527456
-1.6586302484677409
-1.590931054652717
-1.4863050278477177
-1.6217034154777374
-1.6647847206327224
-1.510922916507701
-1.5601586938277234
-1.683248137127724
-1.9417359680577726
-2.495638462907845
-0.7477683680476023
-1.289361918567683
-1.5724676381577152
-1.5170773886727107
-1.5478497494977315
-1.6217034154777374
-1.467841611352716
-1.473996083517698
-1.5724676381577152
-1.5970855268177266
-1.5847765824877347
-1.473996083517698
-1.6647847206327224
-1.6278578876427194
-1.5847765824877347
-1.5478497494977315
-1.5293863330027024
-1.5416952773327224
-1.5601586938277234
-1.5293863330027024
-1.504768444342719
-1.6524757763027313
-1.6278578876427194
-1.615548943312728
-1.5847765824877347
-1.5663131659927332
-1.510922916507701
-1.437069250527695
-1.6032399989827366
-1.5416952773327224
-1.5293863330027024
-1.5355408051677124
-1.510922916507701
-1.578622110322725
-1.4309147783627132
-1.4555326670226965
-1.7017115536227536
-1.6093944711477182
-1.6032399989827366
-1.615548943312728
-1.578622110322725
-1.5540042216627135
-1.4863050278477177
-1.5355408051677124
-1.6586302484677409
-1.578622110322725
-1.5847765824877347
-1.5540042216627135
-1.5293863330027024
-1.7017115536227536
-1.5293863330027024
-1.6217034154777374
-1.578622110322725
-1.5478497494977315
-1.5724676381577152
-1.5970855268177266
-1.6032399989827366
-1.11088222578265
-0.7169960072226089
-2.723353933012873
-1.861727829912757
-1.5540042216627135
-1.4863050278477177
-1.7017115536227536
-1.6278578876427194
-1.5970855268177266
-1.5232318608377204
-1.6524757763027313
-1.615548943312728
-1.5847765824877347
-1.5478497494977315
-1.5293863330027024
-1.5416952773327224
-1.510922916507701
-1.5232318608377204
-1.6401668319727392
-1.5293863330027024
-1.5724676381577152
-1.590931054652717
-1.5970855268177266
-1.6217034154777374
-1.5540042216627135
-1.4986139721777092
-1.689402609292734
-1.615548943312728
-1.5478497494977315
-1.467841611352716
-1.4062968897027015
-1.4247603061977032
-1.3078253350626845
-1.5478497494977315
-1.6032399989827366
-1.5232318608377204
-1.578622110322725
-1.5970855268177266
-1.6340123598077294
-1.677093664962742
-1.2401261412476885
-1.000101726812641
-2.5325652958978484
-0.7539228402126119
-1.4432237226927047
-1.615548943312728
-1.5416952773327224
-1.7263294422827367
-1.8371099412527454
-2.4525571577528327
-1.966353856717784
-1.7509473309427481
-1.689402609292734
-1.6955570814577436
-1.7017115536227536
-1.6524757763027313
-1.5601586938277234
-1.7140204979527456
-1.6709391927977324
-1.689402609292734
-1.5540042216627135
-1.683248137127724
-1.677093664962742
-1.6217034154777374
-1.5970855268177266
-1.7694107474377496
-1.677093664962742
-1.7078660257877356
-1.7632562752727399
-1.7878741639327511
-1.7447928587777384
-1.6093944711477182
-1.6093944711477182
-1.689402609292734
-1.5663131659927332
-1.7017115536227536
-1.6278578876427194
-1.6093944711477182
-1.6032399989827366
-1.4986139721777092
-1.5478497494977315
-1.6955570814577436
-1.615548943312728
-1.6401668319727392
-1.6340123598077294
-1.615548943312728
-1.6278578876427194
-1.4986139721777092
-1.6647847206327224
-1.7878741639327511
-1.7878741639327511
-1.7386383866127564
-1.6586302484677409
-1.6647847206327224
-1.689402609292734
-1.5601586938277234
-1.6955570814577436
-1.6278578876427194
-1.5601586938277234
-1.5540042216627135
-1.5293863330027024
-1.4432237226927047
-1.6278578876427194
-1.7263294422827367
-2.4525571577528327
-0.6062155082525723
-1.0493375041326358
-1.4062968897027015
-1.4924595000126994
-1.504768444342719
-1.467841611352716
-1.437069250527695
-1.5970855268177266
-1.5232318608377204
-1.5416952773327224
-1.2339716690826785
-1.326288751557686
-1.4801505556827075
-1.4432237226927047
-1.473996083517698
-1.6586302484677409
-1.5970855268177266
-1.0862643371226666
-0.4154268711375475
-1.8432644134177558
-1.437069250527695
-1.3878334732077002
-2.070979883522784
-1.9355814958927628
-1.3201342793926762
-1.510922916507701
-1.5355408051677124
-1.5355408051677124
-1.5355408051677124
-1.467841611352716
-1.5663131659927332
-1.5540042216627135
-1.4924595000126994
-1.4863050278477177
-1.4986139721777092
-1.4924595000126994
-1.4616871391877062
-1.363215584547689
-1.4986139721777092
-1.6524757763027313
-1.5416952773327224
-1.5170773886727107
-1.4986139721777092
-1.5355408051677124
-1.5416952773327224
-1.467841611352716
-1.6709391927977324
-1.6401668319727392
-1.615548943312728
-1.5970855268177266
-1.5601586938277234
-1.473996083517698
-1.3570611123826792
-1.4432237226927047
-1.6278578876427194
-1.5540042216627135
-1.510922916507701
-1.5355408051677124
-1.5540042216627135
-1.5724676381577152
-1.5170773886727107
-1.5170773886727107
-1.7017115536227536
-1.6340123598077294
-1.6463213041377216
-1.6647847206327224
-1.7755652196027594
-1.7940286360977609
-1.689402609292734
-1.689402609292734
-1.7878741639327511
-1.6463213041377216
-1.6217034154777374
-1.6093944711477182
-1.5847765824877347
-1.578622110322725
-1.510922916507701
-1.578622110322725
-1.6586302484677409
-1.4986139721777092
-1.990971745377768
-2.7171994608478913
-0.9324025329976448
-1.4555326670226965
-1.689402609292734
-1.855573357747775
-1.8124920525927626
-1.7632562752727399
-1.7201749701177547
-1.6709391927977324
-1.6340123598077294
-1.5970855268177266
-1.5293863330027024
-1.5478497494977315
-1.6709391927977324
-1.5540042216627135
-1.5232318608377204
-1.5478497494977315
-1.5540042216627135
-1.5847765824877347
-1.5232318608377204
-1.7755652196027594
-1.7201749701177547
-1.6586302484677409
-1.6709391927977324
-1.689402609292734
-1.677093664962742
-1.5663131659927332
-1.6340123598077294
-1.7201749701177547
-1.6093944711477182
-1.5970855268177266
-1.578622110322725
-1.5847765824877347
-1.6032399989827366
-1.4924595000126994
-1.5540042216627135
-1.689402609292734
-1.578622110322725
-1.5293863330027024
-1.4555326670226965
-1.4062968897027015
-1.6647847206327224
-1.5355408051677124
-1.615548943312728
-1.6340123598077294
-1.615548943312728
-1.5970855268177266
-1.6463213041377216
-1.5663131659927332
-1.5478497494977315
-1.437069250527695
-1.5416952773327224
-1.5416952773327224
-1.4801505556827075
-1.4493781948577145
-1.5293863330027024
-1.4801505556827075
-1.504768444342719
-0.9139391165026156
-0.3538821494875609
-2.0586709391927913
-1.6032399989827366
-1.5170773886727107
-1.4924595000126994
-1.467841611352716
-1.4555326670226965
-1.89865466290276
-2.003280689707787
-1.0862643371226666
-1.39398794537271
-1.5355408051677124
-1.5601586938277234
-1.5663131659927332
-1.5724676381577152
-1.6093944711477182
-1.7078660257877356
-1.6032399989827366
-1.5663131659927332
-1.5601586938277234
-1.5232318608377204
-1.5355408051677124
-1.6032399989827366
-1.9601993845527748
-1.8124920525927626
-1.6586302484677409
-1.6340123598077294
-1.6463213041377216
-1.6586302484677409
-1.6217034154777374
-1.5355408051677124
-1.5355408051677124
-1.4986139721777092
-1.4432237226927047
-1.4555326670226965
-1.4616871391877062
-1.3078253350626845
-1.5232318608377204
-1.4555326670226965
-1.6278578876427194
-1.6709391927977324
-1.6340123598077294
-1.6093944711477182
-1.6278578876427194
-1.6093944711477182
-1.5663131659927332
-1.400142417537692
-1.5847765824877347
-1.504768444342719
-1.4309147783627132
-1.39398794537271
-1.4863050278477177
-1.4616871391877062
-1.4555326670226965
-1.4186058340326935
-1.6524757763027313
-1.6217034154777374
-1.6340123598077294
-1.590931054652717
-1.5847765824877347
-1.5847765824877347
-1.5293863330027024
-1.7940286360977609
-2.526410823732866
-0.6308333969125834
-1.1539635309376628
-1.473996083517698
-1.510922916507701
-1.5416952773327224
-1.510922916507701
-1.5540042216627135
-1.6709391927977324
-1.5663131659927332
-1.578622110322725
-1.5724676381577152
-1.5724676381577152
-1.5847765824877347
-1.5170773886727107
-1.5416952773327224
-1.6340123598077294
-1.590931054652717
-1.590931054652717
-1.6093944711477182
-1.5847765824877347
-1.578622110322725
-1.467841611352716
-1.615548943312728
-1.590931054652717
-1.5601586938277234
-1.5478497494977315
-1.6032399989827366
-1.5416952773327224
-1.578622110322725
-1.4801505556827075
-1.6955570814577436
-1.683248137127724
-1.6647847206327224
-1.6647847206327224
-1.6524757763027313
-1.6586302484677409
-1.6032399989827366
-1.467841611352716
-1.6586302484677409
-1.5601586938277234
-1.5478497494977315
-1.4863050278477177
-1.6524757763027313
-1.6709391927977324
-1.5478497494977315
-0.1384756237125251
-1.7509473309427481
-1.7263294422827367
-1.4986139721777092
-1.4924595000126994
-1.510922916507701
-1.5355408051677124
-1.504768444342719
-2.114061188677796
-2.1325246051727973
-1.615548943312728
-1.6709391927977324
-1.1539635309376628
-0.5323618422725662
-1.9048091350677696
-1.5847765824877347
-2.224841687647805
-1.9355814958927628
-1.5970855268177266
-1.590931054652717
-1.590931054652717
-1.6032399989827366
-1.5847765824877347
-1.437069250527695
-1.4555326670226965
-1.6586302484677409
-1.578622110322725
-1.5416952773327224
-1.510922916507701
-1.5170773886727107
-1.5355408051677124
-1.4432237226927047
-1.5970855268177266
-1.5601586938277234
-1.5293863330027024
-1.5232318608377204
-1.5416952773327224
-1.504768444342719
-1.4493781948577145
-1.5540042216627135
-1.6217034154777374
-1.5355408051677124
-1.4986139721777092
-1.504768444342719
-1.5170773886727107
-1.4432237226927047
-1.4062968897027015
-1.3878334732077002
-1.5847765824877347
-1.473996083517698
-1.4555326670226965
-1.437069250527695
-1.861727829912757
-1.818646524757745
-1.5232318608377204
-1.510922916507701
-1.578622110322725
-1.5170773886727107
-1.4986139721777092
-1.510922916507701
-1.4986139721777092
-1.4493781948577145
-1.39398794537271
-1.4432237226927047
-1.5170773886727107
-1.1478090587726528
-1.0185651433076426
-1.3693700567126987
-1.4309147783627132
-1.3570611123826792
-1.215508252587677
-1.3509066402176972
-1.3693700567126987
-1.3509066402176972
-1.3693700567126987
-1.7694107474377496
-2.403321380432838
-0.6123699804175822
-1.0308740876376343
-1.3509066402176972
-1.5540042216627135
-1.4801505556827075
-1.39398794537271
-1.363215584547689
-1.363215584547689
-1.3509066402176972
-1.3016708628976748
-1.4616871391877062
-1.4186058340326935
-1.4186058340326935
-1.3816790010426905
-1.3447521680526875
-1.3878334732077002
-1.2585895577426898
-1.4186058340326935
-1.510922916507701
-1.4186058340326935
-1.4493781948577145
-1.4186058340326935
-1.3509066402176972
-1.3385976958876775
-1.3078253350626845
-1.289361918567683
-1.4555326670226965
-1.3755245288776807
-1.3570611123826792
-1.3385976958876775
-1.2647440299076718
-1.4555326670226965
-1.400142417537692
-1.437069250527695
-1.4247603061977032
-1.3693700567126987
-1.3816790010426905
-1.4062968897027015
-1.4493781948577145
-1.4616871391877062
-1.3509066402176972
-1.4863050278477177
-1.5293863330027024
-1.400142417537692
-1.3693700567126987
-1.5540042216627135
-1.510922916507701
-1.4801505556827075
-1.3139798072276945
-1.5663131659927332
-1.510922916507701
-1.4924595000126994
-1.4801505556827075
-1.4986139721777092
-1.473996083517698
-1.4309147783627132
-1.3816790010426905
-1.0924188092876486
-0.18155692886753785
-1.9048091350677696
-1.5232318608377204
-1.4863050278477177
-1.5170773886727107
-1.5170773886727107
-1.9848172732127856
-2.2063782711528033
-1.677093664962742
-1.5478497494977315
-1.510922916507701
-1.5663131659927332
-1.5970855268177266
-1.3385976958876775
-1.4062968897027015
-1.6217034154777374
-1.4986139721777092
-1.4801505556827075
-1.504768444342719
-1.5232318608377204
-1.5355408051677124
-1.3878334732077002
-1.504768444342719
-1.5724676381577152
-1.4801505556827075
-1.467841611352716
-1.4986139721777092
-1.4124513618677115
-1.5663131659927332
-1.437069250527695
-1.5601586938277234
-1.5847765824877347
-1.5355408051677124
-1.5232318608377204
-1.5170773886727107
-1.504768444342719
-1.510922916507701
-1.39398794537271
-1.6032399989827366
-1.5663131659927332
-1.5293863330027024
-1.437069250527695
-1.5847765824877347
-1.5170773886727107
-1.5293863330027024
-1.4247603061977032
-1.677093664962742
-1.590931054652717
-1.5601586938277234
-1.5478497494977315
-1.5663131659927332
-1.5663131659927332
-1.5355408051677124
-1.4986139721777092
-1.6401668319727392
-1.504768444342719
-1.6586302484677409
-1.578622110322725
-1.5847765824877347
-1.590931054652717
-1.510922916507701
-1.504768444342719
-1.9294270237277809
-2.4648661020828517
-0.6492968134075847
-1.141654586607671
-1.5170773886727107
-1.6032399989827366
-1.5170773886727107
-1.6709391927977324
-1.7017115536227536
-1.5970855268177266
-1.5540042216627135
-1.5170773886727107
-1.5540042216627135
-1.5540042216627135
-1.4493781948577145
-1.5663131659927332
-1.6401668319727392
-1.6278578876427194
-1.578622110322725
-1.6217034154777374
-1.5293863330027024
-1.3816790010426905
-1.4986139721777092
-1.6463213041377216
-1.6340123598077294
-1.578622110322725
-1.5293863330027024
-1.4801505556827075
-1.510922916507701
-1.5293863330027024
-1.4432237226927047
-1.689402609292734
-1.6340123598077294
-1.6463213041377216
-1.6340123598077294
-1.8432644134177558
-1.683248137127724
-1.5847765824877347
-1.578622110322725
-1.7017115536227536
-1.683248137127724
-1.683248137127724
-1.6524757763027313
-1.615548943312728
-1.5847765824877347
-1.5232318608377204
-1.5232318608377204
-1.6709391927977324
-1.4555326670226965
-1.6647847206327224
-1.6278578876427194
-1.590931054652717
-1.5663131659927332
-1.504768444342719
-1.615548943312728
-1.6955570814577436
-1.6586302484677409
-1.6401668319727392
-1.6401668319727392
-1.1478090587726528
-0.5939065639225805
-1.9971262175427773
-2.2063782711528033
-1.861727829912757
-1.6524757763027313
-1.6463213041377216
-1.6709391927977324
-1.6401668319727392
-1.6032399989827366
-1.504768444342719
-1.7140204979527456
-1.7017115536227536
-1.6586302484677409
-1.6340123598077294
-1.6093944711477182
-1.6340123598077294
-1.689402609292734
-1.7078660257877356
-1.7632562752727399
-1.7078660257877356
-1.689402609292734
-1.6647847206327224
-1.6955570814577436
-1.7078660257877356
-1.6463213041377216
-1.6340123598077294
-1.8124920525927626
-1.7509473309427481
-1.7201749701177547
-1.6647847206327224
-1.6955570814577436
-1.7386383866127564
-1.6524757763027313
-1.6340123598077294
-1.7201749701177547
-1.6955570814577436
-1.683248137127724
-1.6709391927977324
-1.6524757763027313
-1.7140204979527456
-1.757101803107758
-1.892500190737778
-1.9294270237277809
-1.7201749701177547
-1.7447928587777384
-1.757101803107758
-1.689402609292734
-1.6647847206327224
-1.5540042216627135
-1.7017115536227536
-1.6709391927977324
-1.683248137127724
-1.7201749701177547
-1.757101803107758
-1.7078660257877356
-1.677093664962742
-0.9385570051626267
-1.6955570814577436
-2.224841687647805
-0.9077846443376336
-1.5355408051677124
-1.6093944711477182
-1.5970855268177266
-1.590931054652717
-1.9048091350677696
-2.4525571577528327
-1.8801912464077586
-1.7324839144477464
-1.7201749701177547
-1.683248137127724
-1.6463213041377216
-1.4247603061977032
-1.578622110322725
-1.7386383866127564
-1.6217034154777374
-1.5663131659927332
-1.5601586938277234
-1.5663131659927332
-1.5540042216627135
-1.473996083517698
-1.4863050278477177
-1.6401668319727392
-1.5601586938277234
-1.5232318608377204
-1.4801505556827075
-1.4062968897027015
-1.6032399989827366
-1.400142417537692
-1.4186058340326935
-1.5540042216627135
-1.510922916507701
-1.4863050278477177
-1.4124513618677115
-1.4247603061977032
-1.4186058340326935
-1.326288751557686
-1.4493781948577145
-1.4493781948577145
-1.3816790010426905
-1.363215584547689
-1.4924595000126994
-1.4432237226927047
-1.4309147783627132
-1.2401261412476885
-1.4432237226927047
-1.4124513618677115
-1.4124513618677115
-1.363215584547689
-1.3693700567126987
-1.4432237226927047
-1.4924595000126994
-1.4986139721777092
-1.6524757763027313
-1.954044912387765
-1.861727829912757
-1.615548943312728
-1.5293863330027024
-1.4924595000126994
-1.467841611352716
-2.015589634037779
-2.224841687647805
-0.05846748556750937
-0.1938658731975296
-1.7447928587777384
-1.3816790010426905
-1.3755245288776807
-1.0493375041326358
-1.6278578876427194
-1.9478904402227823
-1.4924595000126994
-1.467841611352716
-1.4924595000126994
-1.510922916507701
-1.4309147783627132
-1.4186058340326935
-1.4986139721777092
-1.5540042216627135
-1.5232318608377204
-1.5355408051677124
-1.5663131659927332
-1.4555326670226965
-1.5847765824877347
-1.4801505556827075
-1.5170773886727107
-1.4801505556827075
-1.4493781948577145
-1.437069250527695
-1.4309147783627132
-1.4247603061977032
-1.4186058340326935
-1.3385976958876775
-1.5232318608377204
-1.504768444342719
-1.504768444342719
-1.4555326670226965
-1.615548943312728
-1.578622110322725
-1.4986139721777092
-1.437069250527695
-1.6093944711477182
-1.5540042216627135
-1.5540042216627135
-1.4801505556827075
-1.4801505556827075
-1.5170773886727107
-1.510922916507701
-1.4247603061977032
-1.5970855268177266
-1.5355408051677124
-1.6955570814577436
-1.5970855268177266
-1.5601586938277234
-1.5601586938277234
-1.4924595000126994
-1.4986139721777092
-1.6524757763027313
-1.5847765824877347
-1.5970855268177266
-1.578622110322725
-1.5601586938277234
-1.5601586938277234
-1.4247603061977032
-1.4186058340326935
-1.578622110322725
-1.8740367742427766
-2.4402482134228407
-0.6677602299025862
-1.1970448360926755
-1.5601586938277234
-0.9324025329976448
-1.6217034154777374
-2.015589634037779
-1.6709391927977324
-1.6340123598077294
-1.5970855268177266
-1.5170773886727107
-1.677093664962742
-1.4801505556827075
-1.6278578876427194
-1.6278578876427194
-1.5601586938277234
-1.5478497494977315
-1.5601586938277234
-1.5355408051677124
-1.4924595000126994
-1.4186058340326935
-1.683248137127724
-1.6093944711477182
-1.5847765824877347
-1.4124513618677115
-1.5724676381577152
-1.578622110322725
-1.4924595000126994
-1.4493781948577145
-1.615548943312728
-1.5540042216627135
-1.5232318608377204
-1.5232318608377204
-1.5170773886727107
-1.4863050278477177
-1.4124513618677115
-1.4186058340326935
-1.6340123598077294
-1.4309147783627132
-1.578622110322725
-1.5355408051677124
-1.5170773886727107
-1.5170773886727107
-1.4555326670226965
-1.5355408051677124
-1.6340123598077294
-1.5540042216627135
-1.5416952773327224
-1.5478497494977315
-1.5478497494977315
-1.5663131659927332
-0.901630172172624
-1.5478497494977315
-2.0586709391927913
-1.6586302484677409
-1.590931054652717
-1.5540042216627135
-1.578622110322725
-1.0924188092876486
-0.6862236463975879
-2.674118155692878
-1.8678823020777668
-1.6524757763027313
-1.6217034154777374
-1.578622110322725
-1.4801505556827075
-1.4124513618677115
-1.510922916507701
-1.590931054652717
-1.5540042216627135
-1.5601586938277234
-1.5601586938277234
-1.5847765824877347
-1.5847765824877347
-1.5232318608377204
-1.4432237226927047
-1.683248137127724
-1.5416952773327224
-1.510922916507701
-1.4616871391877062
-1.467841611352716
-1.578622110322725
-1.4124513618677115
-1.3816790010426905
-1.5601586938277234
-1.4924595000126994
-1.510922916507701
-1.5170773886727107
-1.5293863330027024
-1.5663131659927332
-1.4493781948577145
-1.510922916507701
-1.6463213041377216
-1.2093537804226673
-0.8154675618626261
-1.3201342793926762
-1.473996083517698
-1.4432237226927047
-1.4247603061977032
-1.5416952773327224
-1.5416952773327224
-1.5416952773327224
-1.5232318608377204
-1.4986139721777092
-1.4801505556827075
-1.4924595000126994
-1.4247603061977032
-1.8001831082627426
-2.1325246051727973
-1.6340123598077294
-1.473996083517698
-1.4863050278477177
-1.5663131659927332
-1.578622110322725
-1.467841611352716
-1.7017115536227536
-1.615548943312728
-1.5170773886727107
-1.473996083517698
-1.4616871391877062
-1.4986139721777092
-1.6647847206327224
-2.446402685587851
-0.8585488670176111
-1.215508252587677
-1.5232318608377204
-1.5293863330027024
-1.5293863330027024
-1.5416952773327224
-1.4986139721777092
-1.4863050278477177
-1.6032399989827366
-1.5416952773327224
-1.5232318608377204
-1.473996083517698
-1.4062968897027015
-1.590931054652717
-1.4801505556827075
-1.504768444342719
-1.5663131659927332
-1.5293863330027024
-1.5724676381577152
-1.5724676381577152
-1.5232318608377204
-1.5170773886727107
-1.4863050278477177
-1.5478497494977315
-1.5293863330027024
-1.504768444342719
-1.4986139721777092
-1.5847765824877347
-1.5478497494977315
-1.5293863330027024
-1.400142417537692
-1.6217034154777374
-1.5478497494977315
-1.4801505556827075
-1.4247603061977032
-1.400142417537692
-1.3816790010426905
-1.3509066402176972
-1.326288751557686
-1.504768444342719
-1.4924595000126994
-1.5355408051677124
-1.5232318608377204
-1.5170773886727107
-1.5355408051677124
-1.5355408051677124
-1.437069250527695
-1.5970855268177266
-1.504768444342719
-1.4493781948577145
-1.4432237226927047
-1.4247603061977032
-1.437069250527695
-1.2770529742376913
-1.2955163907326928
-1.5478497494977315
-1.4924595000126994
-0.9631748938226381
-0.40311792680755576
-1.8371099412527454
-1.5355408051677124
-1.25243508557768
-1.3816790010426905
-3.0310775412629165
-0.7477683680476023
-1.3324432237226955
-1.4863050278477177
-1.4616871391877062
-1.6278578876427194
-1.5970855268177266
-2.187914854657802
-1.7940286360977609
-1.4924595000126994
-1.467841611352716
-1.437069250527695
-1.4432237226927047
-1.4432237226927047
-1.3755245288776807
-1.504768444342719
-1.504768444342719
-1.6032399989827366
-1.4616871391877062
-1.677093664962742
-1.590931054652717
-1.5293863330027024
-1.4309147783627132
-1.5970855268177266
-1.5416952773327224
-1.4986139721777092
-1.4924595000126994
-1.4801505556827075
-1.473996083517698
-1.4432237226927047
-1.39398794537271
-1.5293863330027024
-1.3816790010426905
-1.5478497494977315
-1.504768444342719
-1.473996083517698
-1.4493781948577145
-1.3816790010426905
-1.3755245288776807
-1.5601586938277234
-1.473996083517698
-1.4986139721777092
-1.4863050278477177
-1.4616871391877062
-1.4493781948577145
-1.3570611123826792
-1.39398794537271
-1.590931054652717
-1.4863050278477177
-1.437069250527695
-1.4186058340326935
-1.4555326670226965
-1.4801505556827075
-1.4309147783627132
-1.5293863330027024
-1.5663131659927332
-1.4924595000126994
-1.467841611352716
-1.5232318608377204
-1.4863050278477177
-1.954044912387765
-1.972508328882766
-2.6371913227028756
-0.8216220340276081
-1.0985732814526583
-1.4801505556827075
-1.473996083517698
-1.4616871391877062
-1.4924595000126994
-1.3878334732077002
-1.6278578876427194
-1.578622110322725
-1.5663131659927332
-1.0616464484626553
-0.7662317845426038
-1.363215584547689
-1.4186058340326935
-1.3385976958876775
-1.5663131659927332
-1.5355408051677124
-1.5293863330027024
-1.5293863330027024
-1.504768444342719
-1.4555326670226965
-1.4124513618677115
-1.4062968897027015
-1.6278578876427194
-1.5355408051677124
-1.757101803107758
-1.6217034154777374
-1.5601586938277234
-1.5355408051677124
-1.4432237226927047
-1.504768444342719
-1.5970855268177266
-1.510922916507701
-1.510922916507701
-1.5478497494977315
-1.5232318608377204
-1.473996083517698
-1.4062968897027015
-1.437069250527695
-1.677093664962742
-1.5847765824877347
-1.5724676381577152
-1.5970855268177266
-1.6217034154777374
-1.590931054652717
-1.4309147783627132
-1.6340123598077294
-1.5847765824877347
-1.5540042216627135
-1.5663131659927332
-1.5416952773327224
-1.504768444342719
-1.5540042216627135
-1.1231911701126696
-0.575443147427579
-1.9417359680577726
-1.5416952773327224
-1.5170773886727107
-1.5232318608377204
-1.4986139721777092
-1.504768444342719
-1.9417359680577726
-2.2925408814628288
-1.689402609292734
-1.5601586938277234
-1.400142417537692
-1.3816790010426905
-1.5724676381577152
-1.467841611352716
-1.4247603061977032
-1.578622110322725
-1.504768444342719
-1.467841611352716
-1.4555326670226965
-1.4555326670226965
-1.4555326670226965
-1.4432237226927047
-1.4986139721777092
-1.6093944711477182
-1.1355001144426613
-0.2800284835075273
-1.1231911701126696
-1.4432237226927047
-1.4616871391877062
-1.3878334732077002
-1.437069250527695
-1.473996083517698
-1.4924595000126994
-1.5232318608377204
-1.4986139721777092
-1.473996083517698
-1.4986139721777092
-1.4616871391877062
-2.261768520637808
-2.704890516517872
-1.861727829912757
-1.6340123598077294
-1.5663131659927332
-1.5416952773327224
-1.4986139721777092
-1.3878334732077002
-1.504768444342719
-1.4062968897027015
-1.4309147783627132
-1.4247603061977032
-1.4186058340326935
-1.4062968897027015
-1.3509066402176972
-1.4124513618677115
-1.590931054652717
-1.5540042216627135
-1.5540042216627135
-1.4986139721777092
-1.4801505556827075
-1.4432237226927047
-1.400142417537692
-1.9232725515627715
-2.8341344319829105
-0.538516314437576
-0.9939472546476313
-1.289361918567683
-0.390808982477564
-0.47697159278756174
-1.437069250527695
-1.467841611352716
-1.590931054652717
-1.5601586938277234
-1.510922916507701
-1.4863050278477177
-1.4924595000126994
-1.5232318608377204
-1.467841611352716
-1.5232318608377204
-1.578622110322725
-1.615548943312728
-2.434093741257831
-2.138679077337807
-1.7140204979527456
-1.6340123598077294
-1.4986139721777092
-1.6093944711477182
-1.473996083517698
-1.4616871391877062
-1.437069250527695
-1.3755245288776807
-1.3755245288776807
-1.4124513618677115
-1.3016708628976748
-1.2462806134126705
-1.0801098649576568
-1.3201342793926762
-1.3139798072276945
-1.363215584547689
-1.363215584547689
-1.3693700567126987
-1.2462806134126705
-1.510922916507701
-1.39398794537271
-1.3693700567126987
-1.8371099412527454
-1.3016708628976748
-1.2770529742376913
-1.3509066402176972
-1.504768444342719
-0.9200935886676254
-1.3570611123826792
-1.4247603061977032
-1.400142417537692
-1.3509066402176972
-1.363215584547689
-1.3078253350626845
-1.3755245288776807
-1.578622110322725
-1.4863050278477177
-1.4247603061977032
-0.9262480608326351
0.1015487907225221
-1.1539635309376628
-1.3016708628976748
-2.052516467027782
-1.7447928587777384
-1.4986139721777092
-1.4924595000126994
-1.5601586938277234
-1.6586302484677409
-1.757101803107758
-1.7386383866127564
-1.9478904402227823
-1.9294270237277809
-1.91096360723278
-2.120215660842805
-2.3171587701228398
-2.0340530505327803
-1.972508328882766
-1.91096360723278
-2.077134355687793
-2.04020752269779
-2.064825411357801
-2.083288827852803
-2.1448335495027893
-2.1817603824928202
-2.114061188677796
-1.9478904402227823
-2.0217441062027888
-1.5232318608377204
-1.4616871391877062
-1.2093537804226673
-1.0370285598026439
-0.9200935886676254
-0.8523943948526291
-1.0801098649576568
-1.3139798072276945
-1.3570611123826792
-1.3693700567126987
-1.326288751557686
-1.2955163907326928
-1.2462806134126705
-1.1539635309376628
-1.4616871391877062
-1.5847765824877347
-1.4493781948577145
-1.4863050278477177
-1.4986139721777092
-1.504768444342719
-1.467841611352716
-1.3078253350626845
-1.3693700567126987
-1.3509066402176972
-1.3078253350626845
-1.3201342793926762
-1.4062968897027015
-1.25243508557768
-1.25243508557768
-1.4555326670226965
-1.578622110322725
-1.5293863330027024
-1.400142417537692
-1.3878334732077002
-1.7140204979527456
-2.446402685587851
-0.7723862567076134
-1.2647440299076718
-1.9048091350677696
-1.9048091350677696
-1.818646524757745
-1.683248137127724
-1.849418885582765
-2.009435161872797
-2.064825411357801
-0.9139391165026156
-2.1817603824928202
-2.477175046412844
-2.224841687647805
-2.1817603824928202
-2.009435161872797
-1.9048091350677696
-1.7017115536227536
-2.052516467027782
-2.1017522443478045
-1.3139798072276945
-1.473996083517698
-1.504768444342719
-1.467841611352716
-1.473996083517698
-1.4062968897027015
-1.4062968897027015
-1.5724676381577152
-1.5232318608377204
-1.5416952773327224
-1.5478497494977315
-1.578622110322725
-1.5724676381577152
-1.504768444342719
-1.4924595000126994
-1.6217034154777374
-1.5540042216627135
-1.578622110322725
-1.6586302484677409
-1.7324839144477464
-1.7447928587777384
-1.6093944711477182
-1.6709391927977324
-1.5970855268177266
-1.5416952773327224
-1.5601586938277234
-1.6217034154777374
-1.6401668319727392
-1.578622110322725
-1.437069250527695
-1.4863050278477177
-1.326288751557686
-1.2770529742376913
-1.2093537804226673
-1.141654586607671
-1.104727753617668
-1.1293456422776516
-1.0924188092876486
-0.8585488670176111
-0.24925612268253405
-1.7078660257877356
-1.2832074464026733
-1.2339716690826785
-1.39398794537271
-1.3755245288776807
-1.9417359680577726
-2.1325246051727973
-1.6340123598077294
-1.5847765824877347
-1.5970855268177266
-1.5970855268177266
-1.615548943312728
-1.5355408051677124
-1.5232318608377204
-1.5540042216627135
-1.5232318608377204
-1.7447928587777384
-1.6401668319727392
-1.5416952773327224
-1.4863050278477177
-1.3878334732077002
-1.504768444342719
-1.5355408051677124
-1.4062968897027015
-1.2770529742376913
-1.3693700567126987
-1.3755245288776807
-1.39398794537271
-1.3447521680526875
-1.25243508557768
-1.2401261412476885
-1.400142417537692
-1.400142417537692
-1.4186058340326935
-1.2647440299076718
-1.363215584547689
-1.3755245288776807
-1.5416952773327224
-1.4863050278477177
-1.4986139721777092
-1.5232318608377204
-1.5232318608377204
-1.5293863330027024
-1.4309147783627132
-1.504768444342719
-1.4616871391877062
-1.1231911701126696
-1.4186058340326935
-1.437069250527695
-1.4309147783627132
-1.400142417537692
-1.3324432237226955
-1.2955163907326928
-1.4616871391877062
-1.4247603061977032
-1.3816790010426905
-1.1908903639276658
-1.2031993082576575
-1.5847765824877347
-1.4616871391877062
-1.4801505556827075
-1.954044912387765
-2.495638462907845
-0.7108415350575992
-1.1601180031026725
-1.4493781948577145
-1.4924595000126994
-1.510922916507701
-1.578622110322725
-1.6463213041377216
-1.578622110322725
-1.578622110322725
-1.8001831082627426
-1.7140204979527456
-1.7078660257877356
-1.6032399989827366
-1.7263294422827367
-1.7324839144477464
-1.677093664962742
-1.6340123598077294
-1.5540042216627135
-1.5663131659927332
-1.5663131659927332
-1.473996083517698
-1.6217034154777374
-1.5170773886727107
-1.6217034154777374
-1.5847765824877347
-1.5847765824877347
-1.6709391927977324
-1.6955570814577436
-1.6278578876427194
-1.892500190737778
-1.7755652196027594
-1.7447928587777384
-1.7509473309427481
-1.7017115536227536
-1.757101803107758
-1.6217034154777374
-1.7078660257877356
-1.861727829912757
-1.689402609292734
-1.437069250527695
-1.1293456422776516
-1.400142417537692
-1.400142417537692
-1.3324432237226955
-1.3570611123826792
-1.5170773886727107
-1.4555326670226965
-1.4555326670226965
-1.4863050278477177
-1.0554919762976458
-1.2031993082576575
-1.473996083517698
-1.5601586938277234
-1.6586302484677409
-1.5847765824877347
-1.5416952773327224
-1.4924595000126994
-0.9385570051626267
-0.1692479845375183
-1.757101803107758
-1.9601993845527748
-1.7447928587777384
-1.5293863330027024
-1.400142417537692
-1.6709391927977324
-1.5970855268177266
-1.5540042216627135
-1.473996083517698
-1.7017115536227536
-1.6647847206327224
-1.615548943312728
-1.5847765824877347
-1.5232318608377204
-1.1231911701126696
-1.184735891762656
-1.3016708628976748
-1.400142417537692
-1.2647440299076718
-1.504768444342719
-1.4616871391877062
-1.4432237226927047
-1.4124513618677115
-1.3078253350626845
-1.25243508557768
-1.4555326670226965
-1.3755245288776807
-1.363215584547689
-1.3693700567126987
-1.3570611123826792
-1.3693700567126987
-1.1724269474326645
-0.4585081762925601
-1.0678009206276373
-1.3201342793926762
-1.3755245288776807
-1.3447521680526875
-1.2708985020726815
-1.0985732814526583
-1.11088222578265
-1.2031993082576575
-1.2708985020726815
-1.3201342793926762
-1.3693700567126987
-1.39398794537271
-1.7201749701177547
-2.0463619948628
-1.5540042216627135
-1.6032399989827366
-1.6278578876427194
-1.5663131659927332
-1.4863050278477177
-1.4801505556827075
-1.4555326670226965
-1.4124513618677115
-1.289361918567683
-1.5293863330027024
-1.4801505556827075
-1.4247603061977032
-1.4309147783627132
-1.7386383866127564
-1.8740367742427766
-2.3848579639378364
-0.5569797309325777
-1.2401261412476885
-1.510922916507701
-1.2585895577426898
-1.0493375041326358
-1.4247603061977032
-1.5416952773327224
-1.5232318608377204
-1.4924595000126994
-1.6709391927977324
-1.39398794537271
-1.5724676381577152
-1.5478497494977315
-1.5170773886727107
-1.5170773886727107
-1.4432237226927047
-1.4247603061977032
-1.5847765824877347
-1.5170773886727107
-1.5232318608377204
-1.4863050278477177
-1.473996083517698
-1.4616871391877062
-1.39398794537271
-1.3078253350626845
-1.5847765824877347
-1.4924595000126994
-1.473996083517698
-1.4616871391877062
-1.4555326670226965
-1.4863050278477177
-1.4309147783627132
-1.510922916507701
-1.3385976958876775
-1.4124513618677115
-1.4555326670226965
-1.4801505556827075
-1.4555326670226965
-1.3878334732077002
-1.4924595000126994
-1.615548943312728
-1.5540042216627135
-1.5170773886727107
-1.504768444342719
-1.4986139721777092
-1.467841611352716
-1.437069250527695
-1.3509066402176972
-1.4863050278477177
-1.4186058340326935
-1.4124513618677115
-1.3324432237226955
-1.3201342793926762
-1.4986139721777092
-1.4062968897027015
-1.326288751557686
-1.5724676381577152
-1.0185651433076426
-0.2431016505175243
-1.990971745377768
-1.5601586938277234
-1.4616871391877062
-1.467841611352716
-2.0955977721827947
