-1.5232318608377204
-1.437069250527695
-1.6709391927977324
-1.5663131659927332
-1.5293863330027024
-1.4616871391877062
-1.5355408051677124
-1.6032399989827366
-1.5355408051677124
-1.5355408051677124
-1.5601586938277234
-1.578622110322725
-1.578622110322725
-1.5478497494977315
-1.4801505556827075
-1.4616871391877062
-1.6524757763027313
-1.5232318608377204
-1.5170773886727107
-1.5355408051677124
-1.5232318608377204
-1.4186058340326935
-1.5601586938277234
-1.578622110322725
-1.5663131659927332
-1.5540042216627135
-1.5293863330027024
-1.5355408051677124
-1.4924595000126994
-1.4801505556827075
-1.7017115536227536
-1.578622110322725
-1.5724676381577152
-1.5478497494977315
-1.504768444342719
-1.5416952773327224
-1.5478497494977315
-1.4986139721777092
-1.6463213041377216
-1.590931054652717
-1.615548943312728
-1.8063375804277528
-1.990971745377768
-0.9200935886676254
-1.2955163907326928
-1.400142417537692
-1.4924595000126994
-1.504768444342719
-1.4924595000126994
-1.4986139721777092
-1.5663131659927332
-1.5724676381577152
-1.5540042216627135
-1.5663131659927332
-1.590931054652717
-1.5355408051677124
-1.1601180031026725
-0.6369878690775933
-1.25243508557768
-1.4062968897027015
-1.4432237226927047
-1.4801505556827075
-1.467841611352716
-1.473996083517698
-1.4863050278477177
-1.4247603061977032
-1.437069250527695
-1.510922916507701
-1.4124513618677115
-1.5416952773327224
-2.064825411357801
-2.4156303247628297
-1.7386383866127564
-1.6093944711477182
-1.5601586938277234
-1.5170773886727107
-1.3816790010426905
-1.5540042216627135
-1.504768444342719
-1.4432237226927047
-1.437069250527695
-1.467841611352716
-1.473996083517698
-1.4555326670226965
-1.467841611352716
-1.7078660257877356
-1.5355408051677124
-1.473996083517698
-1.4555326670226965
-1.4432237226927047
-1.4493781948577145
-1.4247603061977032
-1.3878334732077002
-1.4616871391877062
-1.437069250527695
-1.4432237226927047
-1.437069250527695
-1.3755245288776807
-1.3447521680526875
-1.5232318608377204
-0.8523943948526291
0.05846748556750937
-1.855573357747775
-1.5970855268177266
-1.5232318608377204
-1.4432237226927047
-1.437069250527695
-1.2462806134126705
-1.3385976958876775
-2.483329518577854
-1.2339716690826785
-1.221662724752659
-1.2462806134126705
-1.4555326670226965
-1.4309147783627132
-1.830955469087764
-2.3848579639378364
-1.6217034154777374
-1.5232318608377204
-1.5416952773327224
-1.5355408051677124
-1.5355408051677124
-1.510922916507701
-1.4309147783627132
-1.6217034154777374
-1.5293863330027024
-1.5478497494977315
-1.5355408051677124
-1.4924595000126994
-1.504768444342719
-1.4801505556827075
-1.4062968897027015
-1.578622110322725
-1.5355408051677124
-1.504768444342719
-1.4801505556827075
-1.4863050278477177
-1.4493781948577145
-1.39398794537271
-1.289361918567683
-1.677093664962742
-1.5416952773327224
-1.4555326670226965
-1.4493781948577145
-1.4555326670226965
-1.4493781948577145
-1.4309147783627132
-1.4493781948577145
-1.5355408051677124
-1.504768444342719
-1.467841611352716
-1.4986139721777092
-1.4924595000126994
-1.3324432237226955
-1.5540042216627135
-1.473996083517698
-1.4801505556827075
-1.510922916507701
-1.4493781948577145
-1.4186058340326935
-1.467841611352716
-1.4986139721777092
-1.3878334732077002
-1.504768444342719
-1.4801505556827075
-1.4432237226927047
-1.504768444342719
-1.4124513618677115
-1.5970855268177266
-1.5355408051677124
-1.5724676381577152
-2.1817603824928202
-1.3016708628976748
-1.3078253350626845
-1.4124513618677115
-1.4616871391877062
-1.4986139721777092
-1.4986139721777092
-1.3878334732077002
-1.5355408051677124
-1.467841611352716
-1.5170773886727107
-1.6647847206327224
-1.5170773886727107
-1.4924595000126994
-1.4432237226927047
-1.3755245288776807
-1.5724676381577152
-1.5355408051677124
-1.5232318608377204
-1.5478497494977315
-1.5478497494977315
-1.5663131659927332
-1.5355408051677124
-1.4493781948577145
-1.5540042216627135
-1.615548943312728
-1.6217034154777374
-1.578622110322725
-1.467841611352716
-1.473996083517698
-1.510922916507701
-1.4924595000126994
-1.4986139721777092
-1.5355408051677124
-1.4986139721777092
-1.510922916507701
-1.5293863330027024
-1.5355408051677124
-1.5847765824877347
-1.6647847206327224
-1.6093944711477182
-1.5601586938277234
-1.5232318608377204
-1.5232318608377204
-1.5232318608377204
-1.5355408051677124
-1.4186058340326935
-1.5970855268177266
-1.5663131659927332
-1.5601586938277234
-1.590931054652717
-0.9385570051626267
-0.433890287632549
-1.757101803107758
-2.391012436102846
-2.2802319371328093
-1.5970855268177266
-1.504768444342719
-1.5663131659927332
-1.590931054652717
-1.5601586938277234
-1.5232318608377204
-1.467841611352716
-1.6093944711477182
-1.5663131659927332
-1.3816790010426905
-1.5847765824877347
-1.5232318608377204
-1.5355408051677124
-1.504768444342719
-1.504768444342719
-1.578622110322725
-1.5478497494977315
-1.5478497494977315
-1.5416952773327224
-1.5170773886727107
-1.5540042216627135
-1.504768444342719
-1.4863050278477177
-1.467841611352716
-1.6647847206327224
-1.615548943312728
-1.5970855268177266
-1.590931054652717
-1.5601586938277234
-1.4493781948577145
-1.5970855268177266
-1.578622110322725
-1.5540042216627135
-1.5416952773327224
-1.5232318608377204
-1.4616871391877062
-1.4432237226927047
-1.2832074464026733
-1.6093944711477182
-1.5478497494977315
-1.4986139721777092
-1.4924595000126994
-1.5293863330027024
-1.5232318608377204
-1.4924595000126994
-1.4801505556827075
-1.6093944711477182
-1.5663131659927332
-1.5293863330027024
-1.504768444342719
-1.4616871391877062
-1.590931054652717
-1.6463213041377216
-1.5478497494977315
-1.590931054652717
-1.5293863330027024
-1.5355408051677124
-1.510922916507701
-1.6955570814577436
-2.077134355687793
-1.2278171969176688
-1.25243508557768
-1.3816790010426905
-1.4124513618677115
-1.0801098649576568
-0.3108008443325483
-1.104727753617668
-1.363215584547689
-1.4309147783627132
-1.3755245288776807
-1.4247603061977032
-1.504768444342719
-1.4863050278477177
-1.4801505556827075
-1.4986139721777092
-1.510922916507701
-1.4432237226927047
-1.510922916507701
-2.1325246051727973
-2.507947407237865
-1.7817196917677414
-1.6032399989827366
-1.578622110322725
-1.578622110322725
-1.4493781948577145
-1.6032399989827366
-1.578622110322725
-1.5478497494977315
-1.5416952773327224
-1.5478497494977315
-1.5540042216627135
-1.510922916507701
-1.4062968897027015
-1.6463213041377216
-1.5540042216627135
-1.5170773886727107
-1.510922916507701
-1.4924595000126994
-1.4801505556827075
-1.4493781948577145
-1.363215584547689
-1.5416952773327224
-1.510922916507701
-1.4986139721777092
-1.510922916507701
-1.504768444342719
-1.4616871391877062
-1.6217034154777374
-1.5540042216627135
-1.5724676381577152
-1.5293863330027024
-1.4924595000126994
-1.4863050278477177
-1.4801505556827075
-1.4801505556827075
-1.473996083517698
-1.4493781948577145
-0.9939472546476313
-0.2984919000025288
-1.7201749701177547
-1.5724676381577152
-1.5663131659927332
-1.4924595000126994
-1.7940286360977609
-2.3971669082678284
-1.6217034154777374
-1.504768444342719
-1.504768444342719
-1.4801505556827075
-1.4801505556827075
-1.4924595000126994
-1.39398794537271
-1.5478497494977315
-1.4863050278477177
-1.4247603061977032
-1.4555326670226965
-1.4309147783627132
-1.4309147783627132
-1.4124513618677115
-1.4124513618677115
-1.5170773886727107
-1.4493781948577145
-1.437069250527695
-1.473996083517698
-1.504768444342719
-1.5416952773327224
-1.504768444342719
-1.437069250527695
-1.7263294422827367
-1.615548943312728
-1.5416952773327224
-1.5416952773327224
-1.510922916507701
-1.4986139721777092
-1.39398794537271
-1.4186058340326935
-1.5663131659927332
-1.510922916507701
-1.4924595000126994
-1.5170773886727107
-1.5355408051677124
-1.437069250527695
-1.5355408051677124
-1.5293863330027024
-1.5416952773327224
-1.5601586938277234
-1.4986139721777092
-1.467841611352716
-1.4801505556827075
-1.510922916507701
-1.400142417537692
-1.4801505556827075
-1.5293863330027024
-1.5416952773327224
-1.5170773886727107
-1.3755245288776807
-1.5540042216627135
-1.5416952773327224
-1.3816790010426905
-1.5724676381577152
-1.7447928587777384
-2.083288827852803
-1.2462806134126705
-1.2770529742376913
-1.363215584547689
-1.4124513618677115
-1.3878334732077002
-1.4863050278477177
-1.4924595000126994
-1.4801505556827075
-1.578622110322725
-1.5416952773327224
-1.5416952773327224
-1.4309147783627132
-0.1384756237125251
-1.4863050278477177
-1.6463213041377216
-1.6586302484677409
-1.5663131659927332
-1.510922916507701
-1.5170773886727107
-1.6401668319727392
-2.477175046412844
-1.954044912387765
-1.6278578876427194
-1.5478497494977315
-1.5355408051677124
-1.5416952773327224
-1.590931054652717
-1.5478497494977315
-1.5293863330027024
-1.5601586938277234
-1.5601586938277234
-1.5416952773327224
-1.5170773886727107
-1.510922916507701
-1.4924595000126994
-1.4186058340326935
-1.5170773886727107
-1.4801505556827075
-1.4986139721777092
-1.5355408051677124
-1.5478497494977315
-1.510922916507701
-1.5170773886727107
-1.4616871391877062
-1.6709391927977324
-1.4493781948577145
-1.4801505556827075
-1.5355408051677124
-1.467841611352716
-1.5970855268177266
-1.4924595000126994
-1.3693700567126987
-1.578622110322725
-1.5601586938277234
-1.5170773886727107
-1.4924595000126994
-1.5293863330027024
-0.9447114773276367
-0.009231708247514623
-2.7418173495078744
-2.1817603824928202
-1.5847765824877347
-1.3447521680526875
-1.5478497494977315
-1.5232318608377204
-1.4924595000126994
-1.4616871391877062
-1.4616871391877062
-1.5724676381577152
-1.4986139721777092
-1.4186058340326935
-1.4493781948577145
-1.4863050278477177
-1.4616871391877062
-1.4493781948577145
-1.4801505556827075
-1.400142417537692
-1.5970855268177266
-1.5293863330027024
-1.4801505556827075
-1.437069250527695
-1.4616871391877062
-1.4062968897027015
-1.504768444342719
-1.5170773886727107
-1.5232318608377204
-1.4924595000126994
-1.4863050278477177
-1.4801505556827075
-1.4801505556827075
-1.4186058340326935
-1.6340123598077294
-1.5478497494977315
-1.504768444342719
-1.5232318608377204
-1.4986139721777092
-1.4555326670226965
-1.4801505556827075
-1.3878334732077002
-1.5663131659927332
-1.4986139721777092
-1.4863050278477177
-1.4493781948577145
-1.4124513618677115
-1.4616871391877062
-1.578622110322725
-1.473996083517698
-1.5540042216627135
-1.5170773886727107
-1.504768444342719
-1.510922916507701
-1.5355408051677124
-1.5416952773327224
-1.473996083517698
-1.4432237226927047
-1.6278578876427194
-1.5601586938277234
-1.3755245288776807
-1.2339716690826785
-1.4801505556827075
-1.7447928587777384
-2.0340530505327803
-1.25243508557768
-1.3693700567126987
-1.437069250527695
-1.467841611352716
-1.4432237226927047
-1.473996083517698
-1.4986139721777092
-1.4555326670226965
-1.4986139721777092
-1.504768444342719
-1.7755652196027594
-1.5540042216627135
-1.467841611352716
-1.473996083517698
-1.4432237226927047
-1.3324432237226955
-1.5293863330027024
-1.5416952773327224
-1.510922916507701
-1.504768444342719
-1.5170773886727107
-1.5232318608377204
-1.510922916507701
-1.4124513618677115
-1.7386383866127564
-1.6093944711477182
-1.5416952773327224
-1.5355408051677124
-1.5293863330027024
-1.5170773886727107
-1.504768444342719
-1.504768444342719
-1.6340123598077294
-1.5663131659927332
-1.5416952773327224
-1.5232318608377204
-1.5232318608377204
-1.3755245288776807
-1.510922916507701
-1.437069250527695
-1.5355408051677124
-1.4863050278477177
-1.467841611352716
-1.4863050278477177
-1.510922916507701
-1.5293863330027024
-1.437069250527695
-1.4924595000126994
-1.5478497494977315
-1.5293863330027024
-1.4863050278477177
-1.5601586938277234
-1.689402609292734
-1.5847765824877347
-1.5478497494977315
-1.6032399989827366
-1.578622110322725
-1.0308740876376343
-0.07693090206251085
-1.9601993845527748
-1.7201749701177547
-1.5847765824877347
-2.089443300017785
-2.4894839907428636
-1.5601586938277234
-1.5478497494977315
-1.6278578876427194
-1.5601586938277234
-1.5601586938277234
-1.5478497494977315
-1.4863050278477177
-1.6463213041377216
-1.590931054652717
-1.5847765824877347
-1.5724676381577152
-1.5601586938277234
-1.5601586938277234
-1.5416952773327224
-1.221662724752659
-1.073955392792647
-1.3755245288776807
-1.473996083517698
-1.5170773886727107
-1.5293863330027024
-1.5355408051677124
-1.5478497494977315
-1.5293863330027024
-1.5724676381577152
-1.5724676381577152
-1.5170773886727107
-1.473996083517698
-1.5232318608377204
-1.7694107474377496
-2.003280689707787
-1.6093944711477182
-1.5355408051677124
-1.504768444342719
-1.467841611352716
-1.4801505556827075
-1.504768444342719
-1.504768444342719
-1.4432237226927047
-1.5601586938277234
-1.5601586938277234
-1.5293863330027024
-1.5355408051677124
-1.3816790010426905
-1.510922916507701
-1.4924595000126994
-1.3447521680526875
-1.5601586938277234
-1.5232318608377204
-1.473996083517698
-1.4801505556827075
-1.4493781948577145
-1.473996083517698
-1.467841611352716
-1.3570611123826792
-1.5724676381577152
-1.4863050278477177
-1.6217034154777374
-2.1632969659978185
-1.1908903639276658
-1.2278171969176688
-1.3078253350626845
-1.3201342793926762
-1.5724676381577152
-1.5170773886727107
-1.5293863330027024
-1.5293863330027024
-1.4986139721777092
-1.4924595000126994
-1.473996083517698
-1.4124513618677115
-1.4432237226927047
-1.6217034154777374
-1.5540042216627135
-1.5293863330027024
-1.5416952773327224
-1.5478497494977315
-1.504768444342719
-1.5601586938277234
-1.578622110322725
-1.5847765824877347
-1.5601586938277234
-1.5540042216627135
-1.5293863330027024
-1.467841611352716
-0.8770122835126126
-1.7878741639327511
-1.9355814958927628
-1.578622110322725
-1.5293863330027024
-1.5416952773327224
-1.5724676381577152
-1.5663131659927332
-1.4555326670226965
-1.6278578876427194
-1.6032399989827366
-1.5724676381577152
-1.5416952773327224
-1.467841611352716
-1.6032399989827366
-1.590931054652717
-1.437069250527695
-1.6093944711477182
-1.5355408051677124
-1.5355408051677124
-1.5416952773327224
-1.5724676381577152
-1.5478497494977315
-1.4986139721777092
-1.467841611352716
-1.5663131659927332
-1.5970855268177266
-1.504768444342719
-1.7201749701177547
-1.5970855268177266
-1.5416952773327224
-1.2031993082576575
-0.3538821494875609
-1.5663131659927332
-1.6217034154777374
-1.5663131659927332
-1.590931054652717
-1.6217034154777374
-1.615548943312728
-1.7632562752727399
-2.55718318455786
-1.6463213041377216
-1.6093944711477182
-1.5355408051677124
-1.5232318608377204
-1.5355408051677124
-1.5293863330027024
-0.8770122835126126
-1.7632562752727399
-1.9786628010477763
-1.615548943312728
-1.5724676381577152
-1.5601586938277234
-1.5540042216627135
-1.5540042216627135
-0.7354594237176102
-1.141654586607671
-1.689402609292734
-1.326288751557686
-1.4062968897027015
-1.4062968897027015
-1.473996083517698
-1.473996083517698
-2.052516467027782
-2.298695353627811
-1.504768444342719
-1.4493781948577145
-1.4493781948577145
-1.4247603061977032
-1.5540042216627135
-1.6278578876427194
-1.4924595000126994
-1.5970855268177266
-1.504768444342719
-1.510922916507701
-1.5355408051677124
-1.5232318608377204
-1.5293863330027024
-1.467841611352716
-1.4493781948577145
-1.5970855268177266
-1.4986139721777092
-1.437069250527695
-1.5170773886727107
-1.590931054652717
-1.5540042216627135
-1.473996083517698
-1.4986139721777092
-1.5724676381577152
-1.4986139721777092
-1.4863050278477177
-1.504768444342719
-1.5355408051677124
-1.5293863330027024
-0.895475700007614
-1.6955570814577436
-1.7878741639327511
-1.6278578876427194
-1.6032399989827366
-1.5601586938277234
-1.5601586938277234
-1.5355408051677124
-1.4986139721777092
-1.6463213041377216
-1.5663131659927332
-1.5540042216627135
-1.5663131659927332
-1.5478497494977315
-1.5293863330027024
-1.5355408051677124
-1.400142417537692
-1.6340123598077294
-1.5355408051677124
-1.4616871391877062
-1.5232318608377204
-1.4986139721777092
-1.473996083517698
-1.4062968897027015
-1.7263294422827367
-2.0217441062027888
-1.1539635309376628
-1.1724269474326645
-1.3139798072276945
-1.3816790010426905
-1.3447521680526875
-1.5170773886727107
-1.4493781948577145
-1.4616871391877062
-1.4124513618677115
-1.4062968897027015
-1.4493781948577145
-1.4801505556827075
-1.4555326670226965
-1.4309147783627132
-1.467841611352716
-1.4863050278477177
-1.4493781948577145
-1.467841611352716
-1.4986139721777092
-1.6278578876427194
-1.510922916507701
-1.4986139721777092
-1.467841611352716
-1.504768444342719
-1.5355408051677124
-1.5478497494977315
-1.5170773886727107
-1.5170773886727107
-1.4986139721777092
-1.4555326670226965
-1.5663131659927332
-1.467841611352716
-1.504768444342719
-1.0493375041326358
0.02154065257750637
-1.9848172732127856
-1.689402609292734
-2.1448335495027893
-2.372549019607845
-1.615548943312728
-1.4986139721777092
-1.5232318608377204
-1.4924595000126994
-1.504768444342719
-1.473996083517698
-1.3509066402176972
-1.5601586938277234
-1.4924595000126994
-1.4863050278477177
-1.4616871391877062
-1.4555326670226965
-1.510922916507701
-1.4493781948577145
-1.4309147783627132
-1.5540042216627135
-1.4986139721777092
-1.5170773886727107
-1.4986139721777092
-1.510922916507701
-1.3385976958876775
-1.473996083517698
-1.5478497494977315
-1.6093944711477182
-1.5293863330027024
-1.5293863330027024
-1.5232318608377204
-1.5170773886727107
-1.5293863330027024
-1.5293863330027024
-1.504768444342719
-1.5540042216627135
-1.5724676381577152
-1.5478497494977315
-1.4247603061977032
-1.6217034154777374
-1.5416952773327224
-1.437069250527695
-1.6032399989827366
-1.590931054652717
-1.5540042216627135
-1.5416952773327224
-1.504768444342719
-1.5478497494977315
-1.5355408051677124
-1.473996083517698
-1.5724676381577152
-1.5355408051677124
-1.4432237226927047
-1.6217034154777374
-1.504768444342719
-1.473996083517698
-1.4432237226927047
-1.4309147783627132
-1.578622110322725
-1.5478497494977315
-1.5293863330027024
-1.7632562752727399
-2.114061188677796
-1.2708985020726815
-1.326288751557686
-1.3016708628976748
-1.4493781948577145
-1.590931054652717
-1.504768444342719
-1.510922916507701
-1.504768444342719
-1.5232318608377204
-1.5293863330027024
-1.5478497494977315
-1.5355408051677124
-1.5478497494977315
-1.5293863330027024
-1.5416952773327224
-1.510922916507701
-1.4432237226927047
-1.5416952773327224
-1.5724676381577152
-1.5232318608377204
-1.5416952773327224
-1.5416952773327224
-1.5232318608377204
-1.5478497494977315
-1.5478497494977315
-1.437069250527695
-1.5540042216627135
-1.5478497494977315
-1.504768444342719
-1.5416952773327224
-1.4616871391877062
-1.6463213041377216
-1.5970855268177266
-1.510922916507701
-1.5970855268177266
-1.5601586938277234
-1.5416952773327224
-1.5355408051677124
-1.5232318608377204
-1.4863050278477177
-1.437069250527695
-1.3693700567126987
-1.6217034154777374
-1.5601586938277234
-1.3509066402176972
-1.5724676381577152
-1.5232318608377204
-1.5416952773327224
-1.510922916507701
-1.4432237226927047
-1.5293863330027024
-1.5293863330027024
-1.5232318608377204
-1.5355408051677124
-1.5232318608377204
-1.510922916507701
-1.4863050278477177
-0.9877927824826491
-0.3415732051575415
-1.7447928587777384
-1.6524757763027313
-1.5970855268177266
-1.5601586938277234
-1.4986139721777092
-1.7632562752727399
-2.434093741257831
-1.7017115536227536
-1.510922916507701
-1.5601586938277234
-1.2955163907326928
-1.3816790010426905
-1.4062968897027015
-1.1662724752676545
-1.4924595000126994
-1.4616871391877062
-1.4186058340326935
-1.4555326670226965
-1.504768444342719
-1.4863050278477177
-1.4493781948577145
-1.3570611123826792
-1.5847765824877347
-1.5724676381577152
-1.5540042216627135
-1.5416952773327224
-1.4924595000126994
-1.5970855268177266
-1.6647847206327224
-1.473996083517698
-1.6278578876427194
-1.5540042216627135
-1.5478497494977315
-1.5170773886727107
-1.4924595000126994
-1.5293863330027024
-1.5170773886727107
-1.4801505556827075
-1.578622110322725
-1.5416952773327224
-1.4924595000126994
-1.5355408051677124
-1.578622110322725
-1.5601586938277234
-1.5293863330027024
-1.5478497494977315
-1.5663131659927332
-1.5724676381577152
-1.590931054652717
-1.5416952773327224
-1.5355408051677124
-1.5170773886727107
-1.504768444342719
-1.4863050278477177
-1.3816790010426905
-1.5540042216627135
-1.5416952773327224
-1.510922916507701
-1.504768444342719
-1.5170773886727107
-1.437069250527695
-1.7263294422827367
-2.077134355687793
-1.2339716690826785
-1.2832074464026733
-1.3816790010426905
-1.4555326670226965
-1.4432237226927047
-1.3201342793926762
-1.4986139721777092
-1.4924595000126994
-1.473996083517698
-1.4986139721777092
-1.4801505556827075
-1.4863050278477177
-1.4247603061977032
-1.3447521680526875
-1.5170773886727107
-1.4801505556827075
-1.473996083517698
-1.4863050278477177
-1.4616871391877062
-1.4432237226927047
-1.6401668319727392
-1.4863050278477177
-1.5170773886727107
-1.5170773886727107
-1.4493781948577145
-1.4924595000126994
-1.4986139721777092
-1.473996083517698
-1.1601180031026725
-0.2246382340225228
-1.5724676381577152
-1.6217034154777374
-1.473996083517698
-1.3693700567126987
-1.504768444342719
-1.4062968897027015
-1.7140204979527456
-2.495638462907845
-1.6217034154777374
-1.39398794537271
-1.4555326670226965
-1.4432237226927047
-1.4801505556827075
-1.5416952773327224
-1.4432237226927047
-1.5232318608377204
-1.473996083517698
-1.5293863330027024
-1.6217034154777374
-1.5355408051677124
-1.4986139721777092
-1.4863050278477177
-1.3816790010426905
-1.578622110322725
-1.5232318608377204
-1.4801505556827075
-1.504768444342719
-0.9631748938226381
-0.07693090206251085
-2.003280689707787
-2.4217847969278394
-2.378703491772827
-1.6217034154777374
-1.5355408051677124
-1.5663131659927332
-1.5540042216627135
-1.5416952773327224
-1.4924595000126994
-1.4555326670226965
-1.5970855268177266
-1.5355408051677124
-1.510922916507701
-1.510922916507701
-1.5170773886727107
-1.3816790010426905
-1.400142417537692
-1.4309147783627132
-1.5663131659927332
-1.5232318608377204
-1.4986139721777092
-1.510922916507701
-1.4986139721777092
-1.473996083517698
-1.4432237226927047
-1.4616871391877062
-1.473996083517698
-1.473996083517698
-1.510922916507701
-1.4801505556827075
-1.6340123598077294
-1.5724676381577152
-1.467841611352716
-1.590931054652717
-1.5970855268177266
-1.5540042216627135
-1.5170773886727107
-1.5416952773327224
-1.5232318608377204
-1.5293863330027024
-1.4801505556827075
-1.5847765824877347
-1.510922916507701
-1.4186058340326935
-1.6340123598077294
-1.5540042216627135
-1.5355408051677124
-1.5232318608377204
-1.467841611352716
-1.5724676381577152
-1.5293863330027024
-1.5170773886727107
-1.5232318608377204
-1.4986139721777092
-1.4986139721777092
-1.467841611352716
-1.4309147783627132
-1.4986139721777092
-1.6217034154777374
-1.5232318608377204
-1.504768444342719
-1.7447928587777384
-2.089443300017785
-1.1662724752676545
-1.2339716690826785
-1.3447521680526875
-1.400142417537692
-1.4493781948577145
-1.4432237226927047
-1.437069250527695
-1.437069250527695
-1.9048091350677696
-1.7447928587777384
-1.5355408051677124
-1.5170773886727107
-1.5293863330027024
-1.5293863330027024
-1.5293863330027024
-1.4986139721777092
-1.4124513618677115
-1.578622110322725
-1.5540042216627135
-1.5170773886727107
-1.473996083517698
-1.178581419597674
-1.178581419597674
-1.4493781948577145
-1.3385976958876775
-1.5663131659927332
-1.5478497494977315
-1.5232318608377204
-1.5293863330027024
-1.504768444342719
-1.510922916507701
-1.4924595000126994
-1.4124513618677115
-1.6032399989827366
-1.5416952773327224
-1.3139798072276945
-1.5232318608377204
-1.5478497494977315
-1.4924595000126994
-1.4801505556827075
-1.504768444342719
-1.5540042216627135
-1.4801505556827075
-1.504768444342719
-1.504768444342719
-1.510922916507701
-1.473996083517698
-1.4432237226927047
-1.4616871391877062
-1.4124513618677115
-1.578622110322725
-1.4863050278477177
-1.467841611352716
-1.4616871391877062
-1.473996083517698
-1.467841611352716
-1.4493781948577145
-0.9570204216576284
-0.23079270618753256
-1.510922916507701
-1.5293863330027024
-1.510922916507701
-1.4493781948577145
-1.8863457185727683
-2.5694921288878514
-1.5601586938277234
-1.4432237226927047
-1.4309147783627132
-1.4616871391877062
-1.4616871391877062
-1.4309147783627132
-1.3447521680526875
-1.5970855268177266
-1.5416952773327224
-1.4863050278477177
-1.4432237226927047
-1.3693700567126987
-1.39398794537271
-1.4924595000126994
-1.5601586938277234
-1.437069250527695
-1.4986139721777092
-1.5232318608377204
-1.5293863330027024
-1.504768444342719
-1.5170773886727107
-1.4863050278477177
-1.4801505556827075
-1.5416952773327224
-1.4986139721777092
-1.5170773886727107
-2.003280689707787
-1.7632562752727399
-1.504768444342719
-1.467841611352716
-1.5416952773327224
-1.5970855268177266
-1.5232318608377204
-1.4986139721777092
-1.4924595000126994
-1.4801505556827075
-1.4801505556827075
-1.510922916507701
-1.473996083517698
-1.1539635309376628
-1.2339716690826785
-1.5293863330027024
-1.510922916507701
-1.4924595000126994
-1.5355408051677124
-1.473996083517698
-1.5847765824877347
-1.5970855268177266
-1.5724676381577152
-1.578622110322725
-1.5847765824877347
-1.590931054652717
-1.578622110322725
-1.4863050278477177
-1.7324839144477464
-1.7755652196027594
-2.1694514381628007
-1.326288751557686
-1.3509066402176972
-1.4062968897027015
-1.4432237226927047
-1.3878334732077002
-1.615548943312728
-1.5540042216627135
-1.5416952773327224
-1.4986139721777092
-1.4924595000126994
-1.3078253350626845
-1.510922916507701
-1.467841611352716
-1.5724676381577152
-1.5355408051677124
-1.5478497494977315
-1.5478497494977315
-1.5416952773327224
-1.590931054652717
-1.504768444342719
-1.5293863330027024
-1.6524757763027313
-1.5601586938277234
-1.5663131659927332
-1.5355408051677124
-1.6217034154777374
-1.590931054652717
-1.5847765824877347
-1.5601586938277234
-1.5540042216627135
-1.578622110322725
-1.5724676381577152
-1.578622110322725
-1.5663131659927332
-1.5540042216627135
-1.4616871391877062
-1.5970855268177266
-1.5416952773327224
-1.6463213041377216
-1.689402609292734
-1.5970855268177266
-1.5663131659927332
-1.5540042216627135
-1.4309147783627132
-1.6463213041377216
-1.5847765824877347
-1.5540042216627135
-1.5478497494977315
-1.5601586938277234
-1.510922916507701
-1.5170773886727107
-1.3755245288776807
-1.4062968897027015
-1.5293863330027024
-1.5170773886727107
-1.5232318608377204
-1.5601586938277234
-1.0493375041326358
-0.42158134330255725
-2.600264489712873
-2.1325246051727973
-1.6278578876427194
-1.6032399989827366
-1.578622110322725
-1.5847765824877347
-1.5663131659927332
-1.7509473309427481
-1.6093944711477182
-1.683248137127724
-1.5970855268177266
-1.5478497494977315
-1.5601586938277234
-1.590931054652717
-1.5540042216627135
-1.5293863330027024
-1.5232318608377204
-1.5416952773327224
-1.5478497494977315
-1.5293863330027024
-1.3570611123826792
-1.5724676381577152
-1.5478497494977315
-1.39398794537271
-1.5663131659927332
-1.6032399989827366
-1.5540042216627135
-1.504768444342719
-1.4986139721777092
-1.5232318608377204
-1.5232318608377204
-1.3816790010426905
-1.6032399989827366
-1.5416952773327224
-1.473996083517698
-1.5847765824877347
-1.4986139721777092
-1.4924595000126994
-1.4555326670226965
-0.42158134330255725
-2.009435161872797
-1.4124513618677115
-1.3139798072276945
-1.3878334732077002
-1.4124513618677115
-1.4309147783627132
-1.5232318608377204
-2.3233132422878215
-1.972508328882766
-1.6278578876427194
-1.5170773886727107
-1.5293863330027024
-1.5540042216627135
-1.5540042216627135
-1.4924595000126994
-1.510922916507701
-1.5847765824877347
-1.5355408051677124
-1.504768444342719
-1.4801505556827075
-1.5170773886727107
-1.4801505556827075
-1.7447928587777384
-1.7017115536227536
-1.5601586938277234
-1.5663131659927332
-1.5416952773327224
-1.5724676381577152
-1.5416952773327224
-1.5355408051677124
-1.4247603061977032
-1.5847765824877347
-1.578622110322725
-1.5232318608377204
-1.5170773886727107
-1.2770529742376913
-1.3078253350626845
-1.4801505556827075
-1.3509066402176972
-1.5293863330027024
-1.5355408051677124
-1.5170773886727107
-1.510922916507701
-1.4924595000126994
-1.4863050278477177
-1.4432237226927047
-1.3385976958876775
-1.5970855268177266
-1.5540042216627135
-1.3693700567126987
-1.6093944711477182
-1.5724676381577152
-1.5170773886727107
-1.5232318608377204
-1.4863050278477177
-1.5663131659927332
-1.5478497494977315
-1.5540042216627135
-1.5355408051677124
-1.5416952773327224
-1.5601586938277234
-1.5232318608377204
-2.009435161872797
-1.4924595000126994
-1.1293456422776516
-1.3447521680526875
-1.4186058340326935
-1.4863050278477177
-1.5232318608377204
-1.5232318608377204
-1.5293863330027024
-1.5601586938277234
-1.5355408051677124
-1.5416952773327224
-1.5232318608377204
-1.5355408051677124
-1.5478497494977315
-1.615548943312728
-1.7509473309427481
-1.5601586938277234
-1.0247196154726523
-0.26156506701252585
-1.6217034154777374
-1.6217034154777374
-1.5478497494977315
-2.1079067165127863
-2.378703491772827
-1.5416952773327224
-1.4309147783627132
-1.4924595000126994
-1.437069250527695
-1.510922916507701
-1.5170773886727107
-1.4493781948577145
-1.5724676381577152
-1.5478497494977315
-1.5416952773327224
-1.5293863330027024
-1.5663131659927332
-1.5724676381577152
-1.4863050278477177
-1.4616871391877062
-1.6217034154777374
-1.5540042216627135
-1.2339716690826785
-0.44619923196256844
-1.184735891762656
-1.4555326670226965
-1.4186058340326935
-1.437069250527695
-1.504768444342719
-1.504768444342719
-1.5170773886727107
-1.5232318608377204
-1.5663131659927332
-1.473996083517698
-1.4801505556827075
-1.4801505556827075
-2.114061188677796
-2.581801073217871
-1.8124920525927626
-1.615548943312728
-1.6093944711477182
-1.6217034154777374
-1.4616871391877062
-1.5724676381577152
-1.5970855268177266
-1.5601586938277234
-1.5540042216627135
-1.504768444342719
-1.5232318608377204
-1.510922916507701
-1.4863050278477177
-1.8001831082627426
-1.5970855268177266
-1.5847765824877347
-1.6032399989827366
-1.6093944711477182
-1.590931054652717
-1.5663131659927332
-1.510922916507701
-1.6278578876427194
-1.5232318608377204
-1.7447928587777384
-2.1079067165127863
-1.221662724752659
-1.0678009206276373
-1.2955163907326928
-1.4062968897027015
-1.5478497494977315
-1.504768444342719
-1.4986139721777092
-1.5478497494977315
-1.5540042216627135
-1.5293863330027024
-1.4924595000126994
-1.4863050278477177
-1.615548943312728
-1.578622110322725
-1.5355408051677124
-1.4616871391877062
-1.6340123598077294
-1.5663131659927332
-1.5663131659927332
-1.5601586938277234
-1.6093944711477182
-1.6032399989827366
-1.5724676381577152
-1.5663131659927332
-1.5601586938277234
-1.5478497494977315
-1.473996083517698
-1.5663131659927332
-1.5478497494977315
-1.6032399989827366
-1.6278578876427194
-1.5724676381577152
-1.5232318608377204
-1.510922916507701
-1.4555326670226965
-1.6093944711477182
-1.5970855268177266
-1.5416952773327224
-1.5540042216627135
-1.578622110322725
-1.5540042216627135
-1.4801505556827075
-1.1478090587726528
-1.0924188092876486
-1.4309147783627132
-1.4863050278477177
-1.5170773886727107
-1.5416952773327224
-1.504768444342719
-1.510922916507701
-1.4924595000126994
-1.578622110322725
-1.5724676381577152
-1.5355408051677124
-1.5232318608377204
-1.5540042216627135
-1.9294270237277809
-1.7447928587777384
-0.5508252587675677
-1.5724676381577152
-1.677093664962742
-1.6524757763027313
-1.578622110322725
-1.510922916507701
-1.4924595000126994
-1.6647847206327224
-2.4894839907428636
-1.7201749701177547
-1.4555326670226965
-1.510922916507701
-1.3016708628976748
-1.510922916507701
-1.510922916507701
-1.467841611352716
-1.5663131659927332
-1.590931054652717
-1.5540042216627135
-1.5416952773327224
-1.5478497494977315
-1.4986139721777092
-1.4493781948577145
-1.363215584547689
-1.5293863330027024
-1.5293863330027024
-1.4924595000126994
-1.6463213041377216
-1.5355408051677124
-1.4924595000126994
-1.4493781948577145
-1.4062968897027015
-1.5293863330027024
-1.5232318608377204
-1.5355408051677124
-1.5355408051677124
-1.5232318608377204
-1.4863050278477177
-1.437069250527695
-1.39398794537271
-1.590931054652717
-1.6093944711477182
-1.5232318608377204
-1.5232318608377204
-1.510922916507701
-1.510922916507701
-1.4924595000126994
-1.4986139721777092
-1.5170773886727107
-1.5232318608377204
-1.5601586938277234
-1.5355408051677124
-1.4801505556827075
-1.4924595000126994
-1.5724676381577152
-1.5540042216627135
-1.5293863330027024
-1.510922916507701
-1.5170773886727107
-1.4924595000126994
-1.4801505556827075
-1.4801505556827075
-1.615548943312728
-2.120215660842805
-1.2770529742376913
-1.289361918567683
-1.3693700567126987
-1.215508252587677
-1.4062968897027015
-1.467841611352716
-1.4309147783627132
-1.5355408051677124
-1.4801505556827075
-1.4801505556827075
-1.473996083517698
-1.4863050278477177
-1.510922916507701
-1.504768444342719
-1.467841611352716
-1.6032399989827366
-1.5355408051677124
-1.326288751557686
-1.5478497494977315
-1.5478497494977315
-1.4924595000126994
-1.4924595000126994
-1.4432237226927047
-1.6340123598077294
-1.578622110322725
-1.5663131659927332
-1.5724676381577152
-1.5724676381577152
-1.5293863330027024
-1.4863050278477177
-1.473996083517698
-1.4432237226927047
-1.6463213041377216
-1.5293863330027024
-1.5355408051677124
-1.5478497494977315
-1.5355408051677124
-1.4493781948577145
-1.4863050278477177
-1.5663131659927332
-1.473996083517698
-1.4616871391877062
-1.4555326670226965
-1.4432237226927047
-1.4247603061977032
-0.8093130896976164
-0.2369471783525424
-1.9232725515627715
-1.6586302484677409
-1.5355408051677124
-1.510922916507701
-1.4863050278477177
-1.467841611352716
-1.9232725515627715
-2.347931130947833
-1.5601586938277234
-1.4801505556827075
-0.9262480608326351
0.11385773505251384
-1.8740367742427766
-1.7140204979527456
-2.1817603824928202
-2.261768520637808
-1.510922916507701
-1.4616871391877062
-1.4555326670226965
-1.510922916507701
-1.5232318608377204
-1.4924595000126994
-1.4616871391877062
-1.5663131659927332
-1.510922916507701
-1.184735891762656
-0.6308333969125834
-1.289361918567683
-1.467841611352716
-1.4555326670226965
-1.467841611352716
-1.5416952773327224
-1.467841611352716
-1.467841611352716
-1.4801505556827075
-1.4986139721777092
-1.4986139721777092
-1.4616871391877062
-1.504768444342719
-2.04020752269779
-2.434093741257831
-1.7755652196027594
-1.6278578876427194
-1.5970855268177266
-1.5724676381577152
-1.4863050278477177
-1.5724676381577152
-1.5847765824877347
-1.5416952773327224
-1.5355408051677124
-1.5478497494977315
-1.5293863330027024
-1.5540042216627135
-1.4555326670226965
-1.6340123598077294
-1.5293863330027024
-1.5232318608377204
-1.6217034154777374
-1.4555326670226965
-1.5355408051677124
-1.510922916507701
-1.4309147783627132
-1.7263294422827367
-1.590931054652717
-1.5724676381577152
-1.5355408051677124
-1.4986139721777092
-1.437069250527695
-1.6032399989827366
-1.4801505556827075
-1.615548943312728
-1.5663131659927332
-1.5355408051677124
-1.7447928587777384
-2.1325246051727973
-1.3139798072276945
-1.3201342793926762
-1.3755245288776807
-1.5416952773327224
-1.4986139721777092
-1.4924595000126994
-1.6032399989827366
-1.6278578876427194
-1.5293863330027024
-1.504768444342719
-1.5478497494977315
-1.6278578876427194
-1.6093944711477182
-1.6032399989827366
-1.5847765824877347
-1.5601586938277234
-1.5540042216627135
-1.510922916507701
-1.578622110322725
-1.504768444342719
-1.6032399989827366
-1.6709391927977324
-1.5970855268177266
-1.578622110322725
-1.5601586938277234
-1.4555326670226965
-1.5847765824877347
-1.5663131659927332
-1.5170773886727107
-1.5416952773327224
-1.5970855268177266
-1.5663131659927332
-1.5355408051677124
-1.11088222578265
-0.6616057577376044
-1.2955163907326928
-1.4493781948577145
-1.467841611352716
-1.4924595000126994
-1.5478497494977315
-1.467841611352716
-1.3878334732077002
-1.4555326670226965
-1.4493781948577145
-1.4432237226927047
-1.510922916507701
-1.4801505556827075
-1.9971262175427773
-2.2371506319778245
-1.6217034154777374
-1.6278578876427194
-1.5540042216627135
-1.5663131659927332
-1.5540042216627135
-1.5293863330027024
-1.510922916507701
-1.4863050278477177
-0.9939472546476313
-0.29233742783754685
-1.5970855268177266
-1.5847765824877347
-1.4924595000126994
-1.6401668319727392
-1.504768444342719
-1.8124920525927626
-2.477175046412844
-1.6524757763027313
-1.504768444342719
-1.504768444342719
-1.5170773886727107
-1.5355408051677124
-1.5293863330027024
-1.400142417537692
-1.5970855268177266
-1.578622110322725
-1.4493781948577145
-1.5970855268177266
-1.510922916507701
-1.4924595000126994
-1.4616871391877062
-1.39398794537271
-1.6093944711477182
-1.5478497494977315
-1.5355408051677124
-1.5355408051677124
-1.5416952773327224
-1.5478497494977315
-1.4986139721777092
-1.437069250527695
-1.510922916507701
-1.590931054652717
-1.4986139721777092
-1.4986139721777092
-1.467841611352716
-1.510922916507701
-1.5355408051677124
-1.4863050278477177
-1.5663131659927332
-1.5416952773327224
-1.5170773886727107
-1.5416952773327224
-1.5601586938277234
-1.5355408051677124
-1.5416952773327224
-1.5724676381577152
-1.590931054652717
-1.5232318608377204
-1.5478497494977315
-1.5416952773327224
-1.504768444342719
-1.4986139721777092
-0.8216220340276081
-1.6340123598077294
-1.8863457185727683
-1.578622110322725
-1.5724676381577152
-1.504768444342719
-1.6401668319727392
-1.578622110322725
-1.4186058340326935
-1.8371099412527454
-2.2309961598128147
-1.3570611123826792
-1.39398794537271
-1.467841611352716
-1.5478497494977315
-1.504768444342719
-1.400142417537692
-1.7017115536227536
-1.5847765824877347
-1.4247603061977032
-1.6463213041377216
-1.5970855268177266
-1.5970855268177266
-1.5540042216627135
-1.4863050278477177
-1.6401668319727392
-1.6093944711477182
-1.615548943312728
-1.5970855268177266
-1.590931054652717
-1.5970855268177266
-1.5724676381577152
-1.4863050278477177
-1.4986139721777092
-1.590931054652717
-1.5416952773327224
-1.510922916507701
-1.5355408051677124
-1.5724676381577152
-1.5478497494977315
-1.5847765824877347
-1.578622110322725
-1.5232318608377204
-1.4493781948577145
-1.473996083517698
-1.510922916507701
-1.4555326670226965
-0.6616057577376044
-1.7940286360977609
-1.9971262175427773
-1.5355408051677124
-1.4924595000126994
-1.4924595000126994
-1.510922916507701
-1.4863050278477177
-1.3385976958876775
-1.5170773886727107
-1.5540042216627135
-1.5293863330027024
-1.5232318608377204
-1.4555326670226965
-1.4309147783627132
-1.5540042216627135
-1.39398794537271
-1.5293863330027024
-1.5170773886727107
-1.4986139721777092
-1.504768444342719
-1.000101726812641
-0.3538821494875609
-1.7324839144477464
-2.3971669082678284
-2.114061188677796
-1.504768444342719
-1.578622110322725
-2.0278985783677985
-1.689402609292734
-1.5601586938277234
-1.473996083517698
-1.4555326670226965
-1.578622110322725
-1.510922916507701
-1.5232318608377204
-1.4801505556827075
-1.4493781948577145
-1.4616871391877062
-1.400142417537692
-1.467841611352716
-1.2093537804226673
-1.2401261412476885
-1.4863050278477177
-1.504768444342719
-1.504768444342719
-1.4986139721777092
-0.8831667556776225
-1.6647847206327224
-1.861727829912757
-1.5293863330027024
-1.4801505556827075
-1.4986139721777092
-1.510922916507701
-1.4432237226927047
-1.0554919762976458
-1.363215584547689
-1.5293863330027024
-1.4924595000126994
-1.4924595000126994
-1.4924595000126994
-1.4986139721777092
-1.510922916507701
-1.3755245288776807
-1.5663131659927332
-1.5540042216627135
-1.5663131659927332
-1.510922916507701
-1.5416952773327224
-1.7755652196027594
-1.8248009969227534
-1.590931054652717
-1.6647847206327224
-1.6401668319727392
-1.6217034154777374
-1.615548943312728
-1.6093944711477182
-1.6093944711477182
-1.4801505556827075
-0.360036621652543
-2.2679229928028177
-1.5170773886727107
-1.4309147783627132
-1.4801505556827075
-1.6340123598077294
-1.6032399989827366
-1.7694107474377496
-2.5941100175478624
-1.91096360723278
-1.6401668319727392
-1.683248137127724
-1.6955570814577436
-1.689402609292734
-1.7140204979527456
-1.7201749701177547
-1.6524757763027313
-1.7447928587777384
-1.7940286360977609
-1.689402609292734
-1.6709391927977324
-1.683248137127724
-1.6278578876427194
-1.5478497494977315
-1.6586302484677409
-1.6340123598077294
-1.6647847206327224
-1.683248137127724
-1.7017115536227536
-1.7201749701177547
-1.6586302484677409
-1.4186058340326935
-1.677093664962742
-1.6955570814577436
-1.683248137127724
-1.7201749701177547
-1.689402609292734
-1.6955570814577436
-1.7078660257877356
-1.6278578876427194
-1.7263294422827367
-1.7078660257877356
-1.683248137127724
-1.7632562752727399
-1.7632562752727399
-1.6647847206327224
-1.8371099412527454
-1.7078660257877356
-1.7201749701177547
-1.6524757763027313
-1.5663131659927332
-1.6340123598077294
-1.6217034154777374
-1.6032399989827366
-1.5293863330027024
-1.5970855268177266
-1.7140204979527456
-1.6340123598077294
-1.6401668319727392
-1.6032399989827366
-1.8432644134177558
-1.7755652196027594
-1.8863457185727683
-2.446402685587851
-1.2462806134126705
-0.2369471783525424
-1.7755652196027594
-1.7632562752727399
-1.7201749701177547
-1.6524757763027313
-2.015589634037779
-2.5141018794028467
-1.689402609292734
-1.5724676381577152
-1.7940286360977609
-1.7817196917677414
-1.861727829912757
-1.892500190737778
-1.954044912387765
-2.114061188677796
-2.070979883522784
-1.990971745377768
-1.9294270237277809
-1.8740367742427766
-1.8124920525927626
-1.677093664962742
-1.5232318608377204
-1.6955570814577436
-1.7201749701177547
-1.6401668319727392
-1.677093664962742
-1.7078660257877356
-1.7140204979527456
-1.7017115536227536
-1.7324839144477464
-1.8248009969227534
-1.7447928587777384
-1.7263294422827367
-1.7324839144477464
-1.7140204979527456
-1.4247603061977032
-0.9631748938226381
-1.39398794537271
-1.5540042216627135
-1.5601586938277234
-1.5847765824877347
-1.5663131659927332
-1.590931054652717
-1.6032399989827366
-1.5478497494977315
-1.5540042216627135
-1.6401668319727392
-1.5970855268177266
-1.5847765824877347
-1.855573357747775
-2.1694514381628007
-1.7324839144477464
-1.5355408051677124
-1.6955570814577436
-1.683248137127724
-1.6586302484677409
-1.6647847206327224
-1.6340123598077294
-1.6278578876427194
-1.6032399989827366
-1.5601586938277234
-1.6955570814577436
-1.849418885582765
-2.2063782711528033
-1.4309147783627132
-1.4432237226927047
-1.5355408051677124
-1.5540042216627135
-1.5293863330027024
-1.7263294422827367
-1.5970855268177266
-1.5478497494977315
-1.510922916507701
-1.5355408051677124
-1.5663131659927332
-1.6093944711477182
-1.5601586938277234
-1.6093944711477182
-1.7940286360977609
-1.7017115536227536
-1.6955570814577436
-1.6340123598077294
-1.6340123598077294
-1.5847765824877347
-1.5601586938277234
-1.578622110322725
-1.578622110322725
-1.578622110322725
-1.5663131659927332
-1.5478497494977315
-1.5293863330027024
-1.4986139721777092
-1.6032399989827366
-1.6093944711477182
-1.6032399989827366
-1.5970855268177266
-1.590931054652717
-1.5540042216627135
-1.5478497494977315
-1.4986139721777092
-1.6032399989827366
-1.6217034154777374
-1.590931054652717
-1.5847765824877347
-1.578622110322725
-1.7017115536227536
-1.6524757763027313
-1.4432237226927047
-1.615548943312728
-1.6340123598077294
-1.6524757763027313
-1.677093664962742
-1.6647847206327224
-1.6463213041377216
-1.5970855268177266
-1.5663131659927332
-1.677093664962742
-1.6463213041377216
-1.4493781948577145
-1.578622110322725
-1.6093944711477182
-0.9693293659876481
-0.09539431855751236
-2.9202970422929075
-2.2063782711528033
-1.7078660257877356
-1.677093664962742
-1.6586302484677409
-1.6463213041377216
-1.6463213041377216
-1.5970855268177266
-1.6401668319727392
-1.6032399989827366
-1.7817196917677414
-1.6955570814577436
-1.6647847206327224
-1.6709391927977324
-1.6709391927977324
-1.6463213041377216
-1.6463213041377216
-1.689402609292734
-1.6586302484677409
-1.6647847206327224
-1.6340123598077294
-1.6524757763027313
-1.6524757763027313
-1.437069250527695
-1.7447928587777384
-1.6647847206327224
-1.6278578876427194
-1.6093944711477182
-1.5724676381577152
-1.5478497494977315
-1.4986139721777092
-1.4863050278477177
-1.677093664962742
-1.6586302484677409
-1.6586302484677409
-1.6586302484677409
-1.6093944711477182
-1.5416952773327224
-1.6401668319727392
-1.5663131659927332
-1.6340123598077294
-1.5293863330027024
-1.578622110322725
-1.6093944711477182
-1.6093944711477182
-1.5970855268177266
-1.5293863330027024
-1.4986139721777092
-1.677093664962742
-1.6217034154777374
-1.5478497494977315
-1.4986139721777092
-1.6401668319727392
-1.5847765824877347
-1.473996083517698
-1.5232318608377204
-1.6217034154777374
-1.5355408051677124
-1.5293863330027024
-1.5232318608377204
-1.5232318608377204
-1.7324839144477464
-2.120215660842805
-1.2585895577426898
-1.0616464484626553
-0.6739147020675963
-1.2339716690826785
-1.4309147783627132
-1.5663131659927332
-1.4062968897027015
-1.3324432237226955
-1.4924595000126994
-1.4801505556827075
-1.4616871391877062
-1.4309147783627132
-1.400142417537692
-1.4493781948577145
-1.4986139721777092
-1.7632562752727399
-2.1817603824928202
-1.677093664962742
-1.590931054652717
-1.590931054652717
-1.5847765824877347
-1.5355408051677124
-1.4247603061977032
-1.3816790010426905
-1.5663131659927332
-1.4924595000126994
-1.4801505556827075
-1.4493781948577145
-1.473996083517698
-1.4062968897027015
-1.578622110322725
-1.4616871391877062
-1.5724676381577152
-1.5293863330027024
-1.5170773886727107
-1.4986139721777092
-1.4801505556827075
-1.4309147783627132
-1.39398794537271
-1.4062968897027015
-1.4247603061977032
-1.3570611123826792
-1.3139798072276945
-1.2031993082576575
-1.4432237226927047
-1.4186058340326935
-1.4124513618677115
-1.4186058340326935
-1.437069250527695
-1.4555326670226965
-1.4924595000126994
-1.4986139721777092
-1.4309147783627132
-1.4432237226927047
-1.3324432237226955
-1.4062968897027015
-1.3385976958876775
-0.7600773123775938
-0.14463009587750708
-1.4432237226927047
-1.3385976958876775
-1.3385976958876775
-1.0308740876376343
-1.818646524757745
-1.8678823020777668
-1.0062561989776508
-1.1662724752676545
-1.25243508557768
-1.3078253350626845
-1.3324432237226955
-1.9786628010477763
-1.990971745377768
-1.4924595000126994
-1.4186058340326935
-1.4432237226927047
-1.4432237226927047
-1.437069250527695
-1.3816790010426905
-1.3324432237226955
-1.4309147783627132
-1.39398794537271
-1.3693700567126987
-1.3447521680526875
-1.3078253350626845
-1.1293456422776516
-0.9877927824826491
-1.2339716690826785
-1.4186058340326935
-1.3816790010426905
-1.4062968897027015
-1.4186058340326935
-1.363215584547689
-1.3385976958876775
-1.3570611123826792
-1.4062968897027015
-1.4247603061977032
-1.4186058340326935
-1.4432237226927047
-1.4432237226927047
-1.5847765824877347
-1.4247603061977032
-1.3078253350626845
-1.4493781948577145
-1.4616871391877062
-1.4309147783627132
-1.4247603061977032
-1.4555326670226965
-1.473996083517698
-1.4309147783627132
-1.3016708628976748
-1.578622110322725
-1.5232318608377204
-1.3816790010426905
-1.5355408051677124
-1.4924595000126994
-1.4493781948577145
-1.467841611352716
-1.4616871391877062
-1.5663131659927332
-1.5355408051677124
-1.504768444342719
-1.5232318608377204
-1.5478497494977315
-1.5478497494977315
-1.5540042216627135
-1.990971745377768
-2.2186872154828228
-1.2585895577426898
-1.3139798072276945
-1.4616871391877062
-1.4801505556827075
-1.5540042216627135
-1.5540042216627135
-1.5540042216627135
-1.590931054652717
-1.5601586938277234
-1.5540042216627135
-1.5355408051677124
-1.5355408051677124
-1.5293863330027024
-1.4801505556827075
-1.6032399989827366
-1.615548943312728
-1.5724676381577152
-1.5540042216627135
-1.5540042216627135
-1.5416952773327224
-1.5293863330027024
-1.4062968897027015
-1.5724676381577152
-1.6217034154777374
-1.6093944711477182
-1.5724676381577152
-1.590931054652717
-1.7940286360977609
-1.6217034154777374
-1.4924595000126994
-1.6524757763027313
-1.615548943312728
-1.5663131659927332
-1.5724676381577152
-1.6032399989827366
-1.5970855268177266
-1.5724676381577152
-1.510922916507701
-1.6709391927977324
-1.6217034154777374
-1.3816790010426905
-1.4124513618677115
-1.5724676381577152
-1.6032399989827366
-1.5601586938277234
-1.4863050278477177
-1.6032399989827366
-1.5724676381577152
-1.6032399989827366
-1.6278578876427194
-1.6093944711477182
-1.5601586938277234
-1.1355001144426613
-0.36619109381755277
-1.5663131659927332
-1.7755652196027594
-1.6340123598077294
-1.5724676381577152
-1.5540042216627135
-1.5416952773327224
-1.7694107474377496
-2.526410823732866
-1.757101803107758
-1.5724676381577152
-1.5663131659927332
-1.5355408051677124
-1.5663131659927332
-1.6032399989827366
-1.4986139721777092
-1.7878741639327511
-1.7017115536227536
-1.6278578876427194
-1.6032399989827366
-1.578622110322725
-1.5847765824877347
-1.5724676381577152
-1.473996083517698
-1.590931054652717
-1.578622110322725
-1.578622110322725
-1.5170773886727107
-1.4616871391877062
-1.4616871391877062
-1.6278578876427194
-1.4863050278477177
-1.6463213041377216
-1.5416952773327224
-1.510922916507701
-1.5355408051677124
-1.5724676381577152
-1.5540042216627135
-1.5355408051677124
-1.4986139721777092
-1.683248137127724
-1.5970855268177266
-1.5416952773327224
-1.6524757763027313
-1.689402609292734
-1.615548943312728
-1.5663131659927332
-1.578622110322725
-1.6278578876427194
-1.615548943312728
-1.5970855268177266
-1.5724676381577152
-1.5724676381577152
-1.5540042216627135
-1.5416952773327224
-1.5355408051677124
-1.5970855268177266
-1.8801912464077586
-1.6647847206327224
-1.6340123598077294
-1.6278578876427194
-1.5847765824877347
-1.7017115536227536
-2.249459576307816
-1.3693700567126987
-1.3139798072276945
-1.4309147783627132
-1.4986139721777092
-1.5355408051677124
-1.5416952773327224
-1.2462806134126705
-1.3755245288776807
-1.5355408051677124
-1.5170773886727107
-1.510922916507701
-1.5355408051677124
-1.5601586938277234
-1.504768444342719
-1.400142417537692
-1.6093944711477182
-1.510922916507701
-1.4924595000126994
-1.5970855268177266
-1.3878334732077002
-1.437069250527695
-1.6524757763027313
-1.4801505556827075
-1.6524757763027313
-1.5663131659927332
-1.5540042216627135
-1.5416952773327224
-1.5540042216627135
-1.5663131659927332
-1.504768444342719
-1.5478497494977315
-1.6032399989827366
-1.5355408051677124
-1.5663131659927332
-1.3570611123826792
-1.5478497494977315
-1.5601586938277234
-1.504768444342719
-1.5355408051677124
-1.5601586938277234
-1.6032399989827366
-1.5847765824877347
-1.6217034154777374
-1.5970855268177266
-1.5847765824877347
-1.4986139721777092
-1.6340123598077294
-1.6647847206327224
-1.7755652196027594
-1.689402609292734
-1.5970855268177266
-1.5601586938277234
-1.5724676381577152
-1.4863050278477177
-1.6401668319727392
-1.6524757763027313
-1.6217034154777374
-1.0185651433076426
0.01538618041249662
-2.052516467027782
-1.7694107474377496
-2.286386409297819
-2.249459576307816
-1.5970855268177266
-1.5232318608377204
-1.5478497494977315
-1.578622110322725
-1.5540042216627135
-1.5540042216627135
-1.5724676381577152
-1.6463213041377216
-1.590931054652717
-1.5663131659927332
-1.5847765824877347
-1.6217034154777374
-1.4247603061977032
-1.5293863330027024
-1.5847765824877347
-1.6217034154777374
-1.5724676381577152
-1.5970855268177266
-1.5724676381577152
-1.5601586938277234
-1.5540042216627135
-1.4555326670226965
-1.5663131659927332
-1.6217034154777374
-1.5847765824877347
-1.5540042216627135
-1.5355408051677124
-1.6955570814577436
-1.5540042216627135
-1.473996083517698
-1.590931054652717
-1.5663131659927332
-1.5293863330027024
-1.5663131659927332
-1.5847765824877347
-1.5724676381577152
-1.5232318608377204
-1.400142417537692
-1.5847765824877347
-1.5355408051677124
-1.4124513618677115
-1.6524757763027313
-1.578622110322725
-1.5478497494977315
-1.5170773886727107
-1.467841611352716
-1.5601586938277234
-1.504768444342719
-1.5293863330027024
-1.5478497494977315
-1.5355408051677124
-1.5416952773327224
-1.504768444342719
-1.437069250527695
-1.5355408051677124
-1.5847765824877347
-1.4924595000126994
-1.6955570814577436
-2.0955977721827947
-1.2401261412476885
-1.215508252587677
-1.3201342793926762
-1.5601586938277234
-1.5355408051677124
-1.5416952773327224
-1.5478497494977315
-1.5232318608377204
-1.4493781948577145
-1.1355001144426613
-0.390808982477564
-1.5847765824877347
-1.6278578876427194
-1.6217034154777374
-1.5724676381577152
-1.510922916507701
-1.4986139721777092
-1.8371099412527454
-2.495638462907845
-1.6586302484677409
-1.473996083517698
-1.4863050278477177
-1.3570611123826792
-1.2708985020726815
-1.437069250527695
-1.4493781948577145
-1.5970855268177266
-1.5355408051677124
-1.5416952773327224
-1.5293863330027024
-1.5355408051677124
-1.5540042216627135
-1.5416952773327224
-1.5170773886727107
-1.590931054652717
-1.5724676381577152
-1.6340123598077294
-1.8001831082627426
-1.6032399989827366
-1.5478497494977315
-1.5232318608377204
-1.4801505556827075
-1.590931054652717
-1.5293863330027024
-1.504768444342719
-1.467841611352716
-1.4924595000126994
-1.5170773886727107
-1.467841611352716
-1.4616871391877062
-1.4863050278477177
-1.6463213041377216
-1.5232318608377204
-1.5232318608377204
-1.5293863330027024
-1.5170773886727107
-1.4801505556827075
-0.9570204216576284
-0.05846748556750937
-1.9171180793977614
-1.683248137127724
-1.578622110322725
-1.510922916507701
-1.467841611352716
-1.7078660257877356
-2.5941100175478624
-1.6524757763027313
-1.467841611352716
-1.4986139721777092
-1.4924595000126994
-1.510922916507701
-1.5232318608377204
-1.4186058340326935
-1.590931054652717
-1.5601586938277234
-1.4986139721777092
-1.4986139721777092
-1.4555326670226965
-1.467841611352716
-1.5416952773327224
-1.4616871391877062
-1.5355408051677124
-1.5663131659927332
-1.578622110322725
-1.5293863330027024
-1.5416952773327224
-1.5478497494977315
-1.5170773886727107
-1.467841611352716
-1.578622110322725
-1.504768444342719
-1.4616871391877062
-1.4309147783627132
-1.4986139721777092
-1.5170773886727107
-1.4493781948577145
-1.4555326670226965
-1.5540042216627135
-1.4924595000126994
-1.4924595000126994
-1.510922916507701
-1.5355408051677124
-1.5232318608377204
-1.467841611352716
-1.5293863330027024
-1.5170773886727107
-1.6463213041377216
-1.5478497494977315
-1.5355408051677124
-1.5478497494977315
-1.5293863330027024
-1.4801505556827075
-1.5540042216627135
-1.5540042216627135
-1.504768444342719
-1.473996083517698
-1.4863050278477177
-1.467841611352716
-1.510922916507701
-1.39398794537271
-1.7632562752727399
-2.1017522443478045
-1.2462806134126705
-1.3509066402176972
-1.39398794537271
-1.4432237226927047
-1.4247603061977032
-1.4124513618677115
-1.5663131659927332
-1.5293863330027024
-1.5293863330027024
-1.5355408051677124
-1.5232318608377204
-1.4432237226927047
-1.6217034154777374
-1.4616871391877062
-1.5970855268177266
-1.510922916507701
-1.5232318608377204
-1.5416952773327224
-1.5293863330027024
-1.5416952773327224
-1.467841611352716
-1.4986139721777092
-1.6093944711477182
-1.5232318608377204
-1.4801505556827075
-1.437069250527695
-1.590931054652717
-1.5232318608377204
-1.467841611352716
-1.5232318608377204
-1.5847765824877347
-1.683248137127724
-1.467841611352716
-1.504768444342719
-1.5232318608377204
-1.4924595000126994
-1.4309147783627132
-1.504768444342719
-1.473996083517698
-1.5663131659927332
-1.6093944711477182
-1.510922916507701
-1.4863050278477177
-1.4986139721777092
-1.3570611123826792
-1.5416952773327224
-1.5170773886727107
-1.467841611352716
-1.4801505556827075
-1.4924595000126994
-1.4986139721777092
-1.4616871391877062
-1.289361918567683
-1.3447521680526875
-1.4493781948577145
-1.467841611352716
-1.510922916507701
-1.0370285598026439
-0.42158134330255725
-1.7324839144477464
-2.434093741257831
-2.200223798987821
-1.5355408051677124
-1.504768444342719
-1.5170773886727107
-1.4801505556827075
-1.4062968897027015
-1.6647847206327224
-1.5416952773327224
-1.5847765824877347
-1.5416952773327224
-1.4863050278477177
-1.473996083517698
-1.4986139721777092
-1.467841611352716
-1.437069250527695
-1.5232318608377204
-1.5293863330027024
-1.504768444342719
-1.5540042216627135
-1.437069250527695
-1.5970855268177266
-1.5355408051677124
-0.7354594237176102
-1.6709391927977324
-1.9478904402227823
-1.5540042216627135
-1.5663131659927332
-1.578622110322725
-1.5540042216627135
-1.5293863330027024
-1.4493781948577145
-1.6093944711477182
-1.5540042216627135
-1.467841611352716
-1.6647847206327224
-1.5663131659927332
-1.590931054652717
-1.5416952773327224
-1.4309147783627132
-1.6463213041377216
-1.5847765824877347
-1.5724676381577152
-1.5663131659927332
-1.5847765824877347
-1.590931054652717
-1.590931054652717
-1.504768444342719
-1.6278578876427194
-1.7263294422827367
-1.5663131659927332
-1.5847765824877347
-1.590931054652717
-1.5478497494977315
-1.5232318608377204
-1.504768444342719
-1.5970855268177266
-1.5724676381577152
-1.5540042216627135
-1.5478497494977315
-1.7755652196027594
-2.1571424938328088
-1.2339716690826785
-1.2832074464026733
-1.510922916507701
-1.4986139721777092
-1.5416952773327224
-1.5847765824877347
-1.615548943312728
-1.590931054652717
-0.9816383103176396
-1.7694107474377496
-1.9971262175427773
-1.6524757763027313
-1.6463213041377216
-1.590931054652717
-1.689402609292734
-1.677093664962742
-1.5540042216627135
-1.6401668319727392
-1.6709391927977324
-1.6401668319727392
-1.5970855268177266
-1.578622110322725
-1.6340123598077294
-1.615548943312728
-1.4986139721777092
-1.689402609292734
-1.6463213041377216
-1.4863050278477177
-1.7140204979527456
-1.677093664962742
-1.6524757763027313
-1.5663131659927332
-1.5170773886727107
-1.689402609292734
-1.6278578876427194
-1.615548943312728
-1.5601586938277234
-1.5355408051677124
-1.578622110322725
-1.590931054652717
-1.5540042216627135
-1.5293863330027024
-1.689402609292734
-1.6032399989827366
-1.590931054652717
-1.5847765824877347
-1.6093944711477182
-1.510922916507701
-1.5293863330027024
-1.6401668319727392
-1.5724676381577152
-1.578622110322725
-1.578622110322725
-1.5601586938277234
-1.5601586938277234
-1.4616871391877062
-1.6586302484677409
-1.104727753617668
-0.34772767732255133
-1.7201749701177547
-1.7140204979527456
-1.683248137127724
-1.6401668319727392
-2.0340530505327803
-2.477175046412844
-1.6709391927977324
-1.6032399989827366
-1.615548943312728
-1.5601586938277234
-1.6093944711477182
-1.6401668319727392
-1.4863050278477177
-1.6278578876427194
-1.6401668319727392
-1.615548943312728
-1.5478497494977315
-1.5724676381577152
-1.5847765824877347
-1.5416952773327224
-0.1015487907225221
-2.0586709391927913
-1.677093664962742
-1.39398794537271
-1.849418885582765
-1.6463213041377216
-1.5478497494977315
-1.615548943312728
-2.434093741257831
-2.0340530505327803
-1.590931054652717
-1.5663131659927332
-1.5663131659927332
-1.5601586938277234
-1.5724676381577152
-1.510922916507701
-1.5724676381577152
-1.221662724752659
-1.2093537804226673
-1.473996083517698
-1.4801505556827075
-1.4801505556827075
-1.473996083517698
-1.4247603061977032
-1.467841611352716
-1.510922916507701
-1.578622110322725
-1.5847765824877347
-1.5601586938277234
-1.5724676381577152
-1.5663131659927332
-1.400142417537692
-1.6647847206327224
-1.5540042216627135
-1.5170773886727107
-1.510922916507701
-1.5170773886727107
-1.510922916507701
-1.5170773886727107
-1.4555326670226965
-1.6093944711477182
-1.5724676381577152
-1.5478497494977315
-1.5478497494977315
-1.5540042216627135
-1.4986139721777092
-1.683248137127724
-1.4924595000126994
-1.615548943312728
-1.5355408051677124
-1.5170773886727107
-1.5232318608377204
-1.5540042216627135
-1.5416952773327224
-1.4986139721777092
-1.473996083517698
-1.5970855268177266
-1.5170773886727107
-1.467841611352716
-1.39398794537271
-1.5293863330027024
-1.4986139721777092
-1.510922916507701
-2.064825411357801
-1.6278578876427194
-1.1970448360926755
-1.400142417537692
-1.4555326670226965
-1.4616871391877062
-1.504768444342719
-1.504768444342719
-1.5478497494977315
-1.4924595000126994
-1.5232318608377204
-1.6340123598077294
-1.5663131659927332
-1.5293863330027024
-1.5601586938277234
-1.4801505556827075
-1.590931054652717
-1.6093944711477182
-1.5970855268177266
-1.5601586938277234
-1.5416952773327224
-1.5601586938277234
-1.683248137127724
-1.5540042216627135
-2.015589634037779
-1.7447928587777384
-1.6278578876427194
-1.578622110322725
-1.5416952773327224
-1.5293863330027024
-1.5355408051677124
-1.5232318608377204
-1.6217034154777374
-1.6217034154777374
-1.6217034154777374
-1.6217034154777374
-1.6093944711477182
-0.7231504793875909
0.01538618041249662
-2.8525978484779113
-2.1571424938328088
-1.6340123598077294
-1.5847765824877347
-1.5847765824877347
-1.5970855268177266
-1.590931054652717
-1.5170773886727107
-1.5416952773327224
-1.5724676381577152
-1.5170773886727107
-1.5478497494977315
-1.4062968897027015
-1.6093944711477182
-1.5724676381577152
-1.510922916507701
-1.5170773886727107
-1.5847765824877347
-1.5540042216627135
-1.5170773886727107
-1.5724676381577152
-1.6463213041377216
-1.6524757763027313
-1.5724676381577152
-1.6586302484677409
-1.6340123598077294
-1.6340123598077294
-1.7878741639327511
-1.6401668319727392
-1.6340123598077294
-1.615548943312728
-1.4986139721777092
-1.6278578876427194
-1.6093944711477182
-1.5970855268177266
-1.5663131659927332
-1.6032399989827366
-1.6278578876427194
-1.5724676381577152
-1.4062968897027015
-1.4924595000126994
-1.677093664962742
-1.5601586938277234
-1.5540042216627135
-1.5601586938277234
-1.6032399989827366
-1.510922916507701
-1.4493781948577145
-1.615548943312728
-1.5601586938277234
-1.5478497494977315
-1.5293863330027024
-1.510922916507701
-1.4801505556827075
-1.4986139721777092
-1.5293863330027024
-1.5416952773327224
-1.5355408051677124
-1.510922916507701
-1.4924595000126994
-1.5170773886727107
-1.7755652196027594
-2.2309961598128147
-1.2955163907326928
-1.3385976958876775
-1.4124513618677115
-1.504768444342719
-1.4555326670226965
-1.7140204979527456
-1.6340123598077294
-1.510922916507701
-1.6093944711477182
-1.6463213041377216
-1.615548943312728
-1.5970855268177266
-1.615548943312728
-1.590931054652717
-1.5724676381577152
-1.4555326670226965
-1.6340123598077294
-1.615548943312728
-1.4493781948577145
-1.5601586938277234
-1.590931054652717
-1.6217034154777374
-1.6093944711477182
-1.578622110322725
-1.689402609292734
-1.6032399989827366
-1.6093944711477182
-1.5847765824877347
-1.578622110322725
-1.590931054652717
-1.5355408051677124
-1.467841611352716
-1.5355408051677124
-1.7447928587777384
-1.5970855268177266
-1.5663131659927332
-1.5663131659927332
-1.6032399989827366
-1.504768444342719
-1.578622110322725
-1.6340123598077294
-1.578622110322725
-1.5601586938277234
-1.5540042216627135
-1.5416952773327224
-1.510922916507701
-1.4247603061977032
-1.6340123598077294
-1.615548943312728
-1.6093944711477182
-1.578622110322725
-1.6032399989827366
-1.6278578876427194
-1.590931054652717
-1.504768444342719
-1.6401668319727392
-1.6524757763027313
-1.0924188092876486
-0.3292642608275498
-1.7201749701177547
-1.7017115536227536
-1.6586302484677409
-2.194069326822812
-2.4279392690928487
-1.677093664962742
-1.5724676381577152
-1.5293863330027024
-1.5540042216627135
-1.5847765824877347
-1.5601586938277234
-1.504768444342719
-1.6093944711477182
-1.5478497494977315
-1.615548943312728
-1.8678823020777668
-1.6463213041377216
-1.5540042216627135
-1.5293863330027024
-1.4986139721777092
-1.5970855268177266
-1.5478497494977315
-1.5724676381577152
-1.5601586938277234
-1.590931054652717
-1.6217034154777374
-1.5970855268177266
-1.6217034154777374
-1.400142417537692
-1.5355408051677124
-1.5847765824877347
-1.5478497494977315
-1.578622110322725
-1.578622110322725
-1.5478497494977315
-1.5663131659927332
-1.6093944711477182
-1.578622110322725
-1.5540042216627135
-1.5724676381577152
-1.5540042216627135
-1.578622110322725
-1.4555326670226965
-1.6647847206327224
-1.615548943312728
-1.5601586938277234
-1.578622110322725
-1.5478497494977315
-1.5478497494977315
-1.5232318608377204
-1.473996083517698
-1.6032399989827366
-1.615548943312728
-1.5601586938277234
-1.4924595000126994
-1.467841611352716
-1.3878334732077002
-1.5601586938277234
-1.4186058340326935
-1.5601586938277234
-1.5416952773327224
-1.757101803107758
-2.187914854657802
-1.2647440299076718
-1.2647440299076718
-1.3693700567126987
-1.39398794537271
-1.5293863330027024
-1.5293863330027024
-1.4616871391877062
-1.4863050278477177
-1.6463213041377216
-1.5663131659927332
-1.5293863330027024
-1.504768444342719
-1.6278578876427194
-1.5847765824877347
-1.578622110322725
-1.5663131659927332
-1.6032399989827366
-1.615548943312728
-1.5663131659927332
-1.5293863330027024
-1.5663131659927332
-1.677093664962742
-1.5724676381577152
-1.5355408051677124
-1.5293863330027024
-1.4986139721777092
-0.8831667556776225
-0.5692886752625692
-1.7632562752727399
-1.6463213041377216
-1.6032399989827366
-1.578622110322725
-1.5663131659927332
-1.5293863330027024
-1.990971745377768
-2.4894839907428636
-1.6955570814577436
-1.578622110322725
-1.5970855268177266
-1.6032399989827366
-1.6093944711477182
-1.5847765824877347
-1.504768444342719
-1.5847765824877347
-1.5970855268177266
-1.6032399989827366
-1.5970855268177266
-1.590931054652717
-1.3324432237226955
-1.510922916507701
-1.4801505556827075
-1.5601586938277234
-1.5355408051677124
-1.6401668319727392
-1.473996083517698
-1.5355408051677124
-1.5478497494977315
-1.1539635309376628
-0.4400447597975588
-1.683248137127724
-1.7078660257877356
-1.6401668319727392
-1.5724676381577152
-1.7201749701177547
-1.5601586938277234
-1.7878741639327511
-2.5387197680628573
-1.7140204979527456
-1.4863050278477177
-1.5540042216627135
-1.590931054652717
-1.578622110322725
-1.578622110322725
-1.510922916507701
-1.5601586938277234
-1.5663131659927332
-1.5232318608377204
-1.6709391927977324
-1.578622110322725
-1.578622110322725
-1.5724676381577152
-1.4493781948577145
-1.6401668319727392
-1.5540042216627135
-1.5540042216627135
-1.5663131659927332
-1.5478497494977315
-1.5540042216627135
-1.4924595000126994
-1.400142417537692
-1.5540042216627135
-1.578622110322725
-1.5601586938277234
-1.5663131659927332
-1.5355408051677124
-1.5293863330027024
-1.4863050278477177
-1.473996083517698
-1.5970855268177266
-1.615548943312728
-1.6093944711477182
-1.578622110322725
-1.590931054652717
-1.2770529742376913
-0.6862236463975879
-1.3201342793926762
-1.5355408051677124
-1.5601586938277234
-1.5293863330027024
-1.4986139721777092
-1.5416952773327224
-1.5293863330027024
-1.5232318608377204
-1.5232318608377204
-1.5416952773327224
-1.590931054652717
-1.5970855268177266
-2.0586709391927913
-2.507947407237865
-1.830955469087764
-1.7632562752727399
-2.261768520637808
-1.3878334732077002
-1.400142417537692
-1.473996083517698
-1.5355408051677124
-1.5540042216627135
-1.578622110322725
-1.5355408051677124
-1.6217034154777374
-1.6463213041377216
-1.2401261412476885
-1.289361918567683
-1.5478497494977315
-1.5232318608377204
-1.5293863330027024
-1.5232318608377204
-1.6709391927977324
-1.5601586938277234
-1.5355408051677124
-1.578622110322725
-1.5970855268177266
-1.578622110322725
-1.5847765824877347
-1.510922916507701
-1.892500190737778
-1.9232725515627715
-1.6524757763027313
-1.6278578876427194
-1.6217034154777374
-1.6032399989827366
-1.5601586938277234
-1.5601586938277234
-1.6401668319727392
-1.578622110322725
-1.5663131659927332
-1.5293863330027024
-1.5724676381577152
-1.5232318608377204
-1.39398794537271
-1.5601586938277234
-1.510922916507701
-1.5232318608377204
-1.5293863330027024
-1.5847765824877347
-1.6093944711477182
-1.5970855268177266
-1.5293863330027024
-1.6524757763027313
-1.6278578876427194
-1.6340123598077294
-1.6340123598077294
-1.5601586938277234
-1.6340123598077294
-1.6586302484677409
-1.4863050278477177
-1.6340123598077294
-1.5970855268177266
-1.578622110322725
-1.0062561989776508
-0.05846748556750937
-2.003280689707787
-1.6955570814577436
-2.298695353627811
-2.3663945474428347
-1.6093944711477182
-1.4924595000126994
-1.7447928587777384
-1.6586302484677409
-1.5970855268177266
-1.5724676381577152
-1.5232318608377204
-1.5970855268177266
-1.5724676381577152
-1.578622110322725
-1.6032399989827366
-1.615548943312728
-1.6032399989827366
-1.5663131659927332
-1.5601586938277234
-1.3878334732077002
-1.4986139721777092
-1.5478497494977315
-1.5232318608377204
-1.4924595000126994
-1.504768444342719
-1.473996083517698
-1.4863050278477177
-1.5355408051677124
-1.5170773886727107
-1.5355408051677124
-1.5540042216627135
-1.5663131659927332
-1.5355408051677124
-1.4062968897027015
-1.689402609292734
-1.6278578876427194
-1.5540042216627135
-1.5170773886727107
-1.5232318608377204
-1.504768444342719
-1.5355408051677124
-1.5170773886727107
-1.590931054652717
-1.5724676381577152
-1.590931054652717
-1.590931054652717
-1.6032399989827366
-1.473996083517698
-1.6647847206327224
-1.5232318608377204
-1.6340123598077294
-1.5970855268177266
-1.5663131659927332
-1.5724676381577152
-1.5416952773327224
-1.5416952773327224
-1.5170773886727107
-1.5416952773327224
-1.6463213041377216
-1.5663131659927332
-1.5170773886727107
-1.8063375804277528
-2.249459576307816
-1.326288751557686
-1.3447521680526875
-1.3693700567126987
-1.5970855268177266
-1.5416952773327224
-1.4924595000126994
-1.4863050278477177
-1.4924595000126994
-1.5170773886727107
-1.504768444342719
-1.5170773886727107
-1.5663131659927332
-1.6586302484677409
-1.6032399989827366
-1.5724676381577152
-1.5724676381577152
-1.5724676381577152
-1.4986139721777092
-1.5601586938277234
-1.5724676381577152
-1.5355408051677124
-1.5601586938277234
-1.6032399989827366
-1.578622110322725
-1.5970855268177266
-1.4309147783627132
-1.6401668319727392
-1.6586302484677409
-1.5970855268177266
-1.5724676381577152
-1.5540042216627135
-1.5847765824877347
-1.5601586938277234
-1.4555326670226965
-1.683248137127724
-1.6463213041377216
-1.6278578876427194
-1.615548943312728
-1.615548943312728
-1.4924595000126994
-1.7201749701177547
-1.6217034154777374
-1.6647847206327224
-1.6217034154777374
-1.590931054652717
-1.6217034154777374
-1.5970855268177266
-1.5724676381577152
-1.5478497494977315
-1.578622110322725
-1.6463213041377216
-1.6524757763027313
-1.6217034154777374
-1.5478497494977315
-1.6955570814577436
-1.615548943312728
-1.5724676381577152
-1.0985732814526583
-0.4154268711375475
-1.7017115536227536
-1.7017115536227536
-1.6709391927977324
-1.6217034154777374
-1.5970855268177266
-1.9355814958927628
-2.655654739197877
-1.615548943312728
-1.5170773886727107
-1.7140204979527456
-1.6586302484677409
-1.6524757763027313
-1.6647847206327224
-1.5355408051677124
-1.7201749701177547
-1.689402609292734
-1.6340123598077294
-1.6340123598077294
-1.6340123598077294
-1.5970855268177266
-1.590931054652717
-1.510922916507701
-1.6647847206327224
-1.6647847206327224
-1.6278578876427194
-1.6647847206327224
-1.6463213041377216
-1.6401668319727392
-1.615548943312728
-1.5601586938277234
-1.7755652196027594
-1.677093664962742
-1.677093664962742
-1.6340123598077294
-1.5970855268177266
-1.326288751557686
-0.4400447597975588
0.13232115154751534
-2.471020574247862
-1.467841611352716
-1.3570611123826792
-1.4555326670226965
-1.5416952773327224
-1.5355408051677124
-1.7694107474377496
-2.575646601052861
-1.849418885582765
-1.6217034154777374
-1.6032399989827366
-2.070979883522784
-2.4156303247628297
-1.8001831082627426
-1.6340123598077294
-1.6709391927977324
-1.6524757763027313
-1.6463213041377216
-1.6647847206327224
-1.6647847206327224
-1.683248137127724
-1.677093664962742
-1.510922916507701
-1.7386383866127564
-1.7263294422827367
-1.5601586938277234
-1.757101803107758
-1.6217034154777374
-1.5540042216627135
-1.5601586938277234
-1.4924595000126994
-1.677093664962742
-1.6463213041377216
-1.6709391927977324
-1.6709391927977324
-1.683248137127724
-1.677093664962742
-1.6401668319727392
-1.5355408051677124
-1.467841611352716
-1.6709391927977324
-1.5416952773327224
-1.5232318608377204
-1.504768444342719
-1.5416952773327224
-1.5540042216627135
-1.5724676381577152
-1.7017115536227536
-1.689402609292734
-1.677093664962742
-1.6340123598077294
-1.6032399989827366
-1.5601586938277234
-1.4986139721777092
-1.683248137127724
-1.6217034154777374
-1.5970855268177266
-1.590931054652717
-1.590931054652717
-1.6032399989827366
-1.5847765824877347
-1.6217034154777374
-2.2679229928028177
-1.4924595000126994
-1.3447521680526875
-1.467841611352716
-1.4924595000126994
-1.6093944711477182
-1.6401668319727392
-1.4986139721777092
-1.683248137127724
-1.6340123598077294
-1.6032399989827366
-1.590931054652717
-1.6032399989827366
-1.615548943312728
-1.5847765824877347
-1.5416952773327224
-1.689402609292734
-1.6463213041377216
-1.5601586938277234
-1.4863050278477177
-1.000101726812641
-0.07693090206251085
-2.138679077337807
-2.501792935072855
-2.1571424938328088
-1.6401668319727392
-1.5847765824877347
-1.6032399989827366
-1.5724676381577152
-1.590931054652717
-1.6032399989827366
-1.6217034154777374
-1.6032399989827366
-1.8371099412527454
-1.7078660257877356
-1.6463213041377216
-1.6340123598077294
-1.5847765824877347
-1.5847765824877347
-1.6340123598077294
-1.6709391927977324
-1.6217034154777374
-1.6032399989827366
-1.6401668319727392
-1.683248137127724
-1.6647847206327224
-0.8585488670176111
-1.7694107474377496
-1.972508328882766
-1.6217034154777374
-1.6032399989827366
-1.6278578876427194
-1.6340123598077294
-1.6032399989827366
-1.4801505556827075
-1.6955570814577436
-1.7263294422827367
-1.6586302484677409
-1.6524757763027313
-1.6217034154777374
-1.5355408051677124
-1.6278578876427194
-1.4986139721777092
-1.6340123598077294
-1.6032399989827366
-1.615548943312728
-1.5970855268177266
-1.5970855268177266
-1.578622110322725
-1.5970855268177266
-1.5724676381577152
-1.6463213041377216
-1.615548943312728
-1.5847765824877347
-1.6463213041377216
-1.7324839144477464
-1.6340123598077294
-1.6032399989827366
-1.5540042216627135
-1.6955570814577436
-1.6401668319727392
-1.590931054652717
-1.5847765824877347
-1.7817196917677414
-2.150988021667799
-1.2339716690826785
-1.3201342793926762
-1.4062968897027015
-1.473996083517698
-1.578622110322725
-1.578622110322725
-1.615548943312728
-1.590931054652717
-0.8093130896976164
-1.7694107474377496
-2.0217441062027888
-1.615548943312728
-1.5540042216627135
-1.510922916507701
-1.4801505556827075
-1.473996083517698
-1.3447521680526875
-1.578622110322725
-1.5416952773327224
-1.4801505556827075
-1.4863050278477177
-1.4863050278477177
-1.4616871391877062
-1.4986139721777092
-1.4555326670226965
-1.5478497494977315
-1.5232318608377204
-1.467841611352716
-1.4801505556827075
-1.510922916507701
-1.39398794537271
-1.5540042216627135
-1.4062968897027015
-1.578622110322725
-1.5170773886727107
-1.5293863330027024
-1.5232318608377204
-1.5232318608377204
-1.504768444342719
-1.4493781948577145
-1.437069250527695
-1.5416952773327224
-1.473996083517698
-1.467841611352716
-1.3201342793926762
-1.4986139721777092
-1.4801505556827075
-1.4124513618677115
-1.4309147783627132
-1.5232318608377204
-1.504768444342719
-1.5232318608377204
-1.5232318608377204
-1.5170773886727107
-1.4986139721777092
-0.8647033391826209
-1.615548943312728
-1.3447521680526875
-0.1692479845375183
-2.0217441062027888
-1.683248137127724
-1.5601586938277234
-1.4986139721777092
-1.91096360723278
-2.4217847969278394
-1.5970855268177266
-1.5232318608377204
-1.5170773886727107
-1.510922916507701
-1.5355408051677124
-1.4801505556827075
-1.4247603061977032
-1.7017115536227536
-1.689402609292734
-1.578622110322725
-1.5355408051677124
-1.5416952773327224
-1.5170773886727107
-1.6647847206327224
-1.5170773886727107
-1.5970855268177266
-1.6032399989827366
-1.590931054652717
-1.5970855268177266
-1.578622110322725
-1.4863050278477177
-1.5663131659927332
-1.5601586938277234
-1.6463213041377216
-1.6278578876427194
-1.578622110322725
-1.5663131659927332
-1.5601586938277234
-1.5847765824877347
-1.510922916507701
-1.5478497494977315
-1.683248137127724
-1.6463213041377216
-1.6093944711477182
-1.467841611352716
-1.590931054652717
-1.6217034154777374
-1.5847765824877347
-1.5847765824877347
-1.6217034154777374
-1.590931054652717
-1.6278578876427194
-1.6340123598077294
-1.5970855268177266
-1.5847765824877347
-1.4432237226927047
-1.6586302484677409
-1.6340123598077294
-1.4924595000126994
-1.7632562752727399
-1.6401668319727392
-1.6586302484677409
-1.6340123598077294
-1.4924595000126994
-1.7017115536227536
-1.89865466290276
-2.2433051041428067
-1.3693700567126987
-1.473996083517698
-1.5232318608377204
-1.5663131659927332
-1.5663131659927332
-1.5970855268177266
-1.7078660257877356
-1.6278578876427194
-1.6278578876427194
-1.6032399989827366
-1.6340123598077294
-1.590931054652717
-1.5355408051677124
-1.7078660257877356
-1.6463213041377216
-1.6278578876427194
-1.6278578876427194
-1.5847765824877347
-1.5601586938277234
-1.5601586938277234
-1.6524757763027313
-1.5724676381577152
-1.6524757763027313
-1.615548943312728
-1.6278578876427194
-1.615548943312728
-1.615548943312728
-1.6032399989827366
-1.5970855268177266
-1.6093944711477182
-1.6217034154777374
-1.6093944711477182
-1.5478497494977315
-1.6278578876427194
-1.7140204979527456
-1.5601586938277234
-1.6217034154777374
-1.6032399989827366
-1.6032399989827366
-1.590931054652717
-1.590931054652717
-1.6032399989827366
-1.578622110322725
-0.5569797309325777
-0.7908496732026148
-1.9294270237277809
-1.2462806134126705
-0.4092723989725655
-1.184735891762656
-1.400142417537692
-1.4555326670226965
-2.2740774649678275
-2.1632969659978185
-1.4863050278477177
-1.4432237226927047
-1.5355408051677124
-1.4986139721777092
-0.9200935886676254
-0.08308537422752059
-2.907988097962916
-3.006459652602933
-3.2403295948729705
-2.0278985783677985
-1.7632562752727399
-1.7078660257877356
-1.6709391927977324
-1.6032399989827366
-1.6463213041377216
-1.7263294422827367
-1.6709391927977324
-1.6524757763027313
-1.6586302484677409
-1.6278578876427194
-1.6401668319727392
-1.1970448360926755
-1.289361918567683
-1.5478497494977315
-1.6093944711477182
-1.6032399989827366
-1.6278578876427194
-1.6340123598077294
-1.6340123598077294
-1.5540042216627135
-1.6401668319727392
-1.615548943312728
-1.6278578876427194
-1.6217034154777374
-1.590931054652717
-1.5416952773327224
-1.6524757763027313
-1.5601586938277234
-1.6524757763027313
-1.6340123598077294
-1.6278578876427194
-1.6278578876427194
-1.615548943312728
-1.5970855268177266
-1.5724676381577152
-1.467841611352716
-1.7078660257877356
-1.6709391927977324
-1.5847765824877347
-1.5847765824877347
-1.7201749701177547
-1.6032399989827366
-1.5970855268177266
-1.5293863330027024
-1.6647847206327224
-1.6463213041377216
-1.6340123598077294
-1.6093944711477182
-1.6093944711477182
-1.6093944711477182
-1.578622110322725
-1.6217034154777374
-1.6709391927977324
-1.7078660257877356
-1.7078660257877356
-1.6340123598077294
-1.6278578876427194
-1.830955469087764
-2.194069326822812
-1.3755245288776807
-1.3878334732077002
-1.473996083517698
-1.5478497494977315
-1.5663131659927332
-1.5724676381577152
-1.5847765824877347
-1.400142417537692
-1.4493781948577145
-1.6093944711477182
-1.615548943312728
-1.6032399989827366
-1.6217034154777374
-1.615548943312728
-1.590931054652717
-1.510922916507701
-1.578622110322725
-1.5663131659927332
-1.5540042216627135
-1.5601586938277234
-1.5478497494977315
-1.5355408051677124
-1.8063375804277528
-1.5170773886727107
-1.6647847206327224
-1.6032399989827366
-1.5540042216627135
-1.5170773886727107
-1.5232318608377204
-1.4924595000126994
-1.473996083517698
-1.4493781948577145
-1.5601586938277234
-1.5724676381577152
-1.5663131659927332
-1.4616871391877062
-1.683248137127724
-1.578622110322725
-1.504768444342719
-1.5601586938277234
-1.615548943312728
-1.578622110322725
-1.5847765824877347
-1.5601586938277234
-1.5416952773327224
-1.5601586938277234
-1.5170773886727107
-1.5170773886727107
-1.5293863330027024
-1.4555326670226965
-1.615548943312728
-1.5478497494977315
-1.5540042216627135
-1.5663131659927332
-1.4924595000126994
-1.590931054652717
-1.5478497494977315
-1.000101726812641
-0.360036621652543
-1.7140204979527456
-1.6709391927977324
-1.6032399989827366
-2.009435161872797
-2.3848579639378364
-1.7447928587777384
-1.5724676381577152
-1.5970855268177266
-1.6278578876427194
-1.6278578876427194
-1.578622110322725
-1.5293863330027024
-1.6401668319727392
-1.5847765824877347
-1.5724676381577152
-1.5416952773327224
-1.5232318608377204
-1.5293863330027024
-1.5663131659927332
-1.504768444342719
-1.6278578876427194
-1.5663131659927332
-1.5478497494977315
-1.5355408051677124
-1.5232318608377204
-1.5293863330027024
-1.467841611352716
-1.4555326670226965
-1.5847765824877347
-1.5663131659927332
-1.5355408051677124
-1.5847765824877347
-1.4924595000126994
-1.510922916507701
-1.5724676381577152
-1.5601586938277234
-1.5970855268177266
-1.6340123598077294
-1.6340123598077294
-1.5970855268177266
-1.578622110322725
-1.5847765824877347
-1.4801505556827075
-1.5970855268177266
-1.590931054652717
-1.473996083517698
-1.5970855268177266
-1.5540042216627135
-1.5478497494977315
-1.5540042216627135
-1.4801505556827075
-1.5724676381577152
-1.5478497494977315
-1.5355408051677124
-1.5416952773327224
-1.5601586938277234
-1.5663131659927332
-1.5355408051677124
-1.5232318608377204
-1.504768444342719
-1.6647847206327224
-1.830955469087764
-2.212532743317813
-1.2647440299076718
-1.3324432237226955
-1.4186058340326935
-1.4062968897027015
-1.6463213041377216
-1.5847765824877347
-1.5170773886727107
-1.5601586938277234
-1.5970855268177266
-1.5663131659927332
-1.5232318608377204
-1.6647847206327224
-1.7140204979527456
-1.6401668319727392
-1.615548943312728
-1.6032399989827366
-1.6032399989827366
-1.6032399989827366
-1.5970855268177266
-1.578622110322725
-1.6032399989827366
-1.6093944711477182
-1.590931054652717
-1.5170773886727107
-1.5355408051677124
-1.5416952773327224
-1.5540042216627135
-1.590931054652717
-1.5724676381577152
-1.5724676381577152
-1.5847765824877347
-1.5847765824877347
-1.578622110322725
-1.6217034154777374
-1.5540042216627135
-1.6524757763027313
-1.590931054652717
-1.400142417537692
-1.0616464484626553
-1.3201342793926762
-1.4062968897027015
-1.400142417537692
-1.3385976958876775
-1.4493781948577145
-1.4186058340326935
-1.473996083517698
-1.4801505556827075
-1.4986139721777092
-1.5724676381577152
-1.5970855268177266
-1.5601586938277234
-1.861727829912757
-2.120215660842805
-1.7447928587777384
-1.6647847206327224
-1.6524757763027313
-1.615548943312728
-1.1539635309376628
-0.40311792680755576
-1.6586302484677409
-1.6524757763027313
-1.6093944711477182
-1.5724676381577152
-1.5478497494977315
-1.5170773886727107
-1.5970855268177266
-2.4587116299178424
-1.689402609292734
-1.5355408051677124
-1.5540042216627135
-1.5293863330027024
-1.5478497494977315
-1.5416952773327224
-1.4309147783627132
-1.5847765824877347
-1.6278578876427194
-1.6278578876427194
-1.590931054652717
-1.5416952773327224
-1.510922916507701
-1.7201749701177547
-1.5232318608377204
-1.5847765824877347
-1.6278578876427194
-1.6340123598077294
-1.615548943312728
-1.5847765824877347
-1.6278578876427194
-1.5847765824877347
-1.5724676381577152
-1.6524757763027313
-1.6032399989827366
-1.5847765824877347
-1.590931054652717
-1.7140204979527456
-1.6032399989827366
-1.5478497494977315
-1.4863050278477177
-1.6586302484677409
-1.615548943312728
-1.6032399989827366
-1.5724676381577152
-1.5601586938277234
-1.5355408051677124
-1.4863050278477177
-1.510922916507701
-1.5293863330027024
-1.5355408051677124
-1.6093944711477182
-1.5355408051677124
-1.510922916507701
-1.5232318608377204
-1.1170366979476598
-0.7539228402126119
-2.120215660842805
-1.1970448360926755
-1.3016708628976748
-1.3878334732077002
-1.4432237226927047
-1.4863050278477177
-1.8063375804277528
-2.403321380432838
-1.6955570814577436
-1.5970855268177266
-1.578622110322725
-1.615548943312728
-1.6032399989827366
-1.590931054652717
-1.4555326670226965
-1.683248137127724
-1.6955570814577436
-1.6278578876427194
-1.6032399989827366
-1.6217034154777374
-1.4801505556827075
-1.6647847206327224
-1.5601586938277234
-1.5663131659927332
-1.5355408051677124
-1.504768444342719
-1.4863050278477177
-1.4986139721777092
-1.5293863330027024
-1.4986139721777092
-1.4493781948577145
-1.6340123598077294
-1.578622110322725
-1.5601586938277234
-1.5170773886727107
-1.7447928587777384
-1.6032399989827366
-1.5293863330027024
-1.5232318608377204
-1.578622110322725
-1.5478497494977315
-1.5478497494977315
-1.5170773886727107
-1.5416952773327224
-1.5540042216627135
-1.5170773886727107
-1.4801505556827075
-1.473996083517698
-1.4062968897027015
-1.5847765824877347
-1.5478497494977315
-1.5232318608377204
-1.4863050278477177
-1.3878334732077002
-1.5663131659927332
-1.578622110322725
-1.504768444342719
-1.473996083517698
-1.5170773886727107
-1.504768444342719
-1.4863050278477177
-1.5601586938277234
-2.187914854657802
-1.326288751557686
-1.289361918567683
-0.8277765061926179
0.040004069072507864
-1.89865466290276
-1.6524757763027313
-2.261768520637808
-2.175605910327811
-1.5601586938277234
-1.504768444342719
-1.5355408051677124
-1.5663131659927332
-1.4863050278477177
-1.5232318608377204
-1.5970855268177266
-1.6093944711477182
-1.5416952773327224
-1.5478497494977315
-1.5540042216627135
-1.5724676381577152
-1.6093944711477182
-1.5170773886727107
-1.4555326670226965
-1.6524757763027313
-1.5970855268177266
-1.6093944711477182
-1.504768444342719
-1.6709391927977324
-1.578622110322725
-1.5293863330027024
-1.5540042216627135
-1.5970855268177266
-1.6032399989827366
-1.5970855268177266
-1.6032399989827366
-1.6217034154777374
-1.6217034154777374
-1.5170773886727107
-1.6647847206327224
-1.7078660257877356
-1.5478497494977315
-1.7755652196027594
-1.689402609292734
-1.6709391927977324
-1.6278578876427194
-1.5416952773327224
-1.7263294422827367
-1.7140204979527456
-1.5170773886727107
-1.5416952773327224
-1.5724676381577152
-1.5663131659927332
-1.5540042216627135
-1.5170773886727107
-1.5355408051677124
-1.7201749701177547
-1.6401668319727392
-1.6401668319727392
-1.6032399989827366
-1.5724676381577152
-1.5355408051677124
-1.467841611352716
-1.6032399989827366
-1.5355408051677124
-1.5478497494977315
-1.7632562752727399
-2.1263701330077875
-1.215508252587677
-1.221662724752659
-1.4555326670226965
-1.5355408051677124
-1.5232318608377204
-1.5170773886727107
-1.5478497494977315
-1.5416952773327224
-1.5232318608377204
-1.5232318608377204
-1.5416952773327224
-1.5847765824877347
-1.6217034154777374
-1.6340123598077294
-1.5601586938277234
-1.6093944711477182
-1.6217034154777374
-1.4247603061977032
-1.578622110322725
-1.6093944711477182
-1.578622110322725
-1.5478497494977315
-1.5170773886727107
-1.4924595000126994
-1.4924595000126994
-1.473996083517698
-1.6278578876427194
-1.590931054652717
-1.578622110322725
-1.8432644134177558
-1.6032399989827366
-1.5970855268177266
-1.5416952773327224
-1.467841611352716
-1.6709391927977324
-1.578622110322725
-1.6032399989827366
-1.615548943312728
-1.5847765824877347
-1.5847765824877347
-1.5663131659927332
-1.5170773886727107
-1.3878334732077002
-1.504768444342719
-1.590931054652717
-1.578622110322725
-1.6032399989827366
-1.615548943312728
-1.578622110322725
-1.5478497494977315
-1.5970855268177266
-1.5663131659927332
-1.5416952773327224
-1.5540042216627135
-1.5663131659927332
-1.590931054652717
-1.473996083517698
-1.0862643371226666
-0.08308537422752059
-2.0586709391927913
-1.7386383866127564
-1.6340123598077294
-1.6278578876427194
-1.5724676381577152
-1.8801912464077586
-2.501792935072855
-1.6278578876427194
-1.4801505556827075
-1.5232318608377204
-1.5601586938277234
-1.6401668319727392
-1.7694107474377496
-1.5847765824877347
-1.6709391927977324
-1.6278578876427194
-1.590931054652717
-1.5847765824877347
-1.590931054652717
-1.578622110322725
-1.5416952773327224
-1.467841611352716
-1.6955570814577436
-1.615548943312728
-1.5970855268177266
-1.5724676381577152
-1.615548943312728
-1.5724676381577152
-1.5663131659927332
-1.5232318608377204
-1.6340123598077294
-1.578622110322725
-1.5540042216627135
-1.5478497494977315
-1.5540042216627135
-1.5355408051677124
-1.5232318608377204
-1.5478497494977315
-1.590931054652717
-1.677093664962742
-1.6647847206327224
-1.6093944711477182
-1.5663131659927332
-1.5232318608377204
-1.473996083517698
-1.5232318608377204
-1.590931054652717
-1.5847765824877347
-1.5601586938277234
-1.5355408051677124
-1.5232318608377204
-1.5293863330027024
-1.4555326670226965
-1.7140204979527456
-1.6524757763027313
-1.6032399989827366
-1.6217034154777374
-1.5970855268177266
-1.578622110322725
-1.578622110322725
-1.510922916507701
-1.818646524757745
-2.2063782711528033
-1.3447521680526875
-1.3693700567126987
-1.4309147783627132
-1.25243508557768
-1.5170773886727107
-1.4924595000126994
-1.5663131659927332
-1.590931054652717
-1.6093944711477182
-1.578622110322725
-1.5847765824877347
-1.5970855268177266
-1.5724676381577152
-1.4801505556827075
-1.6524757763027313
-1.6278578876427194
-1.5663131659927332
-1.4247603061977032
-1.6463213041377216
-1.5847765824877347
-1.5355408051677124
-1.5478497494977315
-1.7017115536227536
-1.6217034154777374
-1.6093944711477182
-1.590931054652717
-1.5601586938277234
-1.6032399989827366
-1.5355408051677124
-1.5601586938277234
-1.5724676381577152
-1.5601586938277234
-1.677093664962742
-1.5970855268177266
-1.5601586938277234
-1.5478497494977315
-1.4924595000126994
-1.5724676381577152
-1.5663131659927332
-1.5416952773327224
-1.5355408051677124
-1.5416952773327224
-1.5416952773327224
-1.5170773886727107
-1.4062968897027015
-1.689402609292734
-1.6586302484677409
-1.5601586938277234
-1.5232318608377204
-1.510922916507701
-1.4801505556827075
-1.4616871391877062
-1.3816790010426905
-1.5847765824877347
-1.5540042216627135
-1.5170773886727107
-1.504768444342719
-1.0062561989776508
-0.08308537422752059
-1.3201342793926762
-1.0247196154726523
-1.9786628010477763
-1.689402609292734
-1.6463213041377216
-1.5970855268177266
-1.5601586938277234
-1.5601586938277234
-1.6647847206327224
-2.483329518577854
-1.9417359680577726
-1.5540042216627135
-1.5601586938277234
-1.6709391927977324
-1.9601993845527748
-1.7324839144477464
-1.6032399989827366
-1.6586302484677409
-1.7078660257877356
-1.6401668319727392
-1.6278578876427194
-1.6093944711477182
-1.6217034154777374
-1.615548943312728
-1.5478497494977315
-1.6955570814577436
-1.6524757763027313
-1.5540042216627135
-1.7509473309427481
-1.6278578876427194
-1.615548943312728
-1.6217034154777374
-1.5170773886727107
-1.6340123598077294
-1.6217034154777374
-1.5970855268177266
-1.6032399989827366
-1.5970855268177266
-1.590931054652717
-1.590931054652717
-1.5170773886727107
-1.4924595000126994
-1.6463213041377216
-1.6032399989827366
-1.5847765824877347
-1.6093944711477182
-1.590931054652717
-1.5970855268177266
-1.5416952773327224
-1.7201749701177547
-1.6278578876427194
-1.5847765824877347
-1.5847765824877347
-1.6217034154777374
-1.6340123598077294
-1.4555326670226965
-1.5540042216627135
-1.615548943312728
-1.615548943312728
-1.6340123598077294
-1.6217034154777374
-1.590931054652717
-1.6278578876427194
-1.6032399989827366
-2.255614048472826
-1.757101803107758
-1.2955163907326928
-1.4309147783627132
-1.4493781948577145
-1.6032399989827366
-1.6340123598077294
-1.5232318608377204
-1.5724676381577152
-1.5601586938277234
-1.5293863330027024
-1.5540042216627135
-1.5724676381577152
-1.5293863330027024
-1.5847765824877347
-1.4186058340326935
-1.6217034154777374
-1.615548943312728
-1.4309147783627132
-1.578622110322725
-1.5416952773327224
-1.4986139721777092
-1.4801505556827075
-1.400142417537692
-1.5847765824877347
-1.5355408051677124
-1.5355408051677124
-1.6032399989827366
-1.5355408051677124
-1.5355408051677124
-1.5416952773327224
-1.510922916507701
-1.3878334732077002
-1.5293863330027024
-1.5416952773327224
-1.5478497494977315
-1.5601586938277234
-1.5416952773327224
-1.5478497494977315
-1.504768444342719
-1.5847765824877347
-1.615548943312728
-1.578622110322725
-1.5847765824877347
-1.5478497494977315
-1.5232318608377204
-1.4924595000126994
-1.7324839144477464
-1.6340123598077294
-1.5970855268177266
-1.5478497494977315
-1.5293863330027024
-1.5293863330027024
-1.5478497494977315
-1.4555326670226965
-1.5355408051677124
-1.0616464484626553
-0.390808982477564
-1.7263294422827367
-1.5847765824877347
-1.5416952773327224
-1.6093944711477182
-1.9601993845527748
-2.4217847969278394
-1.5847765824877347
-1.4801505556827075
-1.467841611352716
-1.467841611352716
-1.4986139721777092
-1.4986139721777092
-1.4062968897027015
-1.5970855268177266
-1.504768444342719
-1.3878334732077002
-1.39398794537271
-1.510922916507701
-1.467841611352716
-1.3878334732077002
-1.3509066402176972
-1.4986139721777092
-1.4555326670226965
-1.467841611352716
-1.4555326670226965
-1.467841611352716
-1.4555326670226965
-1.4124513618677115
-1.326288751557686
-1.4863050278477177
-1.7694107474377496
-1.590931054652717
-1.4986139721777092
-1.473996083517698
-1.473996083517698
-1.3385976958876775
-1.39398794537271
-1.4432237226927047
-1.3816790010426905
-1.3816790010426905
-1.3324432237226955
-1.3324432237226955
-1.3509066402176972
-1.2093537804226673
-1.4309147783627132
-1.4124513618677115
-1.3447521680526875
-1.3509066402176972
-1.3755245288776807
-1.4062968897027015
-1.4309147783627132
-1.2832074464026733
-1.5232318608377204
-1.510922916507701
-1.4924595000126994
-1.4616871391877062
-1.437069250527695
-1.0862643371226666
-1.3139798072276945
-1.3755245288776807
-1.510922916507701
-1.7078660257877356
-2.0586709391927913
-1.2093537804226673
-1.2832074464026733
-1.3570611123826792
-1.3816790010426905
-1.363215584547689
-1.4062968897027015
-1.3878334732077002
-1.4186058340326935
-1.400142417537692
-1.578622110322725
-1.467841611352716
-1.4247603061977032
-1.4186058340326935
-1.4986139721777092
-1.4493781948577145
-1.4493781948577145
-1.4432237226927047
-1.4924595000126994
-1.4801505556827075
-1.4555326670226965
-1.4924595000126994
-1.4986139721777092
-1.5416952773327224
-1.6093944711477182
-1.4801505556827075
-1.4493781948577145
-1.4493781948577145
-0.7416138958825924
-1.6217034154777374
-1.855573357747775
-1.510922916507701
-1.510922916507701
-1.5170773886727107
-1.510922916507701
-1.4616871391877062
-1.3139798072276945
-1.5724676381577152
-1.5478497494977315
-1.5170773886727107
-1.5355408051677124
-1.510922916507701
-1.5170773886727107
-1.5170773886727107
-1.4555326670226965
-1.5847765824877347
-1.5663131659927332
-1.5293863330027024
-1.5232318608377204
-1.504768444342719
-1.3816790010426905
-1.5170773886727107
-1.504768444342719
-1.5416952773327224
-1.510922916507701
-1.5232318608377204
-1.504768444342719
-1.4924595000126994
-0.9693293659876481
-0.0707764298975011
-2.8525978484779113
-2.0463619948628
-1.5663131659927332
-1.4986139721777092
-1.3878334732077002
-1.5540042216627135
-1.510922916507701
-1.467841611352716
-1.473996083517698
-1.5232318608377204
-1.4863050278477177
-1.504768444342719
-1.5170773886727107
-1.5355408051677124
-1.5232318608377204
-0.7600773123775938
-1.7447928587777384
-2.009435161872797
-1.5478497494977315
-1.7140204979527456
-1.578622110322725
-1.5416952773327224
-1.5232318608377204
-1.4309147783627132
-1.590931054652717
-1.590931054652717
-1.5540042216627135
-1.578622110322725
-1.615548943312728
-1.590931054652717
-1.5724676381577152
-1.473996083517698
-1.4924595000126994
-1.6463213041377216
-1.5355408051677124
-1.5724676381577152
-1.5416952773327224
-1.4863050278477177
-1.473996083517698
-1.4863050278477177
-1.6217034154777374
-1.6032399989827366
-1.5847765824877347
-1.5601586938277234
-1.5478497494977315
-1.5416952773327224
-1.5601586938277234
-1.5663131659927332
-1.6032399989827366
-1.5970855268177266
-1.5970855268177266
-1.5663131659927332
-1.5601586938277234
-1.5601586938277234
-1.4924595000126994
-1.5416952773327224
-1.6401668319727392
-1.5663131659927332
-1.5663131659927332
-1.504768444342719
-1.5293863330027024
-1.7940286360977609
-1.5724676381577152
-1.4493781948577145
-1.6463213041377216
-1.4616871391877062
-1.4863050278477177
-1.5970855268177266
-1.4309147783627132
-1.467841611352716
-0.7970041453676248
-0.6369878690775933
-1.7078660257877356
-1.504768444342719
-1.677093664962742
-1.6340123598077294
-1.5540042216627135
-1.5355408051677124
-2.1632969659978185
-2.2309961598128147
-1.6032399989827366
-1.5847765824877347
-1.5724676381577152
-1.5478497494977315
-1.6032399989827366
-1.5540042216627135
-1.5232318608377204
-1.5170773886727107
-1.6955570814577436
-1.6093944711477182
-1.5724676381577152
-1.5540042216627135
-1.5663131659927332
-1.5663131659927332
-1.4924595000126994
-1.5663131659927332
-1.5416952773327224
-1.5724676381577152
-1.5663131659927332
-1.5601586938277234
-1.5293863330027024
-1.400142417537692
-1.6340123598077294
-1.6278578876427194
-1.6032399989827366
-1.5540042216627135
-1.5601586938277234
-1.590931054652717
-1.5540042216627135
-1.5355408051677124
-1.6032399989827366
-1.5663131659927332
-1.5663131659927332
-1.5724676381577152
-1.5170773886727107
-1.467841611352716
-1.6340123598077294
-1.4986139721777092
-1.578622110322725
-1.5663131659927332
-1.0493375041326358
-0.29233742783754685
-1.7201749701177547
-1.6463213041377216
-1.615548943312728
-2.1817603824928202
-2.2740774649678275
-1.5663131659927332
-1.4801505556827075
-1.7817196917677414
-1.7324839144477464
-1.5416952773327224
-1.4801505556827075
-1.437069250527695
-1.590931054652717
-1.5601586938277234
-1.5601586938277234
-1.5724676381577152
-1.5416952773327224
-1.5355408051677124
-1.510922916507701
-1.473996083517698
-1.3816790010426905
-1.4186058340326935
-1.5293863330027024
-1.5293863330027024
-1.5170773886727107
-1.5478497494977315
-1.5170773886727107
-1.5478497494977315
-1.5663131659927332
-1.5293863330027024
-1.5355408051677124
-1.504768444342719
-1.5478497494977315
-1.5540042216627135
-1.437069250527695
-1.5540042216627135
-1.5601586938277234
-1.5478497494977315
-1.5478497494977315
-1.5416952773327224
-1.5478497494977315
-1.5478497494977315
-1.467841611352716
-1.5970855268177266
-1.5970855268177266
-1.5478497494977315
-1.5601586938277234
-1.510922916507701
-1.3878334732077002
-1.615548943312728
-1.4555326670226965
-1.578622110322725
-1.5847765824877347
-1.5478497494977315
-1.510922916507701
-1.5355408051677124
-1.5724676381577152
-1.504768444342719
-1.467841611352716
-1.5540042216627135
-1.4924595000126994
-1.6955570814577436
-2.0955977721827947
-1.2647440299076718
-1.1908903639276658
-1.2401261412476885
-1.3201342793926762
-1.467841611352716
-1.4801505556827075
-1.4924595000126994
-1.4555326670226965
-1.4493781948577145
-1.4924595000126994
-1.4801505556827075
-1.5170773886727107
-1.5232318608377204
-1.5478497494977315
-1.615548943312728
-1.5293863330027024
-1.4924595000126994
-1.4924595000126994
-1.4924595000126994
-1.473996083517698
-1.5293863330027024
-1.5355408051677124
-1.5416952773327224
-1.5663131659927332
-1.578622110322725
-1.5355408051677124
-1.5540042216627135
-2.1079067165127863
-1.757101803107758
-1.6217034154777374
-1.5970855268177266
-1.590931054652717
-1.5663131659927332
-1.5663131659927332
-1.4493781948577145
-1.6217034154777374
-1.5663131659927332
-1.4863050278477177
-1.504768444342719
-1.5293863330027024
-1.1970448360926755
-1.4986139721777092
-1.590931054652717
-1.683248137127724
-1.6524757763027313
-1.6647847206327224
-1.6524757763027313
-1.6463213041377216
-1.6217034154777374
-1.5970855268177266
-1.5663131659927332
-1.6647847206327224
-1.6093944711477182
-1.5601586938277234
-1.1170366979476598
-1.3447521680526875
-1.4555326670226965
-1.0985732814526583
-0.360036621652543
-1.5416952773327224
-1.6032399989827366
-1.5478497494977315
-1.5170773886727107
-1.5663131659927332
-1.578622110322725
-1.8371099412527454
-2.507947407237865
-1.7940286360977609
-1.5601586938277234
-1.6463213041377216
-1.615548943312728
-1.6032399989827366
-1.6032399989827366
-1.5232318608377204
-1.5970855268177266
-1.6217034154777374
-1.578622110322725
-1.5847765824877347
-1.6032399989827366
-1.615548943312728
-1.5540042216627135
-1.4186058340326935
-1.615548943312728
-1.7386383866127564
-1.6032399989827366
-1.578622110322725
-1.5847765824877347
-1.6093944711477182
-1.5970855268177266
-1.5601586938277234
-1.7817196917677414
-1.683248137127724
-1.6524757763027313
-1.6032399989827366
-1.5416952773327224
-1.5293863330027024
-1.5847765824877347
-1.5663131659927332
-1.578622110322725
-1.5416952773327224
-1.4986139721777092
-1.4863050278477177
-1.510922916507701
-1.5293863330027024
-1.4432237226927047
-1.467841611352716
-1.5601586938277234
-1.5416952773327224
-1.5416952773327224
-1.467841611352716
-1.6278578876427194
-1.6217034154777374
-1.5540042216627135
-1.5847765824877347
-1.590931054652717
-1.5355408051677124
-1.5232318608377204
-1.5232318608377204
-1.5232318608377204
-1.5170773886727107
-1.6463213041377216
-2.224841687647805
-1.1539635309376628
-0.9754838381526297
-1.3078253350626845
-1.4616871391877062
-1.4432237226927047
-1.4432237226927047
-1.3878334732077002
-1.6217034154777374
-1.615548943312728
-1.5478497494977315
-1.5416952773327224
-1.5232318608377204
-1.5355408051677124
-1.5232318608377204
-1.467841611352716
-1.4309147783627132
-1.6278578876427194
-1.5170773886727107
-1.4986139721777092
-1.5293863330027024
-1.5601586938277234
-1.5293863330027024
-1.4924595000126994
-1.6032399989827366
-1.590931054652717
-1.5540042216627135
-1.5663131659927332
-1.5663131659927332
-1.5724676381577152
-1.5170773886727107
-1.6524757763027313
-1.615548943312728
-1.5970855268177266
-1.578622110322725
-1.5540042216627135
-1.5663131659927332
-1.5478497494977315
-1.5355408051677124
-1.5232318608377204
-1.5478497494977315
-1.5478497494977315
-1.5416952773327224
-1.5293863330027024
-1.510922916507701
-1.5970855268177266
-1.4493781948577145
-1.5416952773327224
-1.5478497494977315
-1.4924595000126994
-1.467841611352716
-1.4924595000126994
-1.5540042216627135
-1.5724676381577152
-1.4309147783627132
-1.6278578876427194
-1.5478497494977315
-1.5293863330027024
-1.0985732814526583
-0.34772767732255133
-1.7878741639327511
-1.683248137127724
-2.3171587701228398
-2.175605910327811
-1.6401668319727392
-1.590931054652717
-1.590931054652717
-1.5847765824877347
-1.5724676381577152
-1.5293863330027024
-1.4986139721777092
-1.437069250527695
-1.5355408051677124
-1.5847765824877347
-1.5601586938277234
-1.5724676381577152
-1.5601586938277234
-1.25243508557768
-0.6739147020675963
-2.3233132422878215
-1.184735891762656
-1.3078253350626845
-1.4432237226927047
-1.504768444342719
-1.5355408051677124
-1.6524757763027313
-2.4279392690928487
-1.7324839144477464
-1.5232318608377204
-1.504768444342719
-1.5293863330027024
-1.5170773886727107
-1.504768444342719
-1.4555326670226965
-1.6093944711477182
-1.6278578876427194
-1.6032399989827366
-1.5724676381577152
-1.578622110322725
-1.5724676381577152
-1.7263294422827367
-1.5232318608377204
-1.6278578876427194
-1.590931054652717
-1.5416952773327224
-1.504768444342719
-1.4924595000126994
-1.5170773886727107
-1.473996083517698
-1.4247603061977032
-1.5847765824877347
-1.510922916507701
-1.4924595000126994
-1.3878334732077002
-1.5970855268177266
-1.5847765824877347
-1.5847765824877347
-1.5724676381577152
-1.615548943312728
-1.5970855268177266
-1.5970855268177266
-1.5847765824877347
-1.5663131659927332
-1.5416952773327224
-1.4801505556827075
-1.467841611352716
-1.578622110322725
-1.5847765824877347
-1.5416952773327224
-1.473996083517698
-1.4986139721777092
-1.5478497494977315
-1.5663131659927332
-1.5416952773327224
-1.6093944711477182
-1.6217034154777374
-1.6032399989827366
-1.6217034154777374
-1.6093944711477182
-1.5355408051677124
-1.6401668319727392
-2.477175046412844
-1.400142417537692
-1.184735891762656
-1.326288751557686
-1.4555326670226965
-1.4986139721777092
-1.5416952773327224
-1.437069250527695
-1.6586302484677409
-1.6524757763027313
-1.6032399989827366
-1.5540042216627135
-1.510922916507701
-1.2401261412476885
-1.2832074464026733
-1.3447521680526875
-1.590931054652717
-1.5232318608377204
-1.4986139721777092
-1.5170773886727107
-1.510922916507701
-1.510922916507701
-1.4863050278477177
-1.4124513618677115
-1.5293863330027024
-1.4124513618677115
-1.4062968897027015
-1.2832074464026733
-1.4124513618677115
-1.4062968897027015
-1.3816790010426905
-1.467841611352716
-1.5416952773327224
-1.5170773886727107
-1.5601586938277234
-1.5724676381577152
-1.5663131659927332
-1.590931054652717
-1.6093944711477182
-1.0801098649576568
-0.3846545103125543
-1.7509473309427481
-1.830955469087764
-1.5970855268177266
-1.5232318608377204
-1.5355408051677124
-1.849418885582765
-2.4156303247628297
-1.7078660257877356
-1.6032399989827366
-1.6278578876427194
-1.6524757763027313
-1.6524757763027313
-1.5847765824877347
-1.3755245288776807
-1.578622110322725
-1.7201749701177547
-1.590931054652717
-1.578622110322725
-1.5663131659927332
-1.5847765824877347
-1.5416952773327224
-1.4493781948577145
-1.683248137127724
-1.6278578876427194
-1.6278578876427194
-1.6032399989827366
-1.6093944711477182
-1.5847765824877347
-1.5847765824877347
-1.5724676381577152
-1.6032399989827366
-1.590931054652717
-1.5540042216627135
-1.5232318608377204
-1.5232318608377204
-1.5293863330027024
-1.4616871391877062
-1.5293863330027024
-1.578622110322725
-1.5416952773327224
-1.5232318608377204
-1.4493781948577145
-1.6032399989827366
-1.5847765824877347
-1.5232318608377204
-1.5170773886727107
-1.5601586938277234
-1.5724676381577152
-1.5970855268177266
-1.5724676381577152
-1.5601586938277234
-1.578622110322725
-1.5170773886727107
-1.615548943312728
-1.6278578876427194
-1.4555326670226965
-1.6955570814577436
-1.6709391927977324
-1.6340123598077294
-1.6340123598077294
-1.510922916507701
-1.9171180793977614
-2.3417766587828237
-1.363215584547689
-1.3016708628976748
-1.4801505556827075
-1.5170773886727107
-1.5601586938277234
-1.5601586938277234
-1.6093944711477182
-1.8063375804277528
-1.689402609292734
-1.6709391927977324
-1.7078660257877356
-1.7386383866127564
-1.6647847206327224
-1.5663131659927332
-1.689402609292734
-1.6463213041377216
-1.683248137127724
-1.7078660257877356
-1.689402609292734
-1.6463213041377216
-1.5724676381577152
-1.7140204979527456
-1.7140204979527456
-1.683248137127724
-1.6463213041377216
-1.6278578876427194
-1.6586302484677409
-1.6647847206327224
-1.615548943312728
-1.6709391927977324
-1.590931054652717
-1.5970855268177266
-1.6401668319727392
-1.5724676381577152
-1.510922916507701
-1.6586302484677409
-1.473996083517698
-1.5601586938277234
-1.615548943312728
-1.6032399989827366
-1.5847765824877347
-1.5416952773327224
-1.5232318608377204
-1.4801505556827075
-1.39398794537271
-1.5724676381577152
-1.4924595000126994
-1.437069250527695
-1.689402609292734
-1.6647847206327224
-1.5663131659927332
-1.5355408051677124
-1.4432237226927047
-1.6647847206327224
-1.6340123598077294
-1.6340123598077294
-1.615548943312728
-1.0801098649576568
-0.40311792680755576
-1.7878741639327511
-2.6064189618778553
-2.052516467027782
-1.615548943312728
-1.5847765824877347
-1.6093944711477182
-1.5970855268177266
-1.5970855268177266
-1.5416952773327224
-1.5724676381577152
-1.6463213041377216
-1.5293863330027024
-1.5232318608377204
-1.5540042216627135
-1.504768444342719
-1.5232318608377204
-1.3324432237226955
-1.4863050278477177
-1.5232318608377204
-1.5355408051677124
-1.5232318608377204
-1.510922916507701
-1.4863050278477177
-1.5232318608377204
-1.4432237226927047
-1.590931054652717
-1.6032399989827366
-1.5601586938277234
-1.4986139721777092
-1.4924595000126994
-1.5355408051677124
-1.6955570814577436
-1.4863050278477177
-1.5847765824877347
-1.6032399989827366
-1.5601586938277234
-1.5293863330027024
-1.504768444342719
-1.504768444342719
-1.4863050278477177
-1.4493781948577145
-1.5601586938277234
-1.5355408051677124
-1.4924595000126994
-1.4493781948577145
-1.6093944711477182
-1.578622110322725
-1.578622110322725
-1.4924595000126994
-1.6524757763027313
-1.6401668319727392
-1.6278578876427194
-1.615548943312728
-1.6278578876427194
-1.6586302484677409
-1.590931054652717
-1.5232318608377204
-1.5724676381577152
-1.5540042216627135
-1.6401668319727392
-1.6093944711477182
-1.8371099412527454
-2.249459576307816
-1.4124513618677115
-1.4986139721777092
-1.5663131659927332
-1.6093944711477182
-1.6340123598077294
-1.6217034154777374
-1.6401668319727392
-1.6278578876427194
-1.504768444342719
-1.5663131659927332
-1.590931054652717
-1.590931054652717
-1.6032399989827366
-1.6032399989827366
-1.578622110322725
-1.590931054652717
-1.4863050278477177
-1.6524757763027313
-1.6586302484677409
-1.6340123598077294
-1.590931054652717
-1.5540042216627135
-1.5355408051677124
-1.7755652196027594
-0.30464637216753854
-1.1539635309376628
-1.7632562752727399
-1.6401668319727392
-1.590931054652717
-1.578622110322725
-1.5724676381577152
-1.578622110322725
-2.3417766587828237
-1.990971745377768
-1.4863050278477177
-1.4863050278477177
-1.3570611123826792
-1.4863050278477177
-1.4432237226927047
-1.437069250527695
-1.4616871391877062
-1.5478497494977315
-1.5232318608377204
-1.4986139721777092
-1.5478497494977315
-1.5724676381577152
-1.5540042216627135
-1.4986139721777092
-1.4801505556827075
-1.4555326670226965
-1.4863050278477177
-1.6647847206327224
-1.5170773886727107
-1.510922916507701
-1.5170773886727107
-1.3755245288776807
-1.510922916507701
-0.9877927824826491
-0.05846748556750937
-1.9786628010477763
-1.6401668319727392
-1.510922916507701
-1.4616871391877062
-1.954044912387765
-2.372549019607845
-1.7017115536227536
-1.5663131659927332
-1.5663131659927332
-1.5724676381577152
-1.5232318608377204
-1.4924595000126994
-1.4309147783627132
-1.5232318608377204
-1.4801505556827075
-1.473996083517698
-1.4801505556827075
-1.467841611352716
-1.437069250527695
-1.5232318608377204
-1.473996083517698
-1.6586302484677409
-1.5847765824877347
-1.5478497494977315
-1.5416952773327224
-1.510922916507701
-1.5355408051677124
-1.504768444342719
-1.4924595000126994
-1.615548943312728
-1.5170773886727107
-1.504768444342719
-1.3693700567126987
-1.4986139721777092
-1.590931054652717
-1.5540042216627135
-1.5416952773327224
-1.5847765824877347
-1.5847765824877347
-1.590931054652717
-1.590931054652717
-1.5970855268177266
-1.6032399989827366
-1.4924595000126994
-1.590931054652717
-1.6032399989827366
-1.4186058340326935
-1.615548943312728
-1.615548943312728
-1.5478497494977315
-1.5478497494977315
-1.473996083517698
-1.6217034154777374
-1.5970855268177266
-1.5663131659927332
-1.5355408051677124
-1.5601586938277234
-1.5724676381577152
-1.5478497494977315
-1.504768444342719
-1.5478497494977315
-1.9048091350677696
-2.187914854657802
-1.3201342793926762
-1.39398794537271
-1.4555326670226965
-1.4863050278477177
-1.4924595000126994
-1.5540042216627135
-1.5293863330027024
-1.5540042216627135
-1.5293863330027024
-1.504768444342719
-1.4863050278477177
-1.4986139721777092
-1.5724676381577152
-1.5970855268177266
-1.5540042216627135
-1.578622110322725
-1.5724676381577152
-1.5416952773327224
-1.5540042216627135
-1.5293863330027024
-1.5601586938277234
-1.5724676381577152
-1.5293863330027024
-1.5540042216627135
-1.467841611352716
-1.437069250527695
-1.578622110322725
-1.467841611352716
-1.5663131659927332
-1.6032399989827366
-1.5663131659927332
-1.5970855268177266
-1.6278578876427194
-1.615548943312728
-1.6278578876427194
-1.5355408051677124
-1.6278578876427194
-1.6032399989827366
-1.590931054652717
-1.7632562752727399
-1.6401668319727392
-1.6340123598077294
-1.5170773886727107
-1.4247603061977032
-1.683248137127724
-1.6217034154777374
-1.590931054652717
-1.578622110322725
-1.6401668319727392
-1.689402609292734
-1.683248137127724
-1.6647847206327224
-1.5540042216627135
-1.689402609292734
-1.6278578876427194
-1.5232318608377204
-1.4863050278477177
-0.9816383103176396
-0.21848376185754081
-2.729508405177883
-2.1263701330077875
-1.6709391927977324
-1.5416952773327224
-1.5293863330027024
-1.5293863330027024
-1.5232318608377204
-1.3016708628976748
-1.4801505556827075
-1.5293863330027024
-1.4986139721777092
-1.510922916507701
-1.5232318608377204
-1.5478497494977315
-1.578622110322725
-1.504768444342719
-1.6524757763027313
-1.6278578876427194
-1.5478497494977315
-1.5232318608377204
-1.4986139721777092
-1.3078253350626845
-1.473996083517698
-1.3878334732077002
-1.5355408051677124
-1.510922916507701
-1.5293863330027024
-1.5540042216627135
-1.5847765824877347
-1.6093944711477182
-1.578622110322725
-1.4432237226927047
-1.689402609292734
-1.5724676381577152
-1.4616871391877062
-1.4616871391877062
-1.5416952773327224
-1.4309147783627132
-1.39398794537271
-1.3878334732077002
-1.5355408051677124
-1.4555326670226965
-1.467841611352716
-1.4863050278477177
-1.504768444342719
-1.4801505556827075
-1.437069250527695
-1.4062968897027015
-1.5540042216627135
-1.5293863330027024
-1.5232318608377204
-1.467841611352716
-1.4432237226927047
-1.4555326670226965
-1.3755245288776807
-1.4124513618677115
-1.4924595000126994
-1.4247603061977032
-1.437069250527695
-1.4493781948577145
-1.4186058340326935
-1.6401668319727392
-1.7632562752727399
-0.8031586175326066
-1.178581419597674
-1.2647440299076718
-1.326288751557686
-1.3509066402176972
-1.400142417537692
-1.3816790010426905
-1.3139798072276945
-1.4986139721777092
-1.4247603061977032
-1.3755245288776807
-1.4309147783627132
-1.467841611352716
-1.6709391927977324
-1.855573357747775
-1.5355408051677124
-1.6093944711477182
-1.5540042216627135
-1.5724676381577152
-1.5540042216627135
-1.5232318608377204
-1.504768444342719
-1.5170773886727107
-1.4062968897027015
-1.5540042216627135
-1.4924595000126994
-1.4493781948577145
-1.2955163907326928
-1.5232318608377204
-1.4924595000126994
-1.4309147783627132
-1.4247603061977032
-1.4863050278477177
-1.467841611352716
-1.473996083517698
-1.4863050278477177
-1.4309147783627132
-1.4432237226927047
-1.437069250527695
-1.4124513618677115
-1.4309147783627132
-1.4124513618677115
-1.510922916507701
-1.4493781948577145
-1.4863050278477177
-1.467841611352716
-1.3693700567126987
-1.5170773886727107
-1.5663131659927332
-1.5601586938277234
-1.5232318608377204
-1.504768444342719
-1.5232318608377204
-1.510922916507701
-1.3324432237226955
-1.4986139721777092
-1.6093944711477182
-0.9631748938226381
0.040004069072507864
-1.9232725515627715
-1.677093664962742
-1.590931054652717
-2.1571424938328088
-2.261768520637808
-1.578622110322725
-1.5355408051677124
-1.5478497494977315
-1.5355408051677124
-1.6647847206327224
-2.003280689707787
-1.6401668319727392
-1.683248137127724
-1.6032399989827366
-1.578622110322725
-1.5663131659927332
-1.5540042216627135
-1.5478497494977315
-1.5170773886727107
-1.504768444342719
-1.6093944711477182
-1.578622110322725
-1.5724676381577152
-1.2278171969176688
-1.2770529742376913
-1.4555326670226965
-1.4924595000126994
-1.590931054652717
-1.6032399989827366
-1.5601586938277234
-1.578622110322725
-1.5847765824877347
-1.578622110322725
-1.578622110322725
-0.9877927824826491
-0.6616057577376044
-2.378703491772827
-1.2708985020726815
-1.4986139721777092
-1.4493781948577145
-1.467841611352716
-1.4924595000126994
-1.9786628010477763
-2.4587116299178424
-1.578622110322725
-1.5355408051677124
-1.5601586938277234
-1.5478497494977315
-1.5601586938277234
-1.5416952773327224
-1.3878334732077002
-1.5847765824877347
-1.7263294422827367
-1.615548943312728
-1.578622110322725
-1.5540042216627135
-1.5540042216627135
-1.510922916507701
-1.467841611352716
-1.5601586938277234
-1.510922916507701
-1.4863050278477177
-1.5293863330027024
-1.510922916507701
-1.437069250527695
-1.4801505556827075
-1.6032399989827366
-1.590931054652717
-1.5724676381577152
-1.578622110322725
-1.5847765824877347
-1.5663131659927332
-1.5416952773327224
-1.5478497494977315
-1.5970855268177266
-1.5970855268177266
-1.5663131659927332
-1.5355408051677124
-1.4863050278477177
-1.5847765824877347
-1.615548943312728
-1.504768444342719
-1.5847765824877347
-1.578622110322725
-1.5540042216627135
-1.5601586938277234
-1.5724676381577152
-1.5540042216627135
-1.5170773886727107
-1.4247603061977032
-1.5724676381577152
-1.5293863330027024
-1.4247603061977032
-1.5847765824877347
-1.5478497494977315
-1.5170773886727107
-1.510922916507701
-1.7140204979527456
-2.2433051041428067
-1.3016708628976748
-1.3078253350626845
-1.4124513618677115
-1.4986139721777092
-1.504768444342719
-1.4801505556827075
-1.4986139721777092
-1.473996083517698
-1.615548943312728
-1.5478497494977315
-1.5232318608377204
-1.4986139721777092
-1.5478497494977315
-1.5416952773327224
-1.5601586938277234
-1.6093944711477182
-1.6340123598077294
-1.578622110322725
-1.4863050278477177
-1.5478497494977315
-1.5293863330027024
-1.1293456422776516
-0.5323618422725662
-1.5355408051677124
-1.6340123598077294
-1.5970855268177266
-1.5601586938277234
-1.504768444342719
-1.504768444342719
-1.8248009969227534
-2.507947407237865
-1.6586302484677409
-1.4986139721777092
-1.510922916507701
-1.4924595000126994
-1.4124513618677115
-1.504768444342719
-1.4124513618677115
-1.5355408051677124
-1.5355408051677124
-1.4924595000126994
-1.4924595000126994
-1.4924595000126994
-1.4924595000126994
-1.4986139721777092
-1.3878334732077002
-1.578622110322725
-1.5416952773327224
-1.4616871391877062
-1.5540042216627135
-1.5724676381577152
-1.510922916507701
-1.4555326670226965
-1.4309147783627132
-1.5355408051677124
-1.473996083517698
-1.400142417537692
-1.4062968897027015
-1.4247603061977032
-1.437069250527695
-1.437069250527695
-1.4124513618677115
-1.5970855268177266
-1.8371099412527454
-1.6093944711477182
-1.5355408051677124
-1.5170773886727107
-1.4986139721777092
-1.4555326670226965
-1.504768444342719
-1.5355408051677124
-1.510922916507701
-1.5232318608377204
-1.4863050278477177
-1.4555326670226965
-1.473996083517698
-0.46466264845757
-1.2708985020726815
-1.8248009969227534
-1.473996083517698
-1.4309147783627132
-1.4309147783627132
-1.437069250527695
-1.4432237226927047
-1.5601586938277234
-2.194069326822812
-1.25243508557768
-1.2093537804226673
-1.3755245288776807
-1.4616871391877062
-1.4616871391877062
-1.615548943312728
-1.4801505556827075
-1.5540042216627135
-1.4986139721777092
-1.4616871391877062
-1.510922916507701
-1.4986139721777092
-1.5293863330027024
-1.4863050278477177
-1.3816790010426905
-1.5970855268177266
-1.510922916507701
-1.4924595000126994
-1.4062968897027015
-1.5847765824877347
-1.467841611352716
-1.400142417537692
-1.400142417537692
-1.5232318608377204
-1.473996083517698
-1.510922916507701
-1.4863050278477177
-1.4863050278477177
-1.504768444342719
-1.4124513618677115
-1.5232318608377204
-1.4986139721777092
-1.4432237226927047
-1.6032399989827366
-1.5416952773327224
-1.4986139721777092
-1.504768444342719
-0.8585488670176111
-1.615548943312728
-1.8863457185727683
-1.5847765824877347
-1.5232318608377204
-1.4801505556827075
-1.4432237226927047
-1.5170773886727107
-1.3385976958876775
-1.5293863330027024
-1.5663131659927332
-1.5232318608377204
-1.4986139721777092
-1.504768444342719
-1.5355408051677124
-1.5232318608377204
-1.437069250527695
-1.6340123598077294
-1.5970855268177266
-1.5601586938277234
-0.9385570051626267
-0.033849596907498114
-1.6524757763027313
-1.073955392792647
-2.0955977721827947
-1.9478904402227823
-1.39398794537271
-1.4616871391877062
-1.437069250527695
-1.4432237226927047
-1.4493781948577145
-1.437069250527695
-1.4186058340326935
-1.4616871391877062
-1.467841611352716
-1.4801505556827075
-1.7447928587777384
-2.04020752269779
-1.6463213041377216
-1.5478497494977315
-1.5970855268177266
-1.5970855268177266
-1.5416952773327224
-1.5293863330027024
-1.4986139721777092
-1.4555326670226965
-1.4863050278477177
-1.4986139721777092
-1.4493781948577145
-1.4801505556827075
-1.4309147783627132
-1.615548943312728
-1.5601586938277234
-1.5478497494977315
-1.5478497494977315
-1.473996083517698
-1.6032399989827366
-1.6093944711477182
-1.6278578876427194
-1.6524757763027313
-1.615548943312728
-1.6032399989827366
-1.5663131659927332
-1.4986139721777092
-1.6463213041377216
-1.6647847206327224
-1.5540042216627135
-1.5355408051677124
-1.5416952773327224
-1.5293863330027024
-1.5170773886727107
-1.4555326670226965
-1.6463213041377216
-1.578622110322725
-1.5416952773327224
-1.5540042216627135
-1.5293863330027024
-1.437069250527695
-1.3878334732077002
-1.5170773886727107
-1.5663131659927332
-1.504768444342719
-1.5355408051677124
-1.757101803107758
-2.1694514381628007
-1.2647440299076718
-1.25243508557768
-1.4493781948577145
-1.5355408051677124
-1.5170773886727107
-1.4924595000126994
-1.5601586938277234
-1.9171180793977614
-1.7017115536227536
-1.5847765824877347
-1.5355408051677124
-1.578622110322725
-1.5724676381577152
-1.5540042216627135
-1.5293863330027024
-1.5478497494977315
-1.590931054652717
-1.4801505556827075
-1.590931054652717
-1.6032399989827366
-1.2278171969176688
-1.2647440299076718
-1.510922916507701
-1.5232318608377204
-1.504768444342719
-1.437069250527695
-1.6217034154777374
-1.5663131659927332
-1.5724676381577152
-1.5601586938277234
-1.5663131659927332
-1.5601586938277234
-1.5232318608377204
-1.4801505556827075
-1.5540042216627135
-1.6709391927977324
-1.5663131659927332
-1.578622110322725
-1.5724676381577152
-1.5540042216627135
-1.4062968897027015
-0.20617481752752131
-1.5478497494977315
-1.6340123598077294
-1.615548943312728
-1.5724676381577152
