4.298898807253093
4.292744335088111
4.292744335088111
4.298898807253093
4.298898807253093
4.305053279418103
4.298898807253093
4.305053279418103
4.305053279418103
4.305053279418103
4.305053279418103
4.3112077515831135
4.3112077515831135
4.3112077515831135
4.3112077515831135
4.3112077515831135
4.3112077515831135
4.292744335088111
4.2865898629231
4.292744335088111
4.298898807253093
4.298898807253093
4.3173622237481215
4.323516695913104
4.329671168078114
4.323516695913104
4.329671168078114
4.329671168078114
4.329671168078114
4.329671168078114
4.323516695913104
4.323516695913104
4.329671168078114
4.329671168078114
4.323516695913104
4.335825640243124
4.329671168078114
4.341980112408105
4.341980112408105
4.335825640243124
4.329671168078114
4.329671168078114
4.335825640243124
4.335825640243124
4.329671168078114
4.341980112408105
4.341980112408105
4.341980112408105
4.341980112408105
4.348134584573115
4.335825640243124
4.329671168078114
4.341980112408105
4.341980112408105
4.354289056738125
4.348134584573115
4.348134584573115
4.341980112408105
4.341980112408105
4.329671168078114
4.323516695913104
4.323516695913104
4.323516695913104
4.3173622237481215
4.3173622237481215
4.305053279418103
4.305053279418103
4.305053279418103
4.298898807253093
4.27428091859311
4.298898807253093
4.298898807253093
4.292744335088111
4.298898807253093
4.2865898629231
4.2865898629231
4.2681264464281
4.2681264464281
4.27428091859311
4.2681264464281
4.2681264464281
4.2681264464281
4.280435390758092
4.280435390758092
4.2865898629231
4.280435390758092
4.2865898629231
4.280435390758092
4.2865898629231
4.2865898629231
4.280435390758092
4.27428091859311
4.27428091859311
4.280435390758092
4.27428091859311
4.2865898629231
4.2865898629231
4.280435390758092
4.280435390758092
4.280435390758092
4.280435390758092
4.2865898629231
4.27428091859311
4.27428091859311
4.2865898629231
4.2865898629231
4.2865898629231
4.27428091859311
4.27428091859311
4.27428091859311
4.280435390758092
4.2865898629231
4.292744335088111
4.298898807253093
4.298898807253093
4.2865898629231
4.292744335088111
4.292744335088111
4.305053279418103
4.305053279418103
4.298898807253093
4.298898807253093
4.305053279418103
4.298898807253093
4.298898807253093
4.305053279418103
4.298898807253093
4.292744335088111
4.292744335088111
4.292744335088111
4.298898807253093
4.292744335088111
4.292744335088111
4.305053279418103
4.298898807253093
4.292744335088111
4.292744335088111
4.292744335088111
4.298898807253093
4.298898807253093
4.298898807253093
4.292744335088111
4.292744335088111
4.305053279418103
4.298898807253093
4.305053279418103
4.292744335088111
4.292744335088111
4.292744335088111
4.298898807253093
4.298898807253093
4.305053279418103
4.3173622237481215
4.3112077515831135
4.323516695913104
4.3173622237481215
4.3173622237481215
4.305053279418103
4.305053279418103
4.3112077515831135
4.3112077515831135
4.3112077515831135
4.298898807253093
4.305053279418103
4.305053279418103
4.3112077515831135
4.3112077515831135
4.3173622237481215
4.3173622237481215
4.305053279418103
4.280435390758092
4.2865898629231
4.298898807253093
4.298898807253093
4.2865898629231
4.305053279418103
4.3112077515831135
4.305053279418103
4.292744335088111
4.292744335088111
4.292744335088111
4.305053279418103
4.305053279418103
4.305053279418103
4.305053279418103
4.3112077515831135
4.298898807253093
4.3112077515831135
4.3112077515831135
4.3173622237481215
4.3112077515831135
4.292744335088111
4.3112077515831135
4.305053279418103
4.292744335088111
4.305053279418103
4.298898807253093
4.298898807253093
4.292744335088111
4.292744335088111
4.298898807253093
4.292744335088111
4.305053279418103
4.305053279418103
4.3112077515831135
4.305053279418103
4.305053279418103
4.3112077515831135
4.3173622237481215
4.323516695913104
4.3112077515831135
4.323516695913104
4.3173622237481215
4.329671168078114
4.329671168078114
4.3173622237481215
4.3173622237481215
4.3173622237481215
4.329671168078114
4.323516695913104
4.335825640243124
4.323516695913104
4.3173622237481215
4.3173622237481215
4.323516695913104
4.305053279418103
4.298898807253093
4.298898807253093
4.3112077515831135
4.3173622237481215
4.3173622237481215
4.305053279418103
4.298898807253093
4.298898807253093
4.305053279418103
4.298898807253093
4.305053279418103
4.298898807253093
4.305053279418103
4.292744335088111
4.305053279418103
4.305053279418103
4.2865898629231
4.2865898629231
4.2865898629231
4.292744335088111
4.292744335088111
4.305053279418103
4.305053279418103
4.298898807253093
4.292744335088111
4.298898807253093
4.305053279418103
4.305053279418103
4.298898807253093
4.298898807253093
4.305053279418103
4.298898807253093
4.3173622237481215
4.360443528903107
4.452760611378115
4.5327687495231315
4.5820045268431535
4.5820045268431535
4.501996388698137
4.40352483405812
4.3173622237481215
4.261971974263091
4.2681264464281
4.280435390758092
4.292744335088111
4.298898807253093
4.298898807253093
4.305053279418103
4.305053279418103
4.305053279418103
4.305053279418103
4.292744335088111
4.292744335088111
4.292744335088111
4.298898807253093
4.298898807253093
4.2865898629231
4.2865898629231
4.2865898629231
4.292744335088111
4.292744335088111
4.305053279418103
4.305053279418103
4.3173622237481215
4.323516695913104
4.3173622237481215
4.3112077515831135
4.3173622237481215
4.3173622237481215
4.3112077515831135
4.3173622237481215
4.305053279418103
4.3112077515831135
4.298898807253093
4.305053279418103
4.305053279418103
4.305053279418103
4.3112077515831135
4.3173622237481215
4.3173622237481215
4.3173622237481215
4.323516695913104
4.323516695913104
4.323516695913104
4.323516695913104
4.3173622237481215
4.3173622237481215
4.292744335088111
4.335825640243124
4.335825640243124
4.335825640243124
4.329671168078114
4.323516695913104
4.305053279418103
4.3112077515831135
4.3112077515831135
4.323516695913104
4.329671168078114
4.341980112408105
4.341980112408105
4.348134584573115
4.354289056738125
4.354289056738125
4.348134584573115
4.348134584573115
4.348134584573115
4.348134584573115
4.360443528903107
4.354289056738125
4.354289056738125
4.354289056738125
4.354289056738125
4.348134584573115
4.348134584573115
4.341980112408105
4.341980112408105
4.335825640243124
4.329671168078114
4.323516695913104
4.3112077515831135
4.305053279418103
4.298898807253093
4.292744335088111
4.280435390758092
4.280435390758092
4.2865898629231
4.292744335088111
4.292744335088111
4.298898807253093
4.298898807253093
4.298898807253093
4.292744335088111
4.280435390758092
4.280435390758092
4.280435390758092
4.27428091859311
4.280435390758092
4.27428091859311
4.27428091859311
4.27428091859311
4.2865898629231
4.280435390758092
4.280435390758092
4.280435390758092
4.27428091859311
4.280435390758092
4.27428091859311
4.27428091859311
4.2865898629231
4.2865898629231
4.280435390758092
4.292744335088111
4.2865898629231
4.27428091859311
4.280435390758092
4.280435390758092
4.27428091859311
4.2865898629231
4.280435390758092
4.280435390758092
4.280435390758092
4.280435390758092
4.27428091859311
4.2681264464281
4.2681264464281
4.27428091859311
4.2865898629231
4.292744335088111
4.298898807253093
4.292744335088111
4.298898807253093
4.292744335088111
4.292744335088111
4.292744335088111
4.298898807253093
4.292744335088111
4.292744335088111
4.292744335088111
4.2865898629231
4.280435390758092
4.2865898629231
4.280435390758092
4.2865898629231
4.292744335088111
4.2865898629231
4.2865898629231
4.2865898629231
4.298898807253093
4.298898807253093
4.298898807253093
4.298898807253093
4.298898807253093
4.2865898629231
4.2865898629231
4.2865898629231
4.2865898629231
4.2865898629231
4.2865898629231
4.2865898629231
4.2865898629231
4.2865898629231
4.280435390758092
4.2865898629231
4.280435390758092
4.2865898629231
4.292744335088111
4.292744335088111
4.2865898629231
4.27428091859311
4.249663029933098
4.243508557768089
4.27428091859311
4.280435390758092
4.280435390758092
4.280435390758092
4.2865898629231
4.305053279418103
4.292744335088111
4.280435390758092
4.292744335088111
4.2865898629231
4.292744335088111
4.2865898629231
4.2865898629231
4.292744335088111
4.280435390758092
4.292744335088111
4.280435390758092
4.280435390758092
4.280435390758092
4.280435390758092
4.280435390758092
4.280435390758092
4.280435390758092
4.280435390758092
4.280435390758092
4.27428091859311
4.2865898629231
4.292744335088111
4.2865898629231
4.280435390758092
4.2865898629231
4.2865898629231
4.2865898629231
4.2865898629231
4.280435390758092
4.2865898629231
4.2865898629231
4.27428091859311
4.280435390758092
4.280435390758092
4.27428091859311
4.27428091859311
4.27428091859311
4.2681264464281
4.2681264464281
4.27428091859311
4.2681264464281
4.27428091859311
4.2681264464281
4.2681264464281
4.27428091859311
4.298898807253093
4.3112077515831135
4.280435390758092
4.237354085603107
4.280435390758092
4.298898807253093
4.305053279418103
4.305053279418103
4.305053279418103
4.3112077515831135
4.298898807253093
4.2865898629231
4.298898807253093
4.3112077515831135
4.3112077515831135
4.305053279418103
4.298898807253093
4.298898807253093
4.298898807253093
4.2865898629231
4.2865898629231
4.280435390758092
4.292744335088111
4.280435390758092
4.280435390758092
4.2865898629231
4.27428091859311
4.27428091859311
4.27428091859311
4.2681264464281
4.261971974263091
4.261971974263091
4.2681264464281
4.2681264464281
4.27428091859311
4.27428091859311
4.2865898629231
4.280435390758092
4.27428091859311
4.280435390758092
4.280435390758092
4.280435390758092
4.280435390758092
4.280435390758092
4.27428091859311
4.280435390758092
4.27428091859311
4.2681264464281
4.27428091859311
4.2681264464281
4.261971974263091
4.261971974263091
4.261971974263091
4.292744335088111
4.354289056738125
4.452760611378115
4.551232166018132
4.5820045268431535
4.575850054678144
4.495841916533128
4.37890694539811
4.2865898629231
4.243508557768089
4.249663029933098
4.255817502098108
4.261971974263091
4.261971974263091
4.2681264464281
4.2681264464281
4.243508557768089
4.261971974263091
4.2681264464281
4.27428091859311
4.2681264464281
4.249663029933098
4.255817502098108
4.261971974263091
4.2681264464281
4.2681264464281
4.27428091859311
4.280435390758092
4.280435390758092
4.27428091859311
4.280435390758092
4.2865898629231
4.280435390758092
4.27428091859311
4.27428091859311
4.27428091859311
4.280435390758092
4.27428091859311
4.27428091859311
4.280435390758092
4.27428091859311
4.280435390758092
4.2865898629231
4.27428091859311
4.280435390758092
4.280435390758092
4.292744335088111
4.2865898629231
4.2865898629231
4.27428091859311
4.2681264464281
4.292744335088111
4.2865898629231
4.292744335088111
4.292744335088111
4.298898807253093
4.3112077515831135
4.305053279418103
4.3112077515831135
4.305053279418103
4.298898807253093
4.3112077515831135
4.3112077515831135
4.3112077515831135
4.3112077515831135
4.3173622237481215
4.3173622237481215
4.3173622237481215
4.323516695913104
4.335825640243124
4.335825640243124
4.335825640243124
4.335825640243124
4.329671168078114
4.329671168078114
4.323516695913104
4.341980112408105
4.335825640243124
4.335825640243124
4.329671168078114
4.335825640243124
4.341980112408105
4.335825640243124
4.329671168078114
4.329671168078114
4.329671168078114
4.323516695913104
4.323516695913104
4.3112077515831135
4.3112077515831135
4.305053279418103
4.298898807253093
4.298898807253093
4.298898807253093
4.292744335088111
4.292744335088111
4.2865898629231
4.298898807253093
4.292744335088111
4.292744335088111
4.292744335088111
4.2865898629231
4.2865898629231
4.2865898629231
4.2865898629231
4.2865898629231
4.292744335088111
4.292744335088111
4.292744335088111
4.298898807253093
4.298898807253093
4.305053279418103
4.3112077515831135
4.298898807253093
4.305053279418103
4.305053279418103
4.298898807253093
4.305053279418103
4.3112077515831135
4.298898807253093
4.298898807253093
4.3112077515831135
4.305053279418103
4.305053279418103
4.305053279418103
4.305053279418103
4.305053279418103
4.3112077515831135
4.3112077515831135
4.305053279418103
4.305053279418103
4.3112077515831135
4.3112077515831135
4.3112077515831135
4.3173622237481215
4.3112077515831135
4.305053279418103
4.298898807253093
4.27428091859311
4.323516695913104
4.3173622237481215
4.323516695913104
4.323516695913104
4.3173622237481215
4.3173622237481215
4.305053279418103
4.292744335088111
4.298898807253093
4.305053279418103
4.305053279418103
4.3112077515831135
4.305053279418103
4.305053279418103
4.3173622237481215
4.3112077515831135
4.323516695913104
4.3173622237481215
4.3173622237481215
4.3173622237481215
4.3112077515831135
4.3173622237481215
4.3173622237481215
4.3173622237481215
4.3112077515831135
4.3173622237481215
4.323516695913104
4.323516695913104
4.329671168078114
4.329671168078114
4.323516695913104
4.3112077515831135
4.3173622237481215
4.3173622237481215
4.323516695913104
4.3173622237481215
4.3173622237481215
4.323516695913104
4.3173622237481215
4.323516695913104
4.323516695913104
4.3112077515831135
4.3173622237481215
4.3112077515831135
4.3173622237481215
4.3173622237481215
4.323516695913104
4.323516695913104
4.323516695913104
4.323516695913104
4.323516695913104
4.3173622237481215
4.323516695913104
4.323516695913104
4.3173622237481215
4.3112077515831135
4.3173622237481215
4.3173622237481215
4.3112077515831135
4.3112077515831135
4.323516695913104
4.3173622237481215
4.3173622237481215
4.329671168078114
4.329671168078114
4.335825640243124
4.329671168078114
4.323516695913104
4.329671168078114
4.329671168078114
4.329671168078114
4.3173622237481215
4.3173622237481215
4.323516695913104
4.329671168078114
4.323516695913104
4.323516695913104
4.3173622237481215
4.3173622237481215
4.329671168078114
4.329671168078114
4.329671168078114
4.329671168078114
4.329671168078114
4.341980112408105
4.335825640243124
4.348134584573115
4.341980112408105
4.341980112408105
4.341980112408105
4.341980112408105
4.341980112408105
4.335825640243124
4.323516695913104
4.329671168078114
4.329671168078114
4.348134584573115
4.341980112408105
4.348134584573115
4.354289056738125
4.354289056738125
4.354289056738125
4.366598001068117
4.360443528903107
4.366598001068117
4.360443528903107
4.366598001068117
4.366598001068117
4.3727524732331275
4.366598001068117
4.366598001068117
4.3727524732331275
4.37890694539811
4.37890694539811
4.3727524732331275
4.360443528903107
4.335825640243124
4.341980112408105
4.360443528903107
4.354289056738125
4.341980112408105
4.305053279418103
4.329671168078114
4.335825640243124
4.329671168078114
4.3173622237481215
4.3173622237481215
4.323516695913104
4.329671168078114
4.329671168078114
4.323516695913104
4.3173622237481215
4.3173622237481215
4.3173622237481215
4.323516695913104
4.329671168078114
4.329671168078114
4.341980112408105
4.335825640243124
4.335825640243124
4.335825640243124
4.335825640243124
4.329671168078114
4.329671168078114
4.335825640243124
4.329671168078114
4.323516695913104
4.323516695913104
4.3173622237481215
4.329671168078114
4.348134584573115
4.415833778388112
4.520459805193139
4.6004679433381535
4.637394776328158
4.625085831998166
4.520459805193139
4.40967930622313
4.329671168078114
4.2865898629231
4.305053279418103
4.3173622237481215
4.323516695913104
4.323516695913104
4.329671168078114
4.329671168078114
4.329671168078114
4.329671168078114
4.329671168078114
4.335825640243124
4.323516695913104
4.323516695913104
4.329671168078114
4.335825640243124
4.323516695913104
4.329671168078114
4.335825640243124
4.335825640243124
4.329671168078114
4.335825640243124
4.329671168078114
4.329671168078114
4.335825640243124
4.323516695913104
4.3112077515831135
4.329671168078114
4.329671168078114
4.329671168078114
4.341980112408105
4.348134584573115
4.348134584573115
4.354289056738125
4.348134584573115
4.348134584573115
4.348134584573115
4.348134584573115
4.354289056738125
4.348134584573115
4.354289056738125
4.348134584573115
4.354289056738125
4.348134584573115
4.341980112408105
4.341980112408105
4.348134584573115
4.348134584573115
4.354289056738125
4.348134584573115
4.348134584573115
4.354289056738125
4.354289056738125
4.348134584573115
4.360443528903107
4.366598001068117
4.366598001068117
4.366598001068117
4.366598001068117
4.3727524732331275
4.366598001068117
4.3727524732331275
4.37890694539811
4.37890694539811
4.3727524732331275
4.3727524732331275
4.366598001068117
4.3727524732331275
4.385061417563119
4.391215889728128
4.397370361893111
4.397370361893111
4.391215889728128
4.385061417563119
4.3727524732331275
4.3727524732331275
4.366598001068117
4.366598001068117
4.354289056738125
4.354289056738125
4.348134584573115
4.341980112408105
4.341980112408105
4.341980112408105
4.335825640243124
4.3112077515831135
4.335825640243124
4.341980112408105
4.335825640243124
4.335825640243124
4.335825640243124
4.3173622237481215
4.3112077515831135
4.3173622237481215
4.3173622237481215
4.323516695913104
4.323516695913104
4.329671168078114
4.323516695913104
4.3173622237481215
4.3112077515831135
4.3112077515831135
4.323516695913104
4.329671168078114
4.329671168078114
4.3173622237481215
4.329671168078114
4.329671168078114
4.329671168078114
4.329671168078114
4.323516695913104
4.329671168078114
4.329671168078114
4.3173622237481215
4.323516695913104
4.3173622237481215
4.323516695913104
4.329671168078114
4.3173622237481215
4.3173622237481215
4.3173622237481215
4.3173622237481215
4.3173622237481215
4.3112077515831135
4.305053279418103
4.3173622237481215
4.3173622237481215
4.323516695913104
4.3173622237481215
4.329671168078114
4.335825640243124
4.329671168078114
4.335825640243124
4.323516695913104
4.3173622237481215
4.323516695913104
4.329671168078114
4.323516695913104
4.323516695913104
4.3173622237481215
4.3173622237481215
4.323516695913104
4.323516695913104
4.3173622237481215
4.3112077515831135
4.305053279418103
4.305053279418103
4.305053279418103
4.305053279418103
4.3173622237481215
4.3173622237481215
4.323516695913104
4.323516695913104
4.323516695913104
4.3173622237481215
4.323516695913104
4.3173622237481215
4.3173622237481215
4.3112077515831135
4.3173622237481215
4.323516695913104
4.323516695913104
4.323516695913104
4.3173622237481215
4.329671168078114
4.323516695913104
4.3112077515831135
4.3112077515831135
4.3173622237481215
4.3112077515831135
4.323516695913104
4.323516695913104
4.329671168078114
4.323516695913104
4.323516695913104
4.3173622237481215
4.323516695913104
4.323516695913104
4.329671168078114
4.323516695913104
4.323516695913104
4.323516695913104
4.3173622237481215
4.323516695913104
4.3173622237481215
4.305053279418103
4.3112077515831135
4.3173622237481215
4.3173622237481215
4.3173622237481215
4.3173622237481215
4.3173622237481215
4.305053279418103
4.305053279418103
4.298898807253093
4.298898807253093
4.298898807253093
4.3112077515831135
4.3112077515831135
4.3173622237481215
4.323516695913104
4.323516695913104
4.323516695913104
4.3173622237481215
4.3173622237481215
4.3112077515831135
4.305053279418103
4.280435390758092
4.3112077515831135
4.305053279418103
4.298898807253093
4.298898807253093
4.305053279418103
4.305053279418103
4.305053279418103
4.305053279418103
4.298898807253093
4.298898807253093
4.305053279418103
4.305053279418103
4.305053279418103
4.298898807253093
4.298898807253093
4.298898807253093
4.298898807253093
4.292744335088111
4.305053279418103
4.305053279418103
4.298898807253093
4.292744335088111
4.298898807253093
4.305053279418103
4.305053279418103
4.305053279418103
4.323516695913104
4.3173622237481215
4.3173622237481215
4.3173622237481215
4.323516695913104
4.3173622237481215
4.3173622237481215
4.323516695913104
4.3112077515831135
4.305053279418103
4.305053279418103
4.292744335088111
4.298898807253093
4.2865898629231
4.2865898629231
4.2865898629231
4.2865898629231
4.2865898629231
4.280435390758092
4.280435390758092
4.2865898629231
4.2865898629231
4.280435390758092
4.2865898629231
4.280435390758092
4.27428091859311
4.27428091859311
4.27428091859311
4.27428091859311
4.2865898629231
4.280435390758092
4.280435390758092
4.2681264464281
4.261971974263091
4.27428091859311
4.261971974263091
4.261971974263091
4.261971974263091
4.243508557768089
4.27428091859311
4.280435390758092
4.2681264464281
4.261971974263091
4.255817502098108
4.255817502098108
4.2681264464281
4.3173622237481215
4.415833778388112
4.520459805193139
4.575850054678144
4.588158999008135
4.514305333028129
4.391215889728128
4.298898807253093
4.237354085603107
4.237354085603107
4.243508557768089
4.249663029933098
4.249663029933098
4.261971974263091
4.255817502098108
4.261971974263091
4.261971974263091
4.255817502098108
4.255817502098108
4.243508557768089
4.243508557768089
4.255817502098108
4.249663029933098
4.255817502098108
4.249663029933098
4.255817502098108
4.249663029933098
4.249663029933098
4.255817502098108
4.249663029933098
4.243508557768089
4.243508557768089
4.249663029933098
4.237354085603107
4.243508557768089
4.249663029933098
4.243508557768089
4.243508557768089
4.243508557768089
4.249663029933098
4.243508557768089
4.255817502098108
4.261971974263091
4.261971974263091
4.255817502098108
4.261971974263091
4.255817502098108
4.255817502098108
4.255817502098108
4.243508557768089
4.2681264464281
4.261971974263091
4.2681264464281
4.261971974263091
4.243508557768089
4.249663029933098
4.249663029933098
4.261971974263091
4.255817502098108
4.261971974263091
4.261971974263091
4.2681264464281
4.2681264464281
4.2681264464281
4.280435390758092
4.27428091859311
4.27428091859311
4.280435390758092
4.280435390758092
4.2865898629231
4.2865898629231
4.280435390758092
4.292744335088111
4.292744335088111
4.2865898629231
4.280435390758092
4.2865898629231
4.292744335088111
4.2865898629231
4.2865898629231
4.2865898629231
4.280435390758092
4.27428091859311
4.27428091859311
4.2681264464281
4.261971974263091
4.261971974263091
4.2681264464281
4.255817502098108
4.255817502098108
4.243508557768089
4.237354085603107
4.243508557768089
4.243508557768089
4.237354085603107
4.237354085603107
4.231199613438097
4.225045141273086
4.231199613438097
4.237354085603107
4.231199613438097
4.237354085603107
4.231199613438097
4.231199613438097
4.237354085603107
4.231199613438097
4.231199613438097
4.237354085603107
4.237354085603107
4.237354085603107
4.237354085603107
4.231199613438097
4.225045141273086
4.231199613438097
4.225045141273086
4.231199613438097
4.231199613438097
4.231199613438097
4.237354085603107
4.237354085603107
4.231199613438097
4.237354085603107
4.231199613438097
4.225045141273086
4.225045141273086
4.237354085603107
4.231199613438097
4.225045141273086
4.231199613438097
4.237354085603107
4.231199613438097
4.237354085603107
4.249663029933098
4.243508557768089
4.237354085603107
4.237354085603107
4.237354085603107
4.237354085603107
4.243508557768089
4.243508557768089
4.237354085603107
4.237354085603107
4.237354085603107
4.249663029933098
4.249663029933098
4.243508557768089
4.237354085603107
4.237354085603107
4.237354085603107
4.231199613438097
4.237354085603107
4.249663029933098
4.249663029933098
4.243508557768089
4.249663029933098
4.243508557768089
4.243508557768089
4.237354085603107
4.237354085603107
4.243508557768089
4.243508557768089
4.231199613438097
4.243508557768089
4.243508557768089
4.243508557768089
4.243508557768089
4.249663029933098
4.243508557768089
4.249663029933098
4.249663029933098
4.237354085603107
4.218890669108104
4.225045141273086
4.243508557768089
4.237354085603107
4.243508557768089
4.243508557768089
4.255817502098108
4.249663029933098
4.255817502098108
4.255817502098108
4.249663029933098
4.255817502098108
4.255817502098108
4.249663029933098
4.243508557768089
4.249663029933098
4.249663029933098
4.243508557768089
4.249663029933098
4.255817502098108
4.255817502098108
4.261971974263091
4.255817502098108
4.255817502098108
4.261971974263091
4.255817502098108
4.249663029933098
4.249663029933098
4.249663029933098
4.255817502098108
4.255817502098108
4.249663029933098
4.249663029933098
4.255817502098108
4.249663029933098
4.243508557768089
4.255817502098108
4.255817502098108
4.255817502098108
4.27428091859311
4.255817502098108
4.231199613438097
4.237354085603107
4.243508557768089
4.249663029933098
4.249663029933098
4.255817502098108
4.261971974263091
4.255817502098108
4.261971974263091
4.255817502098108
4.255817502098108
4.249663029933098
4.255817502098108
4.255817502098108
4.243508557768089
4.249663029933098
4.243508557768089
4.249663029933098
4.249663029933098
4.243508557768089
4.249663029933098
4.249663029933098
4.243508557768089
4.255817502098108
4.261971974263091
4.261971974263091
4.255817502098108
4.255817502098108
4.261971974263091
4.261971974263091
4.255817502098108
4.261971974263091
4.255817502098108
4.261971974263091
4.261971974263091
4.255817502098108
4.2681264464281
4.261971974263091
4.27428091859311
4.280435390758092
4.280435390758092
4.27428091859311
4.2681264464281
4.2681264464281
4.27428091859311
4.280435390758092
4.2865898629231
4.2865898629231
4.298898807253093
4.292744335088111
4.280435390758092
4.280435390758092
4.27428091859311
4.27428091859311
4.27428091859311
4.2681264464281
4.2681264464281
4.255817502098108
4.255817502098108
4.249663029933098
4.255817502098108
4.243508557768089
4.243508557768089
4.249663029933098
4.255817502098108
4.249663029933098
4.255817502098108
4.249663029933098
4.249663029933098
4.243508557768089
4.243508557768089
4.243508557768089
4.249663029933098
4.249663029933098
4.255817502098108
4.261971974263091
4.255817502098108
4.261971974263091
4.261971974263091
4.261971974263091
4.243508557768089
4.225045141273086
4.243508557768089
4.243508557768089
4.249663029933098
4.237354085603107
4.27428091859311
4.366598001068117
4.471224027873144
4.54507769385315
4.5820045268431535
4.54507769385315
4.421988250553122
4.298898807253093
4.249663029933098
4.231199613438097
4.231199613438097
4.243508557768089
4.243508557768089
4.249663029933098
4.237354085603107
4.231199613438097
4.243508557768089
4.243508557768089
4.243508557768089
4.249663029933098
4.237354085603107
4.237354085603107
4.243508557768089
4.237354085603107
4.243508557768089
4.243508557768089
4.249663029933098
4.249663029933098
4.249663029933098
4.243508557768089
4.243508557768089
4.243508557768089
4.243508557768089
4.249663029933098
4.249663029933098
4.249663029933098
4.249663029933098
4.255817502098108
4.255817502098108
4.249663029933098
4.261971974263091
4.255817502098108
4.255817502098108
4.255817502098108
4.261971974263091
4.255817502098108
4.255817502098108
4.255817502098108
4.255817502098108
4.2681264464281
4.261971974263091
4.261971974263091
4.261971974263091
4.261971974263091
4.261971974263091
4.2681264464281
4.2681264464281
4.2681264464281
4.27428091859311
4.2681264464281
4.280435390758092
4.280435390758092
4.280435390758092
4.2865898629231
4.292744335088111
4.292744335088111
4.2865898629231
4.298898807253093
4.292744335088111
4.292744335088111
4.2865898629231
4.3112077515831135
4.3112077515831135
4.3112077515831135
4.305053279418103
4.305053279418103
4.305053279418103
4.298898807253093
4.298898807253093
4.305053279418103
4.3112077515831135
4.305053279418103
4.305053279418103
4.298898807253093
4.292744335088111
4.2865898629231
4.27428091859311
4.2681264464281
4.2681264464281
4.27428091859311
4.2681264464281
4.261971974263091
4.255817502098108
4.255817502098108
4.249663029933098
4.249663029933098
4.249663029933098
4.255817502098108
4.249663029933098
4.255817502098108
4.243508557768089
4.249663029933098
4.255817502098108
4.261971974263091
4.261971974263091
4.255817502098108
4.261971974263091
4.261971974263091
4.261971974263091
4.255817502098108
4.2681264464281
4.261971974263091
4.255817502098108
4.2681264464281
4.2681264464281
4.261971974263091
4.261971974263091
4.243508557768089
4.261971974263091
4.261971974263091
4.255817502098108
4.255817502098108
4.27428091859311
4.27428091859311
4.261971974263091
4.249663029933098
4.2681264464281
4.27428091859311
4.27428091859311
4.261971974263091
4.261971974263091
4.2681264464281
4.2681264464281
4.2681264464281
4.27428091859311
4.27428091859311
4.27428091859311
4.27428091859311
4.27428091859311
4.2681264464281
4.261971974263091
4.255817502098108
4.255817502098108
4.2681264464281
4.27428091859311
4.280435390758092
4.27428091859311
4.27428091859311
4.280435390758092
4.27428091859311
4.27428091859311
4.27428091859311
4.27428091859311
4.2865898629231
4.280435390758092
4.280435390758092
4.27428091859311
4.2865898629231
4.280435390758092
4.27428091859311
4.280435390758092
4.27428091859311
4.280435390758092
4.280435390758092
4.2865898629231
4.280435390758092
4.27428091859311
4.2865898629231
4.280435390758092
4.292744335088111
4.292744335088111
4.2865898629231
4.2865898629231
4.292744335088111
4.298898807253093
4.2865898629231
4.2865898629231
4.2865898629231
4.292744335088111
4.280435390758092
4.280435390758092
4.305053279418103
4.2865898629231
4.292744335088111
4.2865898629231
4.280435390758092
4.2865898629231
4.2865898629231
4.280435390758092
4.292744335088111
4.2865898629231
4.292744335088111
4.2865898629231
4.292744335088111
4.2865898629231
4.27428091859311
4.2865898629231
4.280435390758092
4.292744335088111
4.292744335088111
4.292744335088111
4.2865898629231
4.292744335088111
4.292744335088111
4.280435390758092
4.280435390758092
4.2865898629231
4.2865898629231
4.292744335088111
4.292744335088111
4.292744335088111
4.292744335088111
4.2865898629231
4.2865898629231
4.2865898629231
4.298898807253093
4.298898807253093
4.2865898629231
4.298898807253093
4.2865898629231
4.2865898629231
4.292744335088111
4.280435390758092
4.2865898629231
4.2865898629231
4.2865898629231
4.292744335088111
4.292744335088111
4.2865898629231
4.280435390758092
4.292744335088111
4.292744335088111
4.292744335088111
4.292744335088111
4.2865898629231
4.298898807253093
4.298898807253093
4.292744335088111
4.292744335088111
4.280435390758092
4.3173622237481215
4.305053279418103
4.298898807253093
4.298898807253093
4.305053279418103
4.298898807253093
4.305053279418103
4.3112077515831135
4.3173622237481215
4.3112077515831135
4.3112077515831135
4.298898807253093
4.305053279418103
4.298898807253093
4.305053279418103
4.298898807253093
4.305053279418103
4.298898807253093
4.298898807253093
4.292744335088111
4.298898807253093
4.292744335088111
4.292744335088111
4.2865898629231
4.2865898629231
4.292744335088111
4.2865898629231
4.292744335088111
4.2865898629231
4.2865898629231
4.298898807253093
4.292744335088111
4.298898807253093
4.2865898629231
4.292744335088111
4.292744335088111
4.298898807253093
4.298898807253093
4.305053279418103
4.305053279418103
4.298898807253093
4.305053279418103
4.3112077515831135
4.292744335088111
4.2865898629231
4.280435390758092
4.2865898629231
4.305053279418103
4.3727524732331275
4.471224027873144
4.557386638183142
4.6004679433381535
4.6004679433381535
4.508150860863147
4.391215889728128
4.3112077515831135
4.255817502098108
4.261971974263091
4.27428091859311
4.280435390758092
4.292744335088111
4.298898807253093
4.292744335088111
4.3112077515831135
4.305053279418103
4.298898807253093
4.305053279418103
4.305053279418103
4.298898807253093
4.292744335088111
4.305053279418103
4.298898807253093
4.292744335088111
4.305053279418103
4.298898807253093
4.298898807253093
4.298898807253093
4.292744335088111
4.305053279418103
4.298898807253093
4.2681264464281
4.298898807253093
4.305053279418103
4.3112077515831135
4.3173622237481215
4.3112077515831135
4.3173622237481215
4.3112077515831135
4.292744335088111
4.2865898629231
4.298898807253093
4.305053279418103
4.3173622237481215
4.3112077515831135
4.3173622237481215
4.3112077515831135
4.3112077515831135
4.3112077515831135
4.3112077515831135
4.323516695913104
4.3173622237481215
4.3173622237481215
4.3173622237481215
4.3173622237481215
4.323516695913104
4.3112077515831135
4.329671168078114
4.335825640243124
4.335825640243124
4.329671168078114
4.341980112408105
4.329671168078114
4.341980112408105
4.348134584573115
4.348134584573115
4.341980112408105
4.341980112408105
4.341980112408105
4.341980112408105
4.354289056738125
4.354289056738125
4.329671168078114
4.366598001068117
4.366598001068117
4.360443528903107
4.360443528903107
4.348134584573115
4.329671168078114
4.335825640243124
4.341980112408105
4.348134584573115
4.341980112408105
4.335825640243124
4.335825640243124
4.335825640243124
4.323516695913104
4.3112077515831135
4.305053279418103
4.305053279418103
4.298898807253093
4.298898807253093
4.298898807253093
4.292744335088111
4.298898807253093
4.305053279418103
4.298898807253093
4.2865898629231
4.2865898629231
4.292744335088111
4.2865898629231
4.292744335088111
4.292744335088111
4.292744335088111
4.298898807253093
4.292744335088111
4.292744335088111
4.2865898629231
4.292744335088111
4.292744335088111
4.298898807253093
4.298898807253093
4.292744335088111
4.292744335088111
4.292744335088111
4.292744335088111
4.292744335088111
4.298898807253093
4.305053279418103
4.305053279418103
4.305053279418103
4.298898807253093
4.298898807253093
4.298898807253093
4.3173622237481215
4.3112077515831135
4.305053279418103
4.298898807253093
4.298898807253093
4.298898807253093
4.305053279418103
4.305053279418103
4.305053279418103
4.3112077515831135
4.3112077515831135
4.298898807253093
4.305053279418103
4.305053279418103
4.298898807253093
4.298898807253093
4.305053279418103
4.2865898629231
4.2865898629231
4.305053279418103
4.305053279418103
4.3112077515831135
4.3112077515831135
4.3112077515831135
4.3112077515831135
4.305053279418103
4.3173622237481215
4.3112077515831135
4.3173622237481215
4.3112077515831135
4.3112077515831135
4.3112077515831135
4.305053279418103
4.298898807253093
4.305053279418103
4.298898807253093
4.305053279418103
4.298898807253093
4.298898807253093
4.298898807253093
4.305053279418103
4.3112077515831135
4.3112077515831135
4.3112077515831135
4.298898807253093
4.305053279418103
4.3112077515831135
4.305053279418103
4.3173622237481215
4.3112077515831135
4.3112077515831135
4.3112077515831135
4.3173622237481215
4.305053279418103
4.3112077515831135
4.305053279418103
4.3112077515831135
4.3112077515831135
4.3112077515831135
4.323516695913104
4.323516695913104
4.3112077515831135
4.3112077515831135
4.3112077515831135
4.3173622237481215
4.3173622237481215
4.3112077515831135
4.3173622237481215
4.323516695913104
4.3112077515831135
4.280435390758092
4.3112077515831135
4.305053279418103
4.3112077515831135
4.3112077515831135
4.305053279418103
4.3112077515831135
4.3112077515831135
4.3173622237481215
4.3173622237481215
4.323516695913104
4.329671168078114
4.329671168078114
4.329671168078114
4.329671168078114
4.323516695913104
4.323516695913104
4.329671168078114
4.323516695913104
4.329671168078114
4.335825640243124
4.329671168078114
4.335825640243124
4.329671168078114
4.329671168078114
4.323516695913104
4.323516695913104
4.335825640243124
4.341980112408105
4.335825640243124
4.341980112408105
4.335825640243124
4.335825640243124
4.341980112408105
4.341980112408105
4.335825640243124
4.335825640243124
4.335825640243124
4.335825640243124
4.335825640243124
4.335825640243124
4.341980112408105
4.335825640243124
4.335825640243124
4.329671168078114
4.341980112408105
4.341980112408105
4.335825640243124
4.335825640243124
4.348134584573115
4.360443528903107
4.360443528903107
4.360443528903107
4.348134584573115
4.354289056738125
4.360443528903107
4.366598001068117
4.3727524732331275
4.3727524732331275
4.3727524732331275
4.366598001068117
4.354289056738125
4.354289056738125
4.341980112408105
4.360443528903107
4.360443528903107
4.360443528903107
4.354289056738125
4.348134584573115
4.348134584573115
4.335825640243124
4.335825640243124
4.329671168078114
4.335825640243124
4.335825640243124
4.335825640243124
4.341980112408105
4.335825640243124
4.341980112408105
4.341980112408105
4.329671168078114
4.335825640243124
4.329671168078114
4.335825640243124
4.348134584573115
4.335825640243124
4.341980112408105
4.341980112408105
4.329671168078114
4.335825640243124
4.329671168078114
4.329671168078114
4.335825640243124
4.323516695913104
4.3173622237481215
4.323516695913104
4.341980112408105
4.391215889728128
4.495841916533128
4.588158999008135
4.649703720658149
4.655858192823159
4.6004679433381535
4.477378500038126
4.37890694539811
4.3173622237481215
4.3173622237481215
4.335825640243124
4.335825640243124
4.341980112408105
4.348134584573115
4.341980112408105
4.341980112408105
4.341980112408105
4.341980112408105
4.335825640243124
4.329671168078114
4.335825640243124
4.348134584573115
4.341980112408105
4.348134584573115
4.335825640243124
4.3173622237481215
4.348134584573115
4.348134584573115
4.354289056738125
4.348134584573115
4.335825640243124
4.341980112408105
4.348134584573115
4.348134584573115
4.341980112408105
4.341980112408105
4.348134584573115
4.348134584573115
4.341980112408105
4.348134584573115
4.341980112408105
4.348134584573115
4.341980112408105
4.348134584573115
4.348134584573115
4.354289056738125
4.354289056738125
4.348134584573115
4.348134584573115
4.341980112408105
4.341980112408105
4.354289056738125
4.348134584573115
4.323516695913104
4.341980112408105
4.37890694539811
4.37890694539811
4.3727524732331275
4.360443528903107
4.341980112408105
4.348134584573115
4.341980112408105
4.348134584573115
4.366598001068117
4.37890694539811
4.385061417563119
4.37890694539811
4.3727524732331275
4.37890694539811
4.385061417563119
4.385061417563119
4.391215889728128
4.391215889728128
4.391215889728128
4.385061417563119
4.391215889728128
4.37890694539811
4.385061417563119
4.391215889728128
4.391215889728128
4.385061417563119
4.385061417563119
4.3727524732331275
4.3727524732331275
4.360443528903107
4.360443528903107
4.360443528903107
4.354289056738125
4.354289056738125
4.341980112408105
4.341980112408105
4.335825640243124
4.329671168078114
4.329671168078114
4.329671168078114
4.3173622237481215
4.329671168078114
4.323516695913104
4.3173622237481215
4.323516695913104
4.323516695913104
4.323516695913104
4.3173622237481215
4.3173622237481215
4.3173622237481215
4.3112077515831135
4.3112077515831135
4.3173622237481215
4.323516695913104
4.3173622237481215
4.323516695913104
4.3173622237481215
4.323516695913104
4.323516695913104
4.3173622237481215
4.329671168078114
4.305053279418103
4.3173622237481215
4.329671168078114
4.3173622237481215
4.323516695913104
4.323516695913104
4.323516695913104
4.323516695913104
4.323516695913104
4.3173622237481215
4.323516695913104
4.323516695913104
4.323516695913104
4.3173622237481215
4.3173622237481215
4.323516695913104
4.329671168078114
4.323516695913104
4.329671168078114
4.323516695913104
4.329671168078114
4.329671168078114
4.323516695913104
4.3112077515831135
4.3112077515831135
4.3173622237481215
4.323516695913104
4.335825640243124
4.335825640243124
4.335825640243124
4.335825640243124
4.298898807253093
4.335825640243124
4.341980112408105
4.335825640243124
4.341980112408105
4.341980112408105
4.335825640243124
4.329671168078114
4.3173622237481215
4.329671168078114
4.335825640243124
4.329671168078114
4.335825640243124
4.329671168078114
4.335825640243124
4.335825640243124
4.329671168078114
4.335825640243124
4.329671168078114
4.341980112408105
4.341980112408105
4.341980112408105
4.335825640243124
4.341980112408105
4.335825640243124
4.341980112408105
4.335825640243124
4.329671168078114
4.329671168078114
4.335825640243124
4.329671168078114
4.329671168078114
4.335825640243124
4.323516695913104
4.329671168078114
4.329671168078114
4.335825640243124
4.335825640243124
4.329671168078114
4.329671168078114
4.323516695913104
4.335825640243124
4.329671168078114
4.329671168078114
4.323516695913104
4.329671168078114
4.335825640243124
4.329671168078114
4.341980112408105
4.341980112408105
4.335825640243124
4.335825640243124
4.329671168078114
4.335825640243124
4.335825640243124
4.329671168078114
4.335825640243124
4.335825640243124
4.335825640243124
4.341980112408105
4.335825640243124
4.335825640243124
4.329671168078114
4.3173622237481215
4.329671168078114
4.335825640243124
4.329671168078114
4.335825640243124
4.329671168078114
4.341980112408105
4.335825640243124
4.329671168078114
4.335825640243124
4.335825640243124
4.335825640243124
4.335825640243124
4.335825640243124
4.335825640243124
4.323516695913104
4.335825640243124
4.329671168078114
4.335825640243124
4.335825640243124
4.329671168078114
4.329671168078114
4.329671168078114
4.329671168078114
4.329671168078114
4.329671168078114
4.323516695913104
4.329671168078114
4.329671168078114
4.323516695913104
4.3173622237481215
4.3173622237481215
4.323516695913104
4.335825640243124
4.335825640243124
4.329671168078114
4.329671168078114
4.335825640243124
4.323516695913104
4.335825640243124
4.335825640243124
4.335825640243124
4.341980112408105
4.341980112408105
4.341980112408105
4.329671168078114
4.323516695913104
4.243508557768089
4.145037003128072
4.065028864983084
3.9973296711680604
3.9665573103430654
3.9357849495180455
3.9173215330230438
3.8988581165280416
3.886549172198051
3.886549172198051
3.874240227868059
3.8619312835380395
3.8496223392080475
3.874240227868059
3.874240227868059
3.8619312835380395
3.855776811373057
3.8619312835380395
3.8680857557030492
3.8619312835380395
3.8680857557030492
3.874240227868059
3.8680857557030492
3.874240227868059
3.874240227868059
3.8680857557030492
3.874240227868059
3.8803947000330408
3.8988581165280416
3.8988581165280416
3.8988581165280416
3.8988581165280416
3.8988581165280416
3.9050125886930522
3.9296304773530633
3.9911751990030497
4.095801225808078
4.1942727804480935
4.237354085603107
4.231199613438097
4.138882530963089
4.028102031993082
3.9357849495180455
3.8988581165280416
3.9111670608580615
3.9234760051880535
3.9419394216830552
3.948093893848065
3.9542483660130467
3.9542483660130467
3.9604028381780574
3.9727117825080476
3.9665573103430654
3.9788662546730578
3.9850207268380675
3.9911751990030497
3.9911751990030497
3.9911751990030497
3.9850207268380675
3.9850207268380675
3.9973296711680604
3.9911751990030497
4.003484143333068
4.009638615498079
4.009638615498079
4.015793087663061
4.015793087663061
4.028102031993082
4.034256504158063
4.028102031993082
4.040410976323072
4.034256504158063
4.040410976323072
4.0465654484880815
4.040410976323072
4.0465654484880815
4.065028864983084
4.065028864983084
4.058874392818074
4.077337809313075
4.0711833371480655
4.077337809313075
4.077337809313075
4.083492281478085
4.077337809313075
4.083492281478085
4.095801225808078
4.089646753643067
4.095801225808078
4.095801225808078
4.095801225808078
4.108110170138069
4.108110170138069
4.108110170138069
4.114264642303079
4.12657358663307
4.138882530963089
4.1327280587980795
4.1327280587980795
4.1327280587980795
4.138882530963089
4.145037003128072
4.145037003128072
4.145037003128072
4.157345947458091
4.157345947458091
4.163500419623101
4.1758093639530935
4.163500419623101
4.151191475293081
4.151191475293081
4.1758093639530935
4.181963836118102
4.181963836118102
4.1758093639530935
4.169654891788083
4.169654891788083
4.163500419623101
4.157345947458091
4.163500419623101
4.151191475293081
4.157345947458091
4.163500419623101
4.163500419623101
4.151191475293081
4.151191475293081
4.151191475293081
4.145037003128072
4.151191475293081
4.151191475293081
4.151191475293081
4.157345947458091
4.145037003128072
4.145037003128072
4.12657358663307
4.151191475293081
4.151191475293081
4.163500419623101
4.163500419623101
4.163500419623101
4.163500419623101
4.145037003128072
4.151191475293081
4.145037003128072
4.151191475293081
4.163500419623101
4.163500419623101
4.163500419623101
4.169654891788083
4.169654891788083
4.169654891788083
4.163500419623101
4.169654891788083
4.169654891788083
4.1758093639530935
4.181963836118102
4.181963836118102
4.188118308283084
4.181963836118102
4.188118308283084
4.1942727804480935
4.188118308283084
4.188118308283084
4.1942727804480935
4.188118308283084
4.1942727804480935
4.188118308283084
4.1942727804480935
4.200427252613103
4.2065817247780855
4.2065817247780855
4.2065817247780855
4.212736196943095
4.212736196943095
4.200427252613103
4.212736196943095
4.212736196943095
4.212736196943095
4.225045141273086
4.225045141273086
4.225045141273086
4.231199613438097
4.225045141273086
4.231199613438097
4.237354085603107
4.231199613438097
4.231199613438097
4.231199613438097
4.231199613438097
4.231199613438097
4.231199613438097
4.237354085603107
4.237354085603107
4.225045141273086
4.237354085603107
4.237354085603107
4.225045141273086
4.218890669108104
4.231199613438097
4.237354085603107
4.231199613438097
4.237354085603107
4.237354085603107
4.237354085603107
4.237354085603107
4.231199613438097
4.237354085603107
4.237354085603107
4.231199613438097
4.231199613438097
4.237354085603107
4.249663029933098
4.243508557768089
4.249663029933098
4.237354085603107
4.237354085603107
4.237354085603107
4.237354085603107
4.249663029933098
4.231199613438097
4.243508557768089
4.243508557768089
4.243508557768089
4.243508557768089
4.249663029933098
4.249663029933098
4.255817502098108
4.243508557768089
4.249663029933098
4.261971974263091
4.261971974263091
4.255817502098108
4.255817502098108
4.249663029933098
4.249663029933098
4.249663029933098
4.255817502098108
4.255817502098108
4.255817502098108
4.2681264464281
4.2681264464281
4.261971974263091
4.27428091859311
4.27428091859311
4.2681264464281
4.261971974263091
4.2681264464281
4.261971974263091
4.2681264464281
4.2681264464281
4.2681264464281
4.2681264464281
4.2681264464281
4.27428091859311
4.27428091859311
4.27428091859311
4.249663029933098
4.280435390758092
4.261971974263091
4.2681264464281
4.27428091859311
4.27428091859311
4.27428091859311
4.27428091859311
4.27428091859311
4.280435390758092
4.280435390758092
4.292744335088111
4.298898807253093
4.292744335088111
4.292744335088111
4.298898807253093
4.298898807253093
4.305053279418103
4.305053279418103
4.298898807253093
4.292744335088111
4.2865898629231
4.292744335088111
4.292744335088111
4.2865898629231
4.292744335088111
4.2865898629231
4.292744335088111
4.280435390758092
4.280435390758092
4.27428091859311
4.280435390758092
4.27428091859311
4.27428091859311
4.280435390758092
4.280435390758092
4.280435390758092
4.280435390758092
4.280435390758092
4.280435390758092
4.280435390758092
4.27428091859311
4.27428091859311
4.27428091859311
4.2865898629231
4.280435390758092
4.292744335088111
4.2865898629231
4.280435390758092
4.280435390758092
4.2865898629231
4.2865898629231
4.280435390758092
4.2865898629231
4.27428091859311
4.2681264464281
4.280435390758092
4.305053279418103
4.3727524732331275
4.465069555708134
4.54507769385315
4.569695582513134
4.557386638183142
4.465069555708134
4.385061417563119
4.3112077515831135
4.2681264464281
4.261971974263091
4.27428091859311
4.2865898629231
4.292744335088111
4.292744335088111
4.298898807253093
4.2865898629231
4.2865898629231
4.2865898629231
4.2865898629231
4.292744335088111
4.292744335088111
4.292744335088111
4.292744335088111
4.292744335088111
4.2865898629231
4.2865898629231
4.2865898629231
4.298898807253093
4.298898807253093
4.305053279418103
4.298898807253093
4.305053279418103
4.305053279418103
4.305053279418103
4.305053279418103
4.305053279418103
4.305053279418103
4.3112077515831135
4.305053279418103
4.305053279418103
4.305053279418103
4.305053279418103
4.3112077515831135
4.305053279418103
4.3112077515831135
4.3173622237481215
4.323516695913104
4.3173622237481215
4.3173622237481215
4.3173622237481215
4.3112077515831135
4.323516695913104
4.3173622237481215
4.329671168078114
4.329671168078114
4.3173622237481215
4.323516695913104
4.323516695913104
4.329671168078114
4.329671168078114
4.329671168078114
4.329671168078114
4.329671168078114
4.329671168078114
4.323516695913104
4.335825640243124
4.348134584573115
4.348134584573115
4.348134584573115
4.335825640243124
4.323516695913104
4.329671168078114
4.341980112408105
4.341980112408105
4.341980112408105
4.335825640243124
4.335825640243124
4.341980112408105
4.341980112408105
4.348134584573115
4.348134584573115
4.341980112408105
4.341980112408105
4.335825640243124
4.329671168078114
4.3173622237481215
4.323516695913104
4.3173622237481215
4.305053279418103
4.305053279418103
4.298898807253093
4.298898807253093
4.3112077515831135
4.305053279418103
4.298898807253093
4.292744335088111
4.298898807253093
4.298898807253093
4.292744335088111
4.292744335088111
4.280435390758092
4.292744335088111
4.2865898629231
4.292744335088111
4.2865898629231
4.2865898629231
4.298898807253093
4.298898807253093
4.27428091859311
4.261971974263091
4.305053279418103
4.305053279418103
4.292744335088111
4.2865898629231
4.2865898629231
4.292744335088111
4.2865898629231
4.2681264464281
4.2681264464281
4.2681264464281
4.280435390758092
4.27428091859311
4.280435390758092
4.280435390758092
4.280435390758092
4.27428091859311
4.27428091859311
4.280435390758092
4.2865898629231
4.27428091859311
4.2681264464281
4.2681264464281
4.2681264464281
4.2681264464281
4.280435390758092
4.280435390758092
4.2681264464281
4.27428091859311
4.2681264464281
4.2681264464281
4.2681264464281
4.27428091859311
4.261971974263091
4.2681264464281
4.27428091859311
4.27428091859311
4.2681264464281
4.261971974263091
4.261971974263091
4.27428091859311
4.27428091859311
4.261971974263091
4.261971974263091
4.255817502098108
4.2681264464281
4.261971974263091
4.255817502098108
4.2681264464281
4.261971974263091
4.2681264464281
4.27428091859311
4.2681264464281
4.2681264464281
4.2681264464281
4.27428091859311
4.27428091859311
4.280435390758092
4.27428091859311
4.27428091859311
4.27428091859311
4.2681264464281
4.27428091859311
4.2681264464281
4.2865898629231
4.2865898629231
4.280435390758092
4.2865898629231
4.2865898629231
4.280435390758092
4.2865898629231
4.280435390758092
4.27428091859311
4.280435390758092
4.280435390758092
4.2865898629231
4.280435390758092
4.255817502098108
4.27428091859311
4.280435390758092
4.280435390758092
4.280435390758092
4.280435390758092
4.292744335088111
4.298898807253093
4.292744335088111
4.292744335088111
4.298898807253093
4.305053279418103
4.298898807253093
4.298898807253093
4.292744335088111
4.292744335088111
4.305053279418103
4.305053279418103
4.305053279418103
4.3112077515831135
4.305053279418103
4.305053279418103
4.298898807253093
4.3112077515831135
4.3112077515831135
4.3112077515831135
4.305053279418103
4.3112077515831135
4.305053279418103
4.3173622237481215
4.3112077515831135
4.3173622237481215
4.3112077515831135
4.3112077515831135
4.3173622237481215
4.3173622237481215
4.3173622237481215
4.3173622237481215
4.3173622237481215
4.3173622237481215
4.3173622237481215
4.3112077515831135
4.3112077515831135
4.323516695913104
4.3173622237481215
4.3173622237481215
4.3173622237481215
4.323516695913104
4.3173622237481215
4.3112077515831135
4.3173622237481215
4.3173622237481215
4.3173622237481215
4.3173622237481215
4.3112077515831135
4.3173622237481215
4.323516695913104
4.323516695913104
4.323516695913104
4.329671168078114
4.329671168078114
4.3173622237481215
4.3173622237481215
4.3173622237481215
4.329671168078114
4.323516695913104
4.329671168078114
4.323516695913104
4.323516695913104
4.329671168078114
4.329671168078114
4.329671168078114
4.329671168078114
4.323516695913104
4.323516695913104
4.3173622237481215
4.3173622237481215
4.329671168078114
4.329671168078114
4.323516695913104
4.323516695913104
4.329671168078114
4.3173622237481215
4.323516695913104
4.335825640243124
4.335825640243124
4.323516695913104
4.3112077515831135
4.3173622237481215
4.3173622237481215
4.323516695913104
4.323516695913104
4.329671168078114
4.341980112408105
4.335825640243124
4.341980112408105
4.329671168078114
4.335825640243124
4.335825640243124
4.335825640243124
4.335825640243124
4.323516695913104
4.323516695913104
4.3173622237481215
4.323516695913104
4.329671168078114
4.323516695913104
4.323516695913104
4.335825640243124
4.341980112408105
4.341980112408105
4.341980112408105
4.348134584573115
4.341980112408105
4.341980112408105
4.348134584573115
4.348134584573115
4.348134584573115
4.360443528903107
4.354289056738125
4.360443528903107
4.341980112408105
4.3173622237481215
4.335825640243124
4.348134584573115
4.335825640243124
4.3173622237481215
4.3112077515831135
4.323516695913104
4.329671168078114
4.323516695913104
4.329671168078114
4.329671168078114
4.3173622237481215
4.3173622237481215
4.3173622237481215
4.3173622237481215
4.323516695913104
4.329671168078114
4.323516695913104
4.3173622237481215
4.335825640243124
4.323516695913104
4.323516695913104
4.3173622237481215
4.3173622237481215
4.3173622237481215
4.305053279418103
4.3112077515831135
4.305053279418103
4.305053279418103
4.3112077515831135
4.3173622237481215
4.3112077515831135
4.298898807253093
4.292744335088111
4.298898807253093
4.3112077515831135
4.360443528903107
4.446606139213133
4.5327687495231315
4.588158999008135
4.6004679433381535
4.5327687495231315
4.428142722718132
4.341980112408105
4.280435390758092
4.280435390758092
4.2865898629231
4.298898807253093
4.298898807253093
4.3112077515831135
4.3112077515831135
4.305053279418103
4.305053279418103
4.305053279418103
4.3112077515831135
4.3173622237481215
4.3112077515831135
4.3112077515831135
4.305053279418103
4.3112077515831135
4.3112077515831135
4.3112077515831135
4.3112077515831135
4.298898807253093
4.3112077515831135
4.305053279418103
4.298898807253093
4.298898807253093
4.3112077515831135
4.3173622237481215
4.323516695913104
4.323516695913104
4.335825640243124
4.323516695913104
4.323516695913104
4.335825640243124
4.335825640243124
4.335825640243124
4.323516695913104
4.323516695913104
4.323516695913104
4.335825640243124
4.329671168078114
4.329671168078114
4.329671168078114
4.329671168078114
4.323516695913104
4.329671168078114
4.329671168078114
4.341980112408105
4.335825640243124
4.329671168078114
4.335825640243124
4.329671168078114
4.329671168078114
4.329671168078114
4.323516695913104
4.323516695913104
4.329671168078114
4.335825640243124
4.341980112408105
4.335825640243124
4.348134584573115
4.348134584573115
4.341980112408105
4.335825640243124
4.335825640243124
4.335825640243124
4.335825640243124
4.348134584573115
4.354289056738125
4.354289056738125
4.354289056738125
4.341980112408105
4.323516695913104
4.348134584573115
4.360443528903107
4.341980112408105
4.335825640243124
4.329671168078114
4.329671168078114
4.323516695913104
4.292744335088111
4.3112077515831135
4.3173622237481215
4.3173622237481215
4.3173622237481215
4.305053279418103
4.298898807253093
4.292744335088111
4.280435390758092
4.298898807253093
4.2865898629231
4.298898807253093
4.292744335088111
4.292744335088111
4.292744335088111
4.298898807253093
4.292744335088111
4.298898807253093
4.2865898629231
4.2865898629231
4.2865898629231
4.280435390758092
4.292744335088111
4.292744335088111
4.292744335088111
4.3112077515831135
4.3112077515831135
4.305053279418103
4.3112077515831135
4.305053279418103
4.305053279418103
4.305053279418103
4.298898807253093
4.298898807253093
4.292744335088111
4.298898807253093
4.292744335088111
4.2865898629231
4.280435390758092
4.280435390758092
4.280435390758092
4.292744335088111
4.298898807253093
4.305053279418103
4.3112077515831135
4.305053279418103
4.2865898629231
4.27428091859311
4.27428091859311
4.2865898629231
4.298898807253093
4.3112077515831135
4.323516695913104
4.3173622237481215
4.305053279418103
4.292744335088111
4.2865898629231
4.298898807253093
4.3112077515831135
4.323516695913104
4.335825640243124
4.341980112408105
4.323516695913104
4.3112077515831135
4.3173622237481215
4.292744335088111
4.2865898629231
4.292744335088111
4.298898807253093
4.323516695913104
4.335825640243124
4.335825640243124
4.335825640243124
4.335825640243124
4.323516695913104
4.329671168078114
4.3173622237481215
4.323516695913104
4.3112077515831135
4.3173622237481215
4.3112077515831135
4.305053279418103
4.3112077515831135
4.3112077515831135
4.305053279418103
4.298898807253093
4.292744335088111
4.292744335088111
4.305053279418103
4.305053279418103
4.323516695913104
4.323516695913104
4.323516695913104
4.3112077515831135
4.3112077515831135
4.305053279418103
4.3112077515831135
4.329671168078114
4.341980112408105
4.348134584573115
4.335825640243124
4.335825640243124
4.329671168078114
4.329671168078114
4.329671168078114
4.329671168078114
4.335825640243124
4.323516695913104
4.323516695913104
4.323516695913104
4.305053279418103
4.3173622237481215
4.329671168078114
4.329671168078114
4.341980112408105
4.329671168078114
4.329671168078114
4.335825640243124
4.348134584573115
4.341980112408105
4.329671168078114
4.298898807253093
4.27428091859311
4.3112077515831135
4.3112077515831135
4.3112077515831135
4.329671168078114
4.348134584573115
4.348134584573115
4.348134584573115
4.354289056738125
4.341980112408105
4.329671168078114
4.323516695913104
4.323516695913104
4.335825640243124
4.335825640243124
4.335825640243124
4.3173622237481215
4.298898807253093
4.305053279418103
4.3173622237481215
4.323516695913104
4.329671168078114
4.329671168078114
4.329671168078114
4.329671168078114
4.341980112408105
4.341980112408105
4.366598001068117
4.360443528903107
4.335825640243124
4.3173622237481215
4.305053279418103
4.298898807253093
4.323516695913104
4.329671168078114
4.329671168078114
4.335825640243124
4.329671168078114
4.3173622237481215
4.323516695913104
4.323516695913104
4.335825640243124
4.329671168078114
4.329671168078114
4.3173622237481215
4.3112077515831135
4.305053279418103
4.3112077515831135
4.3173622237481215
4.335825640243124
4.323516695913104
4.323516695913104
4.3173622237481215
4.323516695913104
4.323516695913104
4.329671168078114
4.329671168078114
4.3173622237481215
4.3112077515831135
4.3112077515831135
4.3112077515831135
4.305053279418103
4.3173622237481215
4.323516695913104
4.341980112408105
4.329671168078114
4.335825640243124
4.323516695913104
4.323516695913104
4.323516695913104
4.329671168078114
4.341980112408105
4.354289056738125
4.354289056738125
4.341980112408105
4.335825640243124
4.335825640243124
4.335825640243124
4.335825640243124
4.3173622237481215
4.3173622237481215
4.329671168078114
4.348134584573115
4.354289056738125
4.348134584573115
4.366598001068117
4.360443528903107
4.354289056738125
4.348134584573115
4.335825640243124
4.3173622237481215
4.3173622237481215
4.329671168078114
4.335825640243124
4.335825640243124
4.323516695913104
4.3173622237481215
4.3173622237481215
4.329671168078114
4.3173622237481215
4.323516695913104
4.329671168078114
4.329671168078114
4.3112077515831135
4.305053279418103
4.3112077515831135
4.305053279418103
4.298898807253093
4.2865898629231
4.292744335088111
4.329671168078114
4.354289056738125
4.341980112408105
4.335825640243124
4.329671168078114
4.323516695913104
4.3173622237481215
4.3173622237481215
4.341980112408105
4.415833778388112
4.489687444368147
4.563541110348153
4.5820045268431535
4.588158999008135
4.508150860863147
4.40967930622313
4.323516695913104
4.2865898629231
4.298898807253093
4.305053279418103
4.305053279418103
4.305053279418103
4.292744335088111
4.292744335088111
4.305053279418103
4.3112077515831135
4.298898807253093
4.3173622237481215
4.3112077515831135
4.329671168078114
4.335825640243124
4.335825640243124
4.329671168078114
4.323516695913104
4.3173622237481215
4.3112077515831135
4.305053279418103
4.3173622237481215
4.3173622237481215
4.323516695913104
4.329671168078114
4.329671168078114
4.3173622237481215
4.323516695913104
4.3112077515831135
4.3173622237481215
4.335825640243124
4.305053279418103
4.280435390758092
4.2865898629231
4.3112077515831135
4.335825640243124
4.348134584573115
4.348134584573115
4.341980112408105
4.341980112408105
4.335825640243124
4.329671168078114
4.329671168078114
4.335825640243124
4.348134584573115
4.348134584573115
4.348134584573115
4.335825640243124
4.335825640243124
4.335825640243124
4.341980112408105
4.348134584573115
4.354289056738125
4.335825640243124
4.329671168078114
4.341980112408105
4.3173622237481215
4.27428091859311
4.292744335088111
4.329671168078114
4.348134584573115
4.366598001068117
4.360443528903107
4.3727524732331275
4.3727524732331275
4.354289056738125
4.360443528903107
4.348134584573115
4.335825640243124
4.348134584573115
4.348134584573115
4.354289056738125
4.329671168078114
4.329671168078114
4.323516695913104
4.323516695913104
4.335825640243124
4.335825640243124
4.354289056738125
4.360443528903107
4.348134584573115
4.335825640243124
4.323516695913104
4.3112077515831135
4.329671168078114
4.323516695913104
4.335825640243124
4.329671168078114
4.329671168078114
4.335825640243124
4.3173622237481215
4.3112077515831135
4.3112077515831135
4.298898807253093
4.292744335088111
4.2865898629231
4.2865898629231
4.305053279418103
4.3112077515831135
4.329671168078114
4.3173622237481215
4.3112077515831135
4.3112077515831135
4.305053279418103
4.3112077515831135
4.305053279418103
4.305053279418103
4.3112077515831135
4.3112077515831135
4.3112077515831135
4.3173622237481215
4.3112077515831135
4.305053279418103
4.3112077515831135
4.323516695913104
4.329671168078114
4.329671168078114
4.3112077515831135
4.27428091859311
4.298898807253093
4.292744335088111
4.305053279418103
4.323516695913104
4.329671168078114
4.341980112408105
4.348134584573115
4.341980112408105
4.3173622237481215
4.298898807253093
4.305053279418103
4.3173622237481215
4.323516695913104
4.323516695913104
4.323516695913104
4.3173622237481215
4.3112077515831135
4.305053279418103
4.292744335088111
4.298898807253093
4.3173622237481215
4.323516695913104
4.329671168078114
4.3173622237481215
4.3173622237481215
4.329671168078114
4.323516695913104
4.329671168078114
4.3173622237481215
4.3173622237481215
4.3112077515831135
4.3173622237481215
4.323516695913104
4.3173622237481215
4.323516695913104
4.323516695913104
4.335825640243124
4.3173622237481215
4.305053279418103
4.292744335088111
4.292744335088111
4.292744335088111
4.305053279418103
4.3173622237481215
4.305053279418103
4.298898807253093
4.3173622237481215
4.3173622237481215
4.329671168078114
4.335825640243124
4.329671168078114
4.3173622237481215
4.3112077515831135
4.3112077515831135
4.323516695913104
4.3112077515831135
4.298898807253093
4.2865898629231
4.280435390758092
4.292744335088111
4.305053279418103
4.305053279418103
4.305053279418103
4.341980112408105
4.341980112408105
4.329671168078114
4.329671168078114
4.3112077515831135
4.3173622237481215
4.3173622237481215
4.323516695913104
4.3112077515831135
4.3173622237481215
4.3112077515831135
4.298898807253093
4.305053279418103
4.3112077515831135
4.323516695913104
4.329671168078114
4.323516695913104
4.323516695913104
4.3112077515831135
4.292744335088111
4.280435390758092
4.292744335088111
4.3173622237481215
4.323516695913104
4.329671168078114
4.3112077515831135
4.305053279418103
4.305053279418103
4.305053279418103
4.329671168078114
4.348134584573115
4.335825640243124
4.329671168078114
4.3112077515831135
4.305053279418103
4.298898807253093
4.298898807253093
4.305053279418103
4.3112077515831135
4.3112077515831135
4.3173622237481215
4.3173622237481215
4.3173622237481215
4.3173622237481215
4.329671168078114
4.329671168078114
4.3112077515831135
4.292744335088111
4.298898807253093
4.298898807253093
4.323516695913104
4.329671168078114
4.329671168078114
4.3112077515831135
4.298898807253093
4.280435390758092
4.27428091859311
4.2681264464281
4.280435390758092
4.323516695913104
4.329671168078114
4.329671168078114
4.329671168078114
4.323516695913104
4.3173622237481215
4.323516695913104
4.3112077515831135
4.292744335088111
4.292744335088111
4.298898807253093
4.305053279418103
4.298898807253093
4.305053279418103
4.3112077515831135
4.323516695913104
4.329671168078114
4.323516695913104
4.3112077515831135
4.305053279418103
4.3173622237481215
4.323516695913104
4.323516695913104
4.3173622237481215
4.329671168078114
4.335825640243124
4.348134584573115
4.348134584573115
4.341980112408105
4.329671168078114
4.341980112408105
4.335825640243124
4.341980112408105
4.329671168078114
4.323516695913104
4.3112077515831135
4.3112077515831135
4.3173622237481215
4.292744335088111
4.2865898629231
4.27428091859311
4.292744335088111
4.323516695913104
4.323516695913104
4.305053279418103
4.3112077515831135
4.3112077515831135
4.3112077515831135
4.305053279418103
4.3112077515831135
4.292744335088111
4.292744335088111
4.2865898629231
4.27428091859311
4.2865898629231
4.280435390758092
4.280435390758092
4.2865898629231
4.2865898629231
4.2865898629231
4.298898807253093
4.298898807253093
4.280435390758092
4.2865898629231
4.2681264464281
4.255817502098108
4.237354085603107
4.249663029933098
4.305053279418103
4.391215889728128
4.489687444368147
4.551232166018132
4.569695582513134
4.508150860863147
4.40352483405812
4.3173622237481215
4.243508557768089
4.243508557768089
4.261971974263091
4.255817502098108
4.2681264464281
4.2681264464281
4.249663029933098
4.249663029933098
4.243508557768089
4.243508557768089
4.237354085603107
4.237354085603107
4.231199613438097
4.225045141273086
4.2065817247780855
4.1942727804480935
4.2065817247780855
4.231199613438097
4.243508557768089
4.237354085603107
4.237354085603107
4.231199613438097
4.231199613438097
4.231199613438097
4.225045141273086
4.225045141273086
4.237354085603107
4.231199613438097
4.218890669108104
4.218890669108104
4.2065817247780855
4.218890669108104
4.231199613438097
4.225045141273086
4.225045141273086
4.212736196943095
4.218890669108104
4.225045141273086
4.231199613438097
4.225045141273086
4.218890669108104
4.231199613438097
4.231199613438097
4.218890669108104
4.200427252613103
4.1758093639530935
4.231199613438097
4.243508557768089
4.237354085603107
4.225045141273086
4.231199613438097
4.237354085603107
4.237354085603107
4.188118308283084
4.1942727804480935
4.225045141273086
4.237354085603107
4.243508557768089
4.243508557768089
4.255817502098108
4.261971974263091
4.249663029933098
4.2681264464281
4.27428091859311
4.2681264464281
4.261971974263091
4.2681264464281
4.255817502098108
4.2681264464281
4.261971974263091
4.255817502098108
4.2681264464281
4.27428091859311
4.280435390758092
4.280435390758092
4.27428091859311
4.27428091859311
4.2681264464281
4.2681264464281
4.2681264464281
4.261971974263091
4.261971974263091
4.255817502098108
4.237354085603107
4.237354085603107
4.249663029933098
4.255817502098108
4.249663029933098
4.243508557768089
4.237354085603107
4.243508557768089
4.249663029933098
4.249663029933098
4.249663029933098
4.255817502098108
4.249663029933098
4.243508557768089
4.231199613438097
4.237354085603107
4.243508557768089
4.255817502098108
4.255817502098108
4.255817502098108
4.249663029933098
4.231199613438097
4.231199613438097
4.237354085603107
4.261971974263091
4.27428091859311
4.27428091859311
4.27428091859311
4.27428091859311
4.280435390758092
4.280435390758092
4.27428091859311
4.2681264464281
4.261971974263091
4.2681264464281
4.27428091859311
4.27428091859311
4.2865898629231
4.280435390758092
4.2681264464281
4.27428091859311
4.2681264464281
4.261971974263091
4.261971974263091
4.261971974263091
4.27428091859311
4.261971974263091
4.2681264464281
4.27428091859311
4.27428091859311
4.261971974263091
4.261971974263091
4.261971974263091
4.27428091859311
4.280435390758092
4.280435390758092
4.2865898629231
4.2865898629231
4.280435390758092
4.2681264464281
4.255817502098108
4.255817502098108
4.2681264464281
4.27428091859311
4.280435390758092
4.292744335088111
4.2865898629231
4.261971974263091
4.261971974263091
4.27428091859311
4.292744335088111
4.3173622237481215
4.3112077515831135
4.3112077515831135
4.298898807253093
4.2865898629231
4.27428091859311
4.2865898629231
4.292744335088111
4.3112077515831135
4.3112077515831135
4.3112077515831135
4.2865898629231
4.280435390758092
4.255817502098108
4.298898807253093
4.298898807253093
4.2865898629231
4.323516695913104
4.391215889728128
4.37890694539811
4.305053279418103
4.237354085603107
4.2065817247780855
4.225045141273086
4.280435390758092
4.3173622237481215
4.3173622237481215
4.341980112408105
4.323516695913104
4.261971974263091
4.237354085603107
4.218890669108104
4.243508557768089
4.2681264464281
4.329671168078114
4.397370361893111
4.391215889728128
4.360443528903107
4.341980112408105
4.360443528903107
4.366598001068117
4.37890694539811
4.37890694539811
4.366598001068117
4.354289056738125
4.341980112408105
4.329671168078114
4.298898807253093
4.292744335088111
4.305053279418103
4.298898807253093
4.3173622237481215
4.348134584573115
4.348134584573115
4.335825640243124
4.323516695913104
4.3173622237481215
4.3112077515831135
4.298898807253093
4.298898807253093
4.3112077515831135
4.3112077515831135
4.3173622237481215
4.3173622237481215
4.298898807253093
4.2865898629231
4.27428091859311
4.27428091859311
4.280435390758092
4.2865898629231
4.292744335088111
4.2865898629231
4.2681264464281
4.280435390758092
4.3112077515831135
4.305053279418103
4.354289056738125
4.366598001068117
4.298898807253093
4.249663029933098
4.218890669108104
4.218890669108104
4.255817502098108
4.292744335088111
4.323516695913104
4.341980112408105
4.341980112408105
4.341980112408105
4.323516695913104
4.329671168078114
4.329671168078114
4.323516695913104
4.329671168078114
4.3173622237481215
4.3112077515831135
4.3112077515831135
4.27428091859311
4.298898807253093
4.37890694539811
4.360443528903107
4.3112077515831135
4.27428091859311
4.280435390758092
4.305053279418103
4.335825640243124
4.323516695913104
4.323516695913104
4.3173622237481215
4.305053279418103
4.305053279418103
4.305053279418103
4.329671168078114
4.348134584573115
4.341980112408105
4.348134584573115
4.415833778388112
4.397370361893111
4.335825640243124
4.280435390758092
4.2681264464281
4.2865898629231
4.298898807253093
4.323516695913104
4.37890694539811
4.471224027873144
4.54507769385315
4.5943134711731455
4.5820045268431535
4.514305333028129
4.415833778388112
4.354289056738125
4.305053279418103
4.305053279418103
4.305053279418103
4.298898807253093
4.280435390758092
4.3112077515831135
4.3112077515831135
4.298898807253093
4.3112077515831135
4.3112077515831135
4.305053279418103
4.280435390758092
4.298898807253093
4.3112077515831135
4.298898807253093
4.292744335088111
4.298898807253093
4.298898807253093
4.348134584573115
4.415833778388112
4.37890694539811
4.3173622237481215
4.2681264464281
4.243508557768089
4.237354085603107
4.261971974263091
4.27428091859311
4.298898807253093
4.3173622237481215
4.305053279418103
4.305053279418103
4.305053279418103
4.3112077515831135
4.3112077515831135
4.305053279418103
4.298898807253093
4.329671168078114
4.397370361893111
4.354289056738125
4.298898807253093
4.2681264464281
4.255817502098108
4.261971974263091
4.280435390758092
4.2865898629231
4.305053279418103
4.305053279418103
4.323516695913104
4.329671168078114
4.323516695913104
4.3112077515831135
4.323516695913104
4.323516695913104
4.305053279418103
4.3173622237481215
4.3173622237481215
4.3112077515831135
4.3112077515831135
4.305053279418103
4.3173622237481215
4.329671168078114
4.335825640243124
4.391215889728128
4.446606139213133
4.40352483405812
4.3173622237481215
4.218890669108104
4.1942727804480935
4.231199613438097
4.261971974263091
4.298898807253093
4.348134584573115
4.446606139213133
4.415833778388112
4.360443528903107
4.3112077515831135
4.298898807253093
4.305053279418103
4.27428091859311
4.261971974263091
4.255817502098108
4.249663029933098
4.2865898629231
4.3112077515831135
4.3112077515831135
4.3173622237481215
4.329671168078114
4.323516695913104
4.323516695913104
4.366598001068117
4.3173622237481215
4.231199613438097
4.181963836118102
4.200427252613103
4.243508557768089
4.2681264464281
4.2865898629231
4.292744335088111
4.298898807253093
4.292744335088111
4.27428091859311
4.2865898629231
4.354289056738125
4.335825640243124
4.292744335088111
4.231199613438097
4.200427252613103
4.225045141273086
4.243508557768089
4.255817502098108
4.280435390758092
4.305053279418103
4.305053279418103
4.305053279418103
4.2865898629231
4.27428091859311
4.27428091859311
4.27428091859311
4.261971974263091
4.298898807253093
4.354289056738125
4.3112077515831135
4.249663029933098
4.2065817247780855
4.225045141273086
4.2681264464281
4.261971974263091
4.292744335088111
4.2681264464281
4.255817502098108
4.243508557768089
4.231199613438097
4.243508557768089
4.298898807253093
4.397370361893111
4.37890694539811
4.298898807253093
4.243508557768089
4.249663029933098
4.249663029933098
4.237354085603107
4.188118308283084
4.120419114468088
4.108110170138069
4.108110170138069
4.095801225808078
4.108110170138069
4.108110170138069
4.163500419623101
4.188118308283084
4.145037003128072
4.114264642303079
4.1327280587980795
4.1758093639530935
4.1942727804480935
4.212736196943095
4.231199613438097
4.225045141273086
4.231199613438097
4.237354085603107
4.225045141273086
4.231199613438097
4.231199613438097
4.218890669108104
4.218890669108104
4.292744335088111
4.3112077515831135
4.2681264464281
4.225045141273086
4.212736196943095
4.249663029933098
4.27428091859311
4.292744335088111
4.298898807253093
4.292744335088111
4.292744335088111
4.292744335088111
4.298898807253093
4.298898807253093
4.3173622237481215
4.323516695913104
4.348134584573115
4.40352483405812
4.335825640243124
4.261971974263091
4.212736196943095
4.243508557768089
4.255817502098108
4.2681264464281
4.2865898629231
4.3173622237481215
4.341980112408105
4.360443528903107
4.440451667048122
4.415833778388112
4.323516695913104
4.2681264464281
4.292744335088111
4.329671168078114
4.348134584573115
4.341980112408105
4.348134584573115
4.341980112408105
4.323516695913104
4.292744335088111
4.2865898629231
4.305053279418103
4.341980112408105
4.446606139213133
4.397370361893111
4.3112077515831135
4.2865898629231
4.298898807253093
4.329671168078114
4.341980112408105
4.341980112408105
4.348134584573115
4.348134584573115
4.323516695913104
4.3173622237481215
4.292744335088111
4.27428091859311
4.2681264464281
4.280435390758092
4.348134584573115
4.446606139213133
4.440451667048122
4.3727524732331275
4.323516695913104
4.3173622237481215
4.335825640243124
4.329671168078114
4.305053279418103
4.3112077515831135
4.323516695913104
4.335825640243124
4.335825640243124
4.335825640243124
4.348134584573115
4.421988250553122
4.446606139213133
4.366598001068117
4.2865898629231
4.237354085603107
4.249663029933098
4.280435390758092
4.2865898629231
4.2681264464281
4.261971974263091
4.292744335088111
4.3112077515831135
4.323516695913104
4.37890694539811
4.360443528903107
4.27428091859311
4.225045141273086
4.225045141273086
4.255817502098108
4.280435390758092
4.2865898629231
4.2865898629231
4.27428091859311
4.2865898629231
4.298898807253093
4.298898807253093
4.261971974263091
4.2865898629231
4.366598001068117
4.329671168078114
4.261971974263091
4.218890669108104
4.249663029933098
4.27428091859311
4.292744335088111
4.341980112408105
4.428142722718132
4.501996388698137
4.54507769385315
4.551232166018132
4.465069555708134
4.341980112408105
4.237354085603107
4.1758093639530935
4.218890669108104
4.305053279418103
4.298898807253093
4.231199613438097
4.163500419623101
4.169654891788083
4.200427252613103
4.2065817247780855
4.225045141273086
4.231199613438097
4.231199613438097
4.218890669108104
4.237354085603107
4.261971974263091
4.292744335088111
4.305053279418103
4.292744335088111
4.2865898629231
4.2865898629231
4.354289056738125
4.329671168078114
4.237354085603107
4.169654891788083
4.1942727804480935
4.243508557768089
4.243508557768089
4.27428091859311
4.280435390758092
4.255817502098108
4.27428091859311
4.261971974263091
4.261971974263091
4.2681264464281
4.27428091859311
4.2865898629231
4.280435390758092
4.255817502098108
4.329671168078114
4.366598001068117
4.298898807253093
4.225045141273086
4.188118308283084
4.200427252613103
4.218890669108104
4.237354085603107
4.255817502098108
4.280435390758092
4.292744335088111
4.292744335088111
4.298898807253093
4.280435390758092
4.261971974263091
4.243508557768089
4.27428091859311
4.360443528903107
4.335825640243124
4.280435390758092
4.237354085603107
4.261971974263091
4.27428091859311
4.280435390758092
4.292744335088111
4.305053279418103
4.323516695913104
4.329671168078114
4.329671168078114
4.329671168078114
4.305053279418103
4.292744335088111
4.335825640243124
4.415833778388112
4.37890694539811
4.280435390758092
4.212736196943095
4.225045141273086
4.27428091859311
4.298898807253093
4.27428091859311
4.249663029933098
4.237354085603107
4.243508557768089
4.27428091859311
4.298898807253093
4.3112077515831135
4.298898807253093
4.298898807253093
4.27428091859311
4.249663029933098
4.237354085603107
4.255817502098108
4.348134584573115
4.354289056738125
4.27428091859311
4.2065817247780855
4.1942727804480935
4.231199613438097
4.218890669108104
4.200427252613103
4.1942727804480935
4.237354085603107
4.27428091859311
4.298898807253093
4.305053279418103
4.292744335088111
4.2865898629231
4.2681264464281
4.2681264464281
4.323516695913104
4.3727524732331275
4.3112077515831135
4.2065817247780855
4.151191475293081
4.157345947458091
4.237354085603107
4.2681264464281
4.243508557768089
4.225045141273086
4.237354085603107
4.255817502098108
4.280435390758092
4.348134584573115
4.323516695913104
4.261971974263091
4.212736196943095
4.237354085603107
4.280435390758092
4.292744335088111
4.2865898629231
4.27428091859311
4.255817502098108
4.261971974263091
4.280435390758092
4.2681264464281
4.27428091859311
4.329671168078114
4.341980112408105
4.280435390758092
4.225045141273086
4.2065817247780855
4.237354085603107
4.255817502098108
4.2681264464281
4.280435390758092
4.280435390758092
4.27428091859311
4.261971974263091
4.237354085603107
4.243508557768089
4.243508557768089
4.2681264464281
4.255817502098108
4.261971974263091
4.280435390758092
4.305053279418103
4.40352483405812
4.385061417563119
4.298898807253093
4.2065817247780855
4.2065817247780855
4.237354085603107
4.2681264464281
4.292744335088111
4.292744335088111
4.280435390758092
4.280435390758092
4.280435390758092
4.2681264464281
4.255817502098108
4.249663029933098
4.237354085603107
4.243508557768089
4.280435390758092
4.298898807253093
4.335825640243124
4.391215889728128
4.335825640243124
4.2681264464281
4.1942727804480935
4.212736196943095
4.255817502098108
4.2681264464281
4.280435390758092
4.280435390758092
4.292744335088111
4.298898807253093
4.298898807253093
4.2865898629231
4.366598001068117
4.37890694539811
4.3112077515831135
4.225045141273086
4.1942727804480935
4.231199613438097
4.243508557768089
4.218890669108104
4.237354085603107
4.243508557768089
4.249663029933098
4.261971974263091
4.2681264464281
4.280435390758092
4.298898807253093
4.292744335088111
4.2865898629231
4.2865898629231
4.360443528903107
4.3727524732331275
4.305053279418103
4.218890669108104
4.188118308283084
4.231199613438097
4.218890669108104
4.1942727804480935
4.1942727804480935
4.243508557768089
4.366598001068117
4.385061417563119
4.3112077515831135
4.243508557768089
4.249663029933098
4.280435390758092
4.298898807253093
4.305053279418103
4.298898807253093
4.2865898629231
4.292744335088111
4.2865898629231
4.280435390758092
4.27428091859311
4.292744335088111
4.3173622237481215
4.37890694539811
4.40352483405812
4.3173622237481215
4.225045141273086
4.188118308283084
4.231199613438097
4.27428091859311
4.2865898629231
4.292744335088111
4.298898807253093
4.292744335088111
4.292744335088111
4.366598001068117
4.385061417563119
4.2865898629231
4.2065817247780855
4.169654891788083
4.2065817247780855
4.261971974263091
4.298898807253093
4.3112077515831135
4.2865898629231
4.292744335088111
4.2865898629231
4.354289056738125
4.385061417563119
4.3112077515831135
4.218890669108104
4.188118308283084
4.225045141273086
4.243508557768089
4.255817502098108
4.249663029933098
4.261971974263091
4.27428091859311
4.2681264464281
4.27428091859311
4.323516695913104
4.397370361893111
4.471224027873144
4.520459805193139
4.5327687495231315
4.5327687495231315
4.397370361893111
4.237354085603107
4.138882530963089
4.157345947458091
4.212736196943095
4.243508557768089
4.255817502098108
4.2681264464281
4.261971974263091
4.255817502098108
4.249663029933098
4.237354085603107
4.218890669108104
4.212736196943095
4.218890669108104
4.212736196943095
4.218890669108104
4.237354085603107
4.249663029933098
4.292744335088111
4.37890694539811
4.348134584573115
4.2681264464281
4.200427252613103
4.212736196943095
4.237354085603107
4.255817502098108
4.261971974263091
4.27428091859311
4.261971974263091
4.231199613438097
4.243508557768089
4.323516695913104
4.292744335088111
4.225045141273086
4.169654891788083
4.1942727804480935
4.261971974263091
4.280435390758092
4.2865898629231
4.280435390758092
4.27428091859311
4.27428091859311
4.280435390758092
4.292744335088111
4.323516695913104
4.37890694539811
4.335825640243124
4.255817502098108
4.2065817247780855
4.231199613438097
4.243508557768089
4.249663029933098
4.27428091859311
4.292744335088111
4.2865898629231
4.2681264464281
4.27428091859311
4.323516695913104
4.391215889728128
4.40967930622313
4.323516695913104
4.249663029933098
4.231199613438097
4.2681264464281
4.280435390758092
4.2865898629231
4.292744335088111
4.305053279418103
4.3173622237481215
4.305053279418103
4.292744335088111
4.280435390758092
4.2865898629231
4.3727524732331275
4.452760611378115
4.366598001068117
4.249663029933098
4.1942727804480935
4.237354085603107
4.280435390758092
4.305053279418103
4.3112077515831135
4.305053279418103
4.3173622237481215
4.3112077515831135
4.298898807253093
4.280435390758092
4.27428091859311
4.27428091859311
4.2681264464281
4.354289056738125
4.354289056738125
4.280435390758092
4.200427252613103
4.200427252613103
4.243508557768089
4.243508557768089
4.237354085603107
4.255817502098108
4.27428091859311
4.2865898629231
4.341980112408105
4.397370361893111
4.341980112408105
4.261971974263091
4.218890669108104
4.243508557768089
4.2681264464281
4.27428091859311
4.27428091859311
4.27428091859311
4.261971974263091
4.261971974263091
4.255817502098108
4.249663029933098
4.243508557768089
4.249663029933098
4.280435390758092
4.305053279418103
4.298898807253093
4.3112077515831135
4.298898807253093
4.292744335088111
4.341980112408105
4.37890694539811
4.323516695913104
4.243508557768089
4.2065817247780855
4.237354085603107
4.243508557768089
4.237354085603107
4.243508557768089
4.237354085603107
4.2681264464281
4.292744335088111
4.3112077515831135
4.305053279418103
4.292744335088111
4.3173622237481215
4.397370361893111
4.354289056738125
4.261971974263091
4.1942727804480935
4.218890669108104
4.261971974263091
4.280435390758092
4.298898807253093
4.2865898629231
4.2681264464281
4.261971974263091
4.231199613438097
4.261971974263091
4.298898807253093
4.3112077515831135
4.3173622237481215
4.385061417563119
4.40967930622313
4.3173622237481215
4.237354085603107
4.2065817247780855
4.237354085603107
4.261971974263091
4.280435390758092
4.27428091859311
4.27428091859311
4.2681264464281
4.243508557768089
4.231199613438097
4.243508557768089
4.2681264464281
4.280435390758092
4.292744335088111
4.2865898629231
4.3173622237481215
4.397370361893111
4.37890694539811
4.298898807253093
4.225045141273086
4.231199613438097
4.292744335088111
4.305053279418103
4.280435390758092
4.280435390758092
4.2865898629231
4.280435390758092
4.2865898629231
4.27428091859311
4.2681264464281
4.280435390758092
4.360443528903107
4.415833778388112
4.360443528903107
4.27428091859311
4.231199613438097
4.249663029933098
4.27428091859311
4.298898807253093
4.298898807253093
4.305053279418103
4.298898807253093
4.305053279418103
4.298898807253093
4.3173622237481215
4.3173622237481215
4.323516695913104
4.3112077515831135
4.3173622237481215
4.3173622237481215
4.3173622237481215
4.391215889728128
4.3727524732331275
4.292744335088111
4.231199613438097
4.249663029933098
4.298898807253093
4.323516695913104
4.323516695913104
4.305053279418103
4.323516695913104
4.323516695913104
4.329671168078114
4.323516695913104
4.3112077515831135
4.323516695913104
4.428142722718132
4.40352483405812
4.3112077515831135
4.237354085603107
4.27428091859311
4.3173622237481215
4.3112077515831135
4.3112077515831135
4.329671168078114
4.341980112408105
4.360443528903107
4.348134584573115
4.354289056738125
4.341980112408105
4.348134584573115
4.348134584573115
4.348134584573115
4.329671168078114
4.329671168078114
4.3112077515831135
4.298898807253093
4.3112077515831135
4.391215889728128
4.458915083543125
4.385061417563119
4.2865898629231
4.225045141273086
4.2681264464281
4.3173622237481215
4.341980112408105
4.366598001068117
4.366598001068117
4.360443528903107
4.354289056738125
4.354289056738125
4.335825640243124
4.335825640243124
4.323516695913104
4.329671168078114
4.397370361893111
4.3727524732331275
4.2681264464281
4.218890669108104
4.249663029933098
4.3112077515831135
4.335825640243124
4.3173622237481215
4.3112077515831135
4.305053279418103
4.3112077515831135
4.323516695913104
4.3173622237481215
4.329671168078114
4.341980112408105
4.3173622237481215
4.3173622237481215
4.323516695913104
4.341980112408105
4.421988250553122
4.415833778388112
4.3112077515831135
4.218890669108104
4.212736196943095
4.3173622237481215
4.471224027873144
4.606622415503137
4.662012664988168
4.637394776328158
4.538923221688139
4.421988250553122
4.329671168078114
4.280435390758092
4.305053279418103
4.329671168078114
4.40352483405812
4.440451667048122
4.341980112408105
4.261971974263091
4.237354085603107
4.27428091859311
4.323516695913104
4.348134584573115
4.335825640243124
4.3173622237481215
4.3112077515831135
4.298898807253093
4.3173622237481215
4.391215889728128
4.446606139213133
4.385061417563119
4.2865898629231
4.261971974263091
4.298898807253093
4.323516695913104
4.329671168078114
4.323516695913104
4.329671168078114
4.341980112408105
4.354289056738125
4.348134584573115
4.329671168078114
4.3173622237481215
4.3173622237481215
4.305053279418103
4.3112077515831135
4.3173622237481215
4.335825640243124
4.37890694539811
4.440451667048122
4.37890694539811
4.292744335088111
4.255817502098108
4.305053279418103
4.354289056738125
4.348134584573115
4.335825640243124
4.329671168078114
4.341980112408105
4.354289056738125
4.360443528903107
4.360443528903107
4.354289056738125
4.329671168078114
4.329671168078114
4.40352483405812
4.40352483405812
4.360443528903107
4.305053279418103
4.323516695913104
4.3727524732331275
4.391215889728128
4.385061417563119
4.391215889728128
4.385061417563119
4.391215889728128
4.37890694539811
4.360443528903107
4.366598001068117
4.391215889728128
4.40352483405812
4.40352483405812
4.385061417563119
4.37890694539811
4.385061417563119
4.452760611378115
4.440451667048122
4.3727524732331275
4.305053279418103
4.3112077515831135
4.323516695913104
4.329671168078114
4.348134584573115
4.3727524732331275
4.366598001068117
4.348134584573115
4.329671168078114
4.323516695913104
4.329671168078114
4.3727524732331275
4.452760611378115
4.415833778388112
4.305053279418103
4.225045141273086
4.237354085603107
4.2681264464281
4.280435390758092
4.2865898629231
4.298898807253093
4.3112077515831135
4.329671168078114
4.335825640243124
4.329671168078114
4.341980112408105
4.335825640243124
4.335825640243124
4.329671168078114
4.3112077515831135
4.323516695913104
4.385061417563119
4.397370361893111
4.335825640243124
4.2681264464281
4.231199613438097
4.249663029933098
4.292744335088111
4.305053279418103
4.298898807253093
4.292744335088111
4.305053279418103
4.3112077515831135
4.323516695913104
4.335825640243124
4.335825640243124
4.341980112408105
4.341980112408105
4.348134584573115
4.335825640243124
4.323516695913104
4.298898807253093
4.323516695913104
4.3112077515831135
4.3112077515831135
4.3173622237481215
4.3173622237481215
4.323516695913104
4.3173622237481215
4.329671168078114
4.40967930622313
4.40967930622313
4.341980112408105
4.243508557768089
4.225045141273086
4.261971974263091
4.2865898629231
4.305053279418103
4.305053279418103
4.3112077515831135
4.3173622237481215
4.354289056738125
4.37890694539811
4.366598001068117
4.354289056738125
4.348134584573115
4.348134584573115
4.348134584573115
4.323516695913104
4.335825640243124
4.329671168078114
4.335825640243124
4.385061417563119
4.465069555708134
4.421988250553122
4.341980112408105
4.255817502098108
4.249663029933098
4.255817502098108
4.280435390758092
4.305053279418103
4.348134584573115
4.341980112408105
4.452760611378115
4.458915083543125
4.360443528903107
4.280435390758092
4.27428091859311
4.305053279418103
4.305053279418103
4.280435390758092
4.298898807253093
4.305053279418103
4.329671168078114
4.348134584573115
4.354289056738125
4.348134584573115
4.348134584573115
4.341980112408105
4.335825640243124
4.323516695913104
4.323516695913104
4.329671168078114
4.335825640243124
4.335825640243124
4.329671168078114
4.3173622237481215
4.298898807253093
4.305053279418103
4.305053279418103
4.323516695913104
4.40352483405812
4.428142722718132
4.354289056738125
4.2681264464281
4.225045141273086
4.2681264464281
4.298898807253093
4.3173622237481215
4.329671168078114
4.329671168078114
4.3173622237481215
4.3112077515831135
4.323516695913104
4.335825640243124
4.335825640243124
4.329671168078114
4.3112077515831135
4.3112077515831135
4.3112077515831135
4.385061417563119
4.471224027873144
4.421988250553122
4.329671168078114
4.261971974263091
4.261971974263091
4.2865898629231
4.305053279418103
4.3112077515831135
4.3112077515831135
4.305053279418103
4.292744335088111
4.2865898629231
4.298898807253093
4.298898807253093
4.3112077515831135
4.397370361893111
4.366598001068117
4.292744335088111
4.225045141273086
4.218890669108104
4.243508557768089
4.27428091859311
4.2865898629231
4.280435390758092
4.2681264464281
4.280435390758092
4.298898807253093
4.354289056738125
4.452760611378115
4.40352483405812
4.2865898629231
4.2065817247780855
4.200427252613103
4.255817502098108
4.2865898629231
4.305053279418103
4.3112077515831135
4.3173622237481215
4.366598001068117
4.421988250553122
4.501996388698137
4.551232166018132
4.637394776328158
4.6435492484931675
4.477378500038126
4.298898807253093
4.200427252613103
4.231199613438097
4.27428091859311
4.292744335088111
4.298898807253093
4.3112077515831135
4.305053279418103
4.298898807253093
4.298898807253093
4.298898807253093
4.292744335088111
4.305053279418103
4.323516695913104
4.3112077515831135
4.298898807253093
4.348134584573115
4.434297194883113
4.40352483405812
4.3173622237481215
4.249663029933098
4.261971974263091
4.298898807253093
4.3112077515831135
4.3173622237481215
4.323516695913104
4.329671168078114
4.3173622237481215
4.305053279418103
4.2865898629231
4.292744335088111
4.348134584573115
4.452760611378115
4.40967930622313
4.3173622237481215
4.249663029933098
4.249663029933098
4.27428091859311
4.27428091859311
4.298898807253093
4.305053279418103
4.3173622237481215
4.323516695913104
4.3112077515831135
4.323516695913104
4.329671168078114
4.323516695913104
4.329671168078114
4.329671168078114
4.329671168078114
4.323516695913104
4.40967930622313
4.452760611378115
4.391215889728128
4.298898807253093
4.255817502098108
4.2681264464281
4.292744335088111
4.305053279418103
4.3173622237481215
4.335825640243124
4.348134584573115
4.348134584573115
4.348134584573115
4.335825640243124
4.335825640243124
4.348134584573115
4.341980112408105
4.348134584573115
4.348134584573115
4.348134584573115
4.360443528903107
4.452760611378115
4.428142722718132
4.348134584573115
4.27428091859311
4.255817502098108
4.2681264464281
4.2681264464281
4.2681264464281
4.2865898629231
4.292744335088111
4.3112077515831135
4.3112077515831135
4.305053279418103
4.2865898629231
4.2681264464281
4.2681264464281
4.305053279418103
4.385061417563119
4.335825640243124
4.255817502098108
4.1942727804480935
4.218890669108104
4.249663029933098
4.237354085603107
4.237354085603107
4.243508557768089
4.255817502098108
4.2681264464281
4.2681264464281
4.27428091859311
4.2865898629231
4.261971974263091
4.261971974263091
4.261971974263091
4.3173622237481215
4.391215889728128
4.341980112408105
4.225045141273086
4.200427252613103
4.225045141273086
4.249663029933098
4.243508557768089
4.237354085603107
4.237354085603107
4.249663029933098
4.249663029933098
4.255817502098108
4.2681264464281
4.261971974263091
4.280435390758092
4.2865898629231
4.280435390758092
4.2865898629231
4.280435390758092
4.280435390758092
4.341980112408105
4.391215889728128
4.3112077515831135
4.212736196943095
4.188118308283084
4.225045141273086
4.255817502098108
4.255817502098108
4.243508557768089
4.225045141273086
4.243508557768089
4.261971974263091
4.2865898629231
4.298898807253093
4.298898807253093
4.280435390758092
4.261971974263091
4.261971974263091
4.249663029933098
4.2681264464281
4.2865898629231
4.2865898629231
4.2865898629231
4.2865898629231
4.280435390758092
4.354289056738125
4.391215889728128
4.3173622237481215
4.231199613438097
4.188118308283084
4.218890669108104
4.237354085603107
4.255817502098108
4.261971974263091
4.280435390758092
4.2681264464281
4.255817502098108
4.2681264464281
4.27428091859311
4.2865898629231
4.292744335088111
4.2865898629231
4.27428091859311
4.261971974263091
4.261971974263091
4.27428091859311
4.2865898629231
4.2865898629231
4.280435390758092
4.280435390758092
4.2865898629231
4.2865898629231
4.2865898629231
4.280435390758092
4.280435390758092
4.323516695913104
4.391215889728128
4.341980112408105
4.261971974263091
4.200427252613103
4.2065817247780855
4.231199613438097
4.249663029933098
4.243508557768089
4.231199613438097
4.243508557768089
4.2681264464281
4.280435390758092
4.2865898629231
4.2865898629231
4.280435390758092
4.280435390758092
4.280435390758092
4.2865898629231
4.348134584573115
4.3727524732331275
4.298898807253093
4.225045141273086
4.181963836118102
4.225045141273086
4.255817502098108
4.2865898629231
4.2865898629231
4.2865898629231
4.280435390758092
4.27428091859311
4.280435390758092
4.2865898629231
4.2865898629231
4.27428091859311
4.255817502098108
4.280435390758092
4.354289056738125
4.385061417563119
4.335825640243124
4.2681264464281
4.249663029933098
4.280435390758092
4.3112077515831135
4.298898807253093
4.292744335088111
4.27428091859311
4.280435390758092
4.2681264464281
4.255817502098108
4.2865898629231
4.298898807253093
4.298898807253093
4.27428091859311
4.27428091859311
4.280435390758092
4.27428091859311
4.2681264464281
4.2681264464281
4.27428091859311
4.261971974263091
4.280435390758092
4.348134584573115
4.348134584573115
4.298898807253093
4.231199613438097
4.2065817247780855
4.225045141273086
4.243508557768089
4.261971974263091
4.255817502098108
4.255817502098108
4.249663029933098
4.255817502098108
4.2681264464281
4.2865898629231
4.298898807253093
4.292744335088111
4.27428091859311
4.2865898629231
4.366598001068117
4.40352483405812
4.397370361893111
4.40967930622313
4.440451667048122
4.495841916533128
4.520459805193139
4.446606139213133
4.354289056738125
4.27428091859311
4.243508557768089
4.255817502098108
4.2681264464281
4.27428091859311
4.27428091859311
4.280435390758092
4.2681264464281
4.27428091859311
4.280435390758092
4.2865898629231
4.280435390758092
4.323516695913104
4.391215889728128
4.341980112408105
4.27428091859311
4.2065817247780855
4.1942727804480935
4.212736196943095
4.237354085603107
4.255817502098108
4.2681264464281
4.261971974263091
4.243508557768089
4.249663029933098
4.2681264464281
4.27428091859311
4.27428091859311
4.341980112408105
4.40352483405812
4.354289056738125
4.280435390758092
4.218890669108104
4.225045141273086
4.249663029933098
4.261971974263091
4.261971974263091
4.27428091859311
4.2681264464281
4.280435390758092
4.2865898629231
4.292744335088111
4.292744335088111
4.298898807253093
4.2865898629231
4.27428091859311
4.261971974263091
4.2681264464281
4.27428091859311
4.2865898629231
4.329671168078114
4.37890694539811
4.323516695913104
4.255817502098108
4.212736196943095
4.243508557768089
4.2681264464281
4.27428091859311
4.292744335088111
4.305053279418103
4.323516695913104
4.3173622237481215
4.323516695913104
4.323516695913104
4.329671168078114
4.3173622237481215
4.3173622237481215
4.3112077515831135
4.323516695913104
4.3173622237481215
4.3112077515831135
4.391215889728128
4.40352483405812
4.335825640243124
4.2681264464281
4.225045141273086
4.225045141273086
4.243508557768089
4.255817502098108
4.2865898629231
4.292744335088111
4.2865898629231
4.2681264464281
4.2865898629231
4.2681264464281
4.261971974263091
4.27428091859311
4.27428091859311
4.2681264464281
4.249663029933098
4.261971974263091
4.348134584573115
4.348134584573115
4.2865898629231
4.2065817247780855
4.1758093639530935
4.1758093639530935
4.212736196943095
4.237354085603107
4.261971974263091
4.280435390758092
4.280435390758092
4.261971974263091
4.261971974263091
4.27428091859311
4.27428091859311
4.2865898629231
4.2865898629231
4.280435390758092
4.27428091859311
4.280435390758092
4.2681264464281
4.261971974263091
4.2681264464281
4.348134584573115
4.366598001068117
4.292744335088111
4.212736196943095
4.188118308283084
4.2065817247780855
4.225045141273086
4.243508557768089
4.231199613438097
4.231199613438097
4.249663029933098
4.2681264464281
4.2681264464281
4.2865898629231
4.27428091859311
4.27428091859311
4.2681264464281
4.2681264464281
4.27428091859311
4.261971974263091
4.2681264464281
4.348134584573115
4.385061417563119
4.329671168078114
4.243508557768089
4.2065817247780855
4.218890669108104
4.243508557768089
4.249663029933098
4.255817502098108
4.255817502098108
4.261971974263091
4.27428091859311
4.27428091859311
4.280435390758092
4.280435390758092
4.280435390758092
4.280435390758092
4.2865898629231
4.27428091859311
4.280435390758092
4.27428091859311
4.261971974263091
4.261971974263091
4.27428091859311
4.280435390758092
4.292744335088111
4.292744335088111
4.2865898629231
4.292744335088111
4.292744335088111
4.280435390758092
4.280435390758092
4.280435390758092
4.27428091859311
4.27428091859311
4.27428091859311
4.280435390758092
4.280435390758092
4.2865898629231
4.280435390758092
4.2865898629231
4.2865898629231
4.2865898629231
4.27428091859311
4.280435390758092
4.366598001068117
4.385061417563119
4.323516695913104
4.255817502098108
4.212736196943095
4.231199613438097
4.255817502098108
4.261971974263091
4.255817502098108
4.255817502098108
4.292744335088111
4.292744335088111
4.2865898629231
4.305053279418103
4.305053279418103
4.298898807253093
4.3112077515831135
4.3112077515831135
4.305053279418103
4.298898807253093
4.298898807253093
4.298898807253093
4.292744335088111
4.2865898629231
4.27428091859311
4.2865898629231
4.2865898629231
4.292744335088111
4.305053279418103
4.305053279418103
4.3112077515831135
4.305053279418103
4.3112077515831135
4.305053279418103
4.329671168078114
4.415833778388112
4.397370361893111
4.323516695913104
4.255817502098108
4.231199613438097
4.249663029933098
4.27428091859311
4.2865898629231
4.298898807253093
4.298898807253093
4.3112077515831135
4.3112077515831135
4.298898807253093
4.305053279418103
4.305053279418103
4.305053279418103
4.323516695913104
4.335825640243124
4.348134584573115
4.341980112408105
4.335825640243124
4.329671168078114
4.323516695913104
4.3112077515831135
4.323516695913104
4.329671168078114
4.329671168078114
4.3173622237481215
4.323516695913104
4.366598001068117
4.415833778388112
4.3727524732331275
4.3112077515831135
4.249663029933098
4.225045141273086
4.249663029933098
4.27428091859311
4.2865898629231
4.2865898629231
4.280435390758092
4.292744335088111
4.292744335088111
4.298898807253093
4.3112077515831135
4.305053279418103
4.3112077515831135
4.280435390758092
4.292744335088111
4.323516695913104
4.3173622237481215
4.3173622237481215
4.305053279418103
4.298898807253093
4.298898807253093
4.329671168078114
4.40967930622313
4.37890694539811
4.305053279418103
4.249663029933098
4.2865898629231
4.421988250553122
4.5327687495231315
4.5943134711731455
4.6004679433381535
4.54507769385315
4.421988250553122
4.341980112408105
4.2865898629231
4.280435390758092
4.292744335088111
4.298898807253093
4.3173622237481215
4.3173622237481215
4.3112077515831135
4.3173622237481215
4.3112077515831135
4.3112077515831135
4.3112077515831135
4.305053279418103
4.298898807253093
4.298898807253093
4.2865898629231
4.2865898629231
4.385061417563119
4.391215889728128
4.335825640243124
4.27428091859311
4.237354085603107
4.255817502098108
4.280435390758092
4.292744335088111
4.305053279418103
4.3112077515831135
4.305053279418103
4.3112077515831135
4.292744335088111
4.298898807253093
4.3112077515831135
4.305053279418103
4.3173622237481215
4.3173622237481215
4.3112077515831135
4.354289056738125
4.421988250553122
4.397370361893111
4.3173622237481215
4.261971974263091
4.249663029933098
4.292744335088111
4.298898807253093
4.3112077515831135
4.3112077515831135
4.3173622237481215
4.329671168078114
4.329671168078114
4.335825640243124
4.3173622237481215
4.3112077515831135
4.329671168078114
4.335825640243124
4.335825640243124
4.348134584573115
4.354289056738125
4.428142722718132
4.452760611378115
4.391215889728128
4.329671168078114
4.280435390758092
4.305053279418103
4.335825640243124
4.354289056738125
4.354289056738125
4.360443528903107
4.360443528903107
4.354289056738125
4.360443528903107
4.354289056738125
4.354289056738125
4.360443528903107
4.341980112408105
4.348134584573115
4.348134584573115
4.354289056738125
4.354289056738125
4.348134584573115
4.348134584573115
4.341980112408105
4.329671168078114
4.3173622237481215
4.3173622237481215
4.305053279418103
4.298898807253093
4.298898807253093
4.305053279418103
4.298898807253093
4.298898807253093
4.298898807253093
4.2865898629231
4.292744335088111
4.280435390758092
4.2865898629231
4.298898807253093
4.298898807253093
4.2865898629231
4.292744335088111
4.292744335088111
4.2865898629231
4.2865898629231
4.2865898629231
4.280435390758092
4.2865898629231
4.280435390758092
4.292744335088111
4.366598001068117
4.3727524732331275
4.335825640243124
4.2681264464281
4.212736196943095
4.225045141273086
4.249663029933098
4.2681264464281
4.2865898629231
4.292744335088111
4.298898807253093
4.292744335088111
4.2865898629231
4.280435390758092
4.2865898629231
4.305053279418103
4.3112077515831135
4.3173622237481215
4.305053279418103
4.305053279418103
4.305053279418103
4.292744335088111
4.292744335088111
4.3112077515831135
4.298898807253093
4.298898807253093
4.298898807253093
4.305053279418103
4.305053279418103
4.305053279418103
4.305053279418103
4.305053279418103
4.305053279418103
4.298898807253093
4.298898807253093
4.3112077515831135
4.360443528903107
4.421988250553122
4.366598001068117
4.3112077515831135
4.249663029933098
4.249663029933098
4.2681264464281
4.2865898629231
4.2865898629231
4.298898807253093
4.298898807253093
4.305053279418103
4.305053279418103
4.298898807253093
4.298898807253093
4.298898807253093
4.3112077515831135
4.3173622237481215
4.3173622237481215
4.323516695913104
4.323516695913104
4.354289056738125
4.415833778388112
4.3727524732331275
4.2865898629231
4.237354085603107
4.237354085603107
4.2681264464281
4.292744335088111
4.2865898629231
4.298898807253093
4.305053279418103
4.305053279418103
4.305053279418103
4.3173622237481215
4.3727524732331275
4.391215889728128
4.348134584573115
4.2865898629231
4.255817502098108
4.27428091859311
4.2865898629231
4.292744335088111
4.305053279418103
4.305053279418103
4.3112077515831135
4.3173622237481215
4.3173622237481215
4.3173622237481215
4.329671168078114
4.329671168078114
4.3173622237481215
4.323516695913104
4.360443528903107
4.40352483405812
4.335825640243124
4.280435390758092
4.255817502098108
4.261971974263091
4.292744335088111
4.298898807253093
4.305053279418103
4.3173622237481215
4.329671168078114
4.3173622237481215
4.3173622237481215
4.323516695913104
4.323516695913104
4.3173622237481215
4.329671168078114
4.329671168078114
4.341980112408105
4.335825640243124
4.329671168078114
4.40352483405812
4.434297194883113
4.37890694539811
4.3112077515831135
4.2681264464281
4.2681264464281
4.292744335088111
4.3112077515831135
4.329671168078114
4.341980112408105
4.348134584573115
4.354289056738125
4.341980112408105
4.348134584573115
4.366598001068117
4.360443528903107
4.360443528903107
4.360443528903107
4.360443528903107
4.37890694539811
4.458915083543125
4.421988250553122
4.360443528903107
4.3112077515831135
4.292744335088111
4.3173622237481215
4.335825640243124
4.335825640243124
4.341980112408105
4.348134584573115
4.335825640243124
4.329671168078114
4.3112077515831135
4.3112077515831135
4.3112077515831135
4.305053279418103
4.323516695913104
4.3173622237481215
4.3173622237481215
4.3173622237481215
4.3173622237481215
4.3173622237481215
4.323516695913104
4.323516695913104
4.323516695913104
4.3173622237481215
4.385061417563119
4.440451667048122
4.37890694539811
4.3173622237481215
4.249663029933098
4.255817502098108
4.2865898629231
4.298898807253093
4.305053279418103
4.298898807253093
4.305053279418103
4.305053279418103
4.305053279418103
4.298898807253093
4.305053279418103
4.298898807253093
4.323516695913104
4.415833778388112
4.526614277358149
4.606622415503137
4.625085831998166
4.6004679433381535
4.477378500038126
4.3727524732331275
4.305053279418103
4.2681264464281
4.27428091859311
4.305053279418103
4.292744335088111
4.3112077515831135
4.280435390758092
4.261971974263091
4.366598001068117
4.440451667048122
4.391215889728128
4.3173622237481215
4.249663029933098
4.249663029933098
4.261971974263091
4.261971974263091
4.2865898629231
4.292744335088111
4.2865898629231
4.298898807253093
4.298898807253093
4.3173622237481215
4.3112077515831135
4.305053279418103
4.305053279418103
4.3112077515831135
4.323516695913104
4.3112077515831135
4.292744335088111
4.3112077515831135
4.40967930622313
4.397370361893111
4.348134584573115
4.280435390758092
4.237354085603107
4.261971974263091
4.292744335088111
4.292744335088111
4.305053279418103
4.3112077515831135
4.3112077515831135
4.329671168078114
4.341980112408105
4.329671168078114
4.329671168078114
4.366598001068117
4.434297194883113
4.40352483405812
4.329671168078114
4.280435390758092
4.2681264464281
4.292744335088111
4.3173622237481215
4.329671168078114
4.348134584573115
4.354289056738125
4.354289056738125
4.348134584573115
4.354289056738125
4.360443528903107
4.360443528903107
4.354289056738125
4.366598001068117
4.3727524732331275
4.3727524732331275
4.366598001068117
4.360443528903107
4.360443528903107
4.440451667048122
4.465069555708134
4.40352483405812
4.341980112408105
4.27428091859311
4.292744335088111
4.323516695913104
4.335825640243124
4.354289056738125
4.354289056738125
4.348134584573115
4.341980112408105
4.341980112408105
4.335825640243124
4.323516695913104
4.305053279418103
4.305053279418103
4.329671168078114
4.421988250553122
4.40967930622313
4.335825640243124
4.261971974263091
4.237354085603107
4.261971974263091
4.2681264464281
4.27428091859311
4.298898807253093
4.305053279418103
4.298898807253093
4.298898807253093
4.298898807253093
4.3112077515831135
4.3173622237481215
4.3173622237481215
4.323516695913104
4.3173622237481215
4.3173622237481215
4.3112077515831135
4.354289056738125
4.428142722718132
4.37890694539811
4.305053279418103
4.249663029933098
4.237354085603107
4.27428091859311
4.2865898629231
4.292744335088111
4.292744335088111
4.298898807253093
4.3112077515831135
4.3112077515831135
4.3112077515831135
4.3173622237481215
4.3112077515831135
4.305053279418103
4.298898807253093
4.261971974263091
4.305053279418103
4.3173622237481215
4.323516695913104
4.329671168078114
4.335825640243124
4.335825640243124
4.40967930622313
4.40967930622313
4.360443528903107
4.292744335088111
4.249663029933098
4.255817502098108
4.2865898629231
4.292744335088111
4.298898807253093
4.298898807253093
4.305053279418103
4.305053279418103
4.3173622237481215
4.323516695913104
4.292744335088111
4.298898807253093
4.3727524732331275
4.3727524732331275
4.329671168078114
4.280435390758092
4.255817502098108
4.292744335088111
4.3112077515831135
4.3173622237481215
4.3173622237481215
4.3173622237481215
4.3112077515831135
4.3173622237481215
4.323516695913104
4.329671168078114
4.323516695913104
4.329671168078114
4.323516695913104
4.3173622237481215
4.385061417563119
4.415833778388112
4.360443528903107
4.2865898629231
4.243508557768089
4.2681264464281
4.305053279418103
4.3173622237481215
4.323516695913104
4.323516695913104
4.329671168078114
4.329671168078114
4.3173622237481215
4.323516695913104
4.329671168078114
4.323516695913104
4.323516695913104
4.3112077515831135
4.323516695913104
4.341980112408105
4.354289056738125
4.341980112408105
4.40352483405812
4.440451667048122
4.385061417563119
4.305053279418103
4.261971974263091
4.280435390758092
4.305053279418103
4.3112077515831135
4.3112077515831135
4.3112077515831135
4.3112077515831135
4.305053279418103
4.3112077515831135
4.323516695913104
4.329671168078114
4.391215889728128
4.440451667048122
4.366598001068117
4.280435390758092
4.237354085603107
4.27428091859311
4.3173622237481215
4.329671168078114
4.329671168078114
4.329671168078114
4.335825640243124
4.335825640243124
4.335825640243124
4.329671168078114
4.341980112408105
4.348134584573115
4.335825640243124
4.335825640243124
4.335825640243124
4.348134584573115
4.341980112408105
4.341980112408105
4.341980112408105
4.335825640243124
4.341980112408105
4.428142722718132
4.421988250553122
4.348134584573115
4.2865898629231
4.2681264464281
4.292744335088111
4.292744335088111
4.329671168078114
4.329671168078114
4.348134584573115
4.348134584573115
4.341980112408105
4.341980112408105
4.348134584573115
4.335825640243124
4.335825640243124
4.354289056738125
4.428142722718132
4.471224027873144
4.397370361893111
4.341980112408105
4.292744335088111
4.292744335088111
4.3173622237481215
4.329671168078114
4.335825640243124
4.335825640243124
4.341980112408105
4.341980112408105
4.348134584573115
4.341980112408105
4.391215889728128
4.421988250553122
4.354289056738125
4.292744335088111
4.2681264464281
4.298898807253093
4.3112077515831135
4.3173622237481215
4.329671168078114
4.323516695913104
4.329671168078114
4.341980112408105
4.341980112408105
4.348134584573115
4.329671168078114
4.329671168078114
4.329671168078114
4.323516695913104
4.329671168078114
4.335825640243124
4.335825640243124
4.329671168078114
4.360443528903107
4.428142722718132
4.37890694539811
4.298898807253093
4.231199613438097
4.255817502098108
4.354289056738125
4.483532972203136
4.5820045268431535
4.631240304163148
4.625085831998166
4.5327687495231315
4.40967930622313
4.335825640243124
4.298898807253093
4.3173622237481215
4.341980112408105
4.335825640243124
4.329671168078114
4.335825640243124
4.329671168078114
4.323516695913104
4.323516695913104
4.323516695913104
4.323516695913104
4.3112077515831135
4.323516695913104
4.391215889728128
4.40967930622313
4.348134584573115
4.2681264464281
4.225045141273086
4.255817502098108
4.280435390758092
4.292744335088111
4.2865898629231
4.280435390758092
4.298898807253093
4.3173622237481215
4.329671168078114
4.3173622237481215
4.348134584573115
4.348134584573115
4.335825640243124
4.341980112408105
4.335825640243124
4.335825640243124
4.323516695913104
4.3112077515831135
4.3173622237481215
4.3173622237481215
4.3173622237481215
4.354289056738125
4.421988250553122
4.385061417563119
4.329671168078114
4.27428091859311
4.261971974263091
4.298898807253093
4.305053279418103
4.292744335088111
4.292744335088111
4.298898807253093
4.323516695913104
4.335825640243124
4.37890694539811
4.452760611378115
4.434297194883113
4.3727524732331275
4.305053279418103
4.3112077515831135
4.335825640243124
4.348134584573115
4.354289056738125
4.354289056738125
4.360443528903107
4.360443528903107
4.366598001068117
4.360443528903107
4.354289056738125
4.348134584573115
4.329671168078114
4.341980112408105
4.3727524732331275
4.37890694539811
4.37890694539811
4.37890694539811
4.391215889728128
4.434297194883113
4.440451667048122
4.366598001068117
4.2865898629231
4.27428091859311
4.298898807253093
4.3112077515831135
4.305053279418103
4.3112077515831135
4.305053279418103
4.354289056738125
4.415833778388112
4.37890694539811
4.305053279418103
4.243508557768089
4.237354085603107
4.2681264464281
4.292744335088111
4.305053279418103
4.3112077515831135
4.298898807253093
4.298898807253093
4.292744335088111
4.298898807253093
4.305053279418103
4.3173622237481215
4.305053279418103
4.305053279418103
4.305053279418103
4.341980112408105
4.415833778388112
4.366598001068117
4.2865898629231
4.212736196943095
4.212736196943095
4.231199613438097
4.261971974263091
4.280435390758092
4.298898807253093
4.3112077515831135
4.292744335088111
4.280435390758092
4.292744335088111
4.305053279418103
4.3173622237481215
4.3112077515831135
4.298898807253093
4.305053279418103
4.292744335088111
4.305053279418103
4.292744335088111
4.298898807253093
4.385061417563119
4.385061417563119
4.305053279418103
4.237354085603107
4.218890669108104
4.249663029933098
4.2681264464281
4.280435390758092
4.292744335088111
4.292744335088111
4.2865898629231
4.280435390758092
4.305053279418103
4.305053279418103
4.298898807253093
4.280435390758092
4.280435390758092
4.3727524732331275
4.3727524732331275
4.305053279418103
4.243508557768089
4.231199613438097
4.261971974263091
4.280435390758092
4.2865898629231
4.298898807253093
4.2865898629231
4.2865898629231
4.280435390758092
4.292744335088111
4.298898807253093
4.360443528903107
4.37890694539811
4.323516695913104
4.255817502098108
4.231199613438097
4.243508557768089
4.261971974263091
4.27428091859311
4.292744335088111
4.292744335088111
4.3112077515831135
4.3173622237481215
4.3173622237481215
4.305053279418103
4.3112077515831135
4.323516695913104
4.421988250553122
4.37890694539811
4.261971974263091
4.188118308283084
4.200427252613103
4.249663029933098
4.27428091859311
4.2865898629231
4.280435390758092
4.298898807253093
4.37890694539811
4.366598001068117
4.298898807253093
4.218890669108104
4.218890669108104
4.249663029933098
4.27428091859311
4.2865898629231
4.280435390758092
4.2865898629231
4.292744335088111
4.2865898629231
4.255817502098108
4.2065817247780855
4.243508557768089
4.27428091859311
4.3727524732331275
4.348134584573115
4.261971974263091
4.2065817247780855
4.212736196943095
4.249663029933098
4.261971974263091
4.261971974263091
4.249663029933098
4.249663029933098
4.243508557768089
4.231199613438097
4.231199613438097
4.243508557768089
4.249663029933098
4.2681264464281
4.360443528903107
4.341980112408105
4.27428091859311
4.212736196943095
4.231199613438097
4.261971974263091
4.27428091859311
4.2681264464281
4.255817502098108
4.249663029933098
4.261971974263091
4.348134584573115
4.3727524732331275
4.305053279418103
4.200427252613103
4.1758093639530935
4.225045141273086
4.249663029933098
4.27428091859311
4.280435390758092
4.27428091859311
4.255817502098108
4.261971974263091
4.2681264464281
4.2865898629231
4.2865898629231
4.292744335088111
4.2865898629231
4.2865898629231
4.292744335088111
4.2865898629231
4.292744335088111
4.366598001068117
4.385061417563119
4.305053279418103
4.2065817247780855
4.169654891788083
4.200427252613103
4.212736196943095
4.1942727804480935
4.188118308283084
4.200427252613103
4.218890669108104
4.237354085603107
4.255817502098108
4.27428091859311
4.27428091859311
4.305053279418103
4.37890694539811
4.329671168078114
4.237354085603107
4.1758093639530935
4.188118308283084
4.212736196943095
4.218890669108104
4.2065817247780855
4.200427252613103
4.218890669108104
4.243508557768089
4.243508557768089
4.249663029933098
4.231199613438097
4.231199613438097
4.212736196943095
4.218890669108104
4.231199613438097
4.231199613438097
4.243508557768089
4.243508557768089
4.255817502098108
4.397370361893111
4.520459805193139
4.514305333028129
4.471224027873144
4.434297194883113
4.385061417563119
4.3112077515831135
4.231199613438097
4.1758093639530935
4.188118308283084
4.2065817247780855
4.225045141273086
4.3173622237481215
4.354289056738125
4.27428091859311
4.188118308283084
4.157345947458091
4.181963836118102
4.1942727804480935
4.218890669108104
4.225045141273086
4.225045141273086
4.225045141273086
4.212736196943095
4.212736196943095
4.2681264464281
4.348134584573115
4.292744335088111
4.212736196943095
4.157345947458091
4.1942727804480935
4.243508557768089
4.255817502098108
4.237354085603107
4.255817502098108
4.249663029933098
4.231199613438097
4.212736196943095
4.200427252613103
4.212736196943095
4.255817502098108
4.2681264464281
4.27428091859311
4.323516695913104
4.348134584573115
4.27428091859311
4.249663029933098
4.188118308283084
4.12657358663307
4.225045141273086
4.261971974263091
4.255817502098108
4.249663029933098
4.237354085603107
4.2065817247780855
4.249663029933098
4.27428091859311
4.27428091859311
4.2681264464281
4.335825640243124
4.360443528903107
4.280435390758092
4.2065817247780855
4.1942727804480935
4.237354085603107
4.261971974263091
4.27428091859311
4.2865898629231
4.280435390758092
4.27428091859311
4.2681264464281
4.27428091859311
4.280435390758092
4.298898807253093
4.3727524732331275
4.323516695913104
4.225045141273086
4.1942727804480935
4.243508557768089
4.292744335088111
4.305053279418103
4.305053279418103
4.2865898629231
4.280435390758092
4.27428091859311
4.2681264464281
4.243508557768089
4.231199613438097
4.231199613438097
4.243508557768089
4.261971974263091
4.261971974263091
4.249663029933098
4.249663029933098
4.243508557768089
4.243508557768089
4.231199613438097
4.218890669108104
4.231199613438097
4.231199613438097
4.237354085603107
4.231199613438097
4.231199613438097
4.225045141273086
4.212736196943095
4.218890669108104
4.280435390758092
4.335825640243124
4.2865898629231
4.188118308283084
4.120419114468088
4.151191475293081
4.188118308283084
4.200427252613103
4.212736196943095
4.231199613438097
4.237354085603107
4.298898807253093
4.397370361893111
4.329671168078114
4.225045141273086
4.157345947458091
4.163500419623101
4.2065817247780855
4.249663029933098
4.2681264464281
4.280435390758092
4.280435390758092
4.280435390758092
4.261971974263091
4.237354085603107
4.218890669108104
4.231199613438097
4.255817502098108
4.27428091859311
4.280435390758092
4.335825640243124
4.40967930622313
4.354289056738125
4.2681264464281
4.2065817247780855
4.231199613438097
4.255817502098108
4.255817502098108
4.261971974263091
4.2681264464281
4.280435390758092
4.292744335088111
4.2681264464281
4.261971974263091
4.2681264464281
4.27428091859311
4.27428091859311
4.261971974263091
4.243508557768089
4.237354085603107
4.341980112408105
4.366598001068117
4.298898807253093
4.188118308283084
4.163500419623101
4.218890669108104
4.255817502098108
4.2681264464281
4.27428091859311
4.280435390758092
4.2865898629231
4.292744335088111
4.2865898629231
4.2865898629231
4.27428091859311
4.2681264464281
4.249663029933098
4.243508557768089
4.255817502098108
4.354289056738125
4.354289056738125
4.292744335088111
4.200427252613103
4.200427252613103
4.231199613438097
4.255817502098108
4.2681264464281
4.27428091859311
4.2681264464281
4.27428091859311
4.261971974263091
4.249663029933098
4.237354085603107
4.237354085603107
4.255817502098108
4.27428091859311
4.292744335088111
4.292744335088111
4.27428091859311
4.2681264464281
4.341980112408105
4.354289056738125
4.2865898629231
4.218890669108104
4.212736196943095
4.249663029933098
4.261971974263091
4.261971974263091
4.261971974263091
4.249663029933098
4.261971974263091
4.261971974263091
4.2681264464281
4.2865898629231
4.292744335088111
4.305053279418103
4.37890694539811
4.3727524732331275
4.27428091859311
4.1942727804480935
4.181963836118102
4.243508557768089
4.27428091859311
4.292744335088111
4.261971974263091
4.255817502098108
4.280435390758092
4.2865898629231
4.305053279418103
4.391215889728128
4.40352483405812
4.323516695913104
4.237354085603107
4.225045141273086
4.249663029933098
4.2681264464281
4.27428091859311
4.2681264464281
4.280435390758092
4.292744335088111
4.298898807253093
4.3112077515831135
4.323516695913104
4.366598001068117
4.440451667048122
4.391215889728128
4.3112077515831135
4.249663029933098
4.2681264464281
4.280435390758092
4.2865898629231
4.292744335088111
4.305053279418103
4.292744335088111
4.27428091859311
4.2865898629231
4.348134584573115
4.329671168078114
4.27428091859311
4.237354085603107
4.249663029933098
4.255817502098108
4.27428091859311
4.292744335088111
4.292744335088111
4.292744335088111
4.305053279418103
4.305053279418103
4.298898807253093
4.280435390758092
4.2681264464281
4.27428091859311
4.280435390758092
4.37890694539811
4.40352483405812
4.329671168078114
4.243508557768089
4.212736196943095
4.237354085603107
4.243508557768089
4.218890669108104
4.200427252613103
4.243508557768089
4.27428091859311
4.298898807253093
4.348134584573115
4.440451667048122
4.54507769385315
4.637394776328158
4.717402914473173
4.6004679433381535
4.391215889728128
4.255817502098108
4.212736196943095
4.243508557768089
4.261971974263091
4.255817502098108
4.261971974263091
4.280435390758092
4.2865898629231
4.292744335088111
4.3112077515831135
4.2865898629231
4.27428091859311
4.261971974263091
4.249663029933098
4.255817502098108
4.2681264464281
4.2865898629231
4.385061417563119
4.415833778388112
4.348134584573115
4.249663029933098
4.218890669108104
4.249663029933098
4.2681264464281
4.2865898629231
4.280435390758092
4.280435390758092
4.280435390758092
4.280435390758092
4.2681264464281
4.255817502098108
4.27428091859311
4.37890694539811
