4.2681264464281
4.27428091859311
4.2681264464281
4.261971974263091
4.200427252613103
4.280435390758092
4.280435390758092
4.255817502098108
4.2681264464281
4.2681264464281
4.280435390758092
4.280435390758092
4.2681264464281
4.2681264464281
4.2681264464281
4.2681264464281
4.2865898629231
4.280435390758092
4.292744335088111
4.2865898629231
4.2865898629231
4.2865898629231
4.2865898629231
4.2865898629231
4.298898807253093
4.292744335088111
4.292744335088111
4.292744335088111
4.292744335088111
4.292744335088111
4.2865898629231
4.292744335088111
4.292744335088111
4.298898807253093
4.298898807253093
4.305053279418103
4.298898807253093
4.305053279418103
4.305053279418103
4.305053279418103
4.305053279418103
4.3112077515831135
4.3173622237481215
4.3173622237481215
4.3112077515831135
4.3112077515831135
4.3112077515831135
4.3173622237481215
4.323516695913104
4.3173622237481215
4.323516695913104
4.3173622237481215
4.323516695913104
4.323516695913104
4.3173622237481215
4.323516695913104
4.323516695913104
4.323516695913104
4.329671168078114
4.3173622237481215
4.3112077515831135
4.305053279418103
4.305053279418103
4.305053279418103
4.298898807253093
4.305053279418103
4.2865898629231
4.280435390758092
4.292744335088111
4.280435390758092
4.280435390758092
4.280435390758092
4.27428091859311
4.280435390758092
4.280435390758092
4.27428091859311
4.27428091859311
4.2681264464281
4.2681264464281
4.280435390758092
4.280435390758092
4.27428091859311
4.2681264464281
4.2681264464281
4.2681264464281
4.2681264464281
4.27428091859311
4.2681264464281
4.2681264464281
4.27428091859311
4.2681264464281
4.2681264464281
4.261971974263091
4.261971974263091
4.2681264464281
4.27428091859311
4.2681264464281
4.280435390758092
4.2681264464281
4.27428091859311
4.261971974263091
4.261971974263091
4.27428091859311
4.2681264464281
4.2681264464281
4.2681264464281
4.2681264464281
4.2681264464281
4.261971974263091
4.27428091859311
4.280435390758092
4.280435390758092
4.27428091859311
4.27428091859311
4.280435390758092
4.27428091859311
4.27428091859311
4.280435390758092
4.27428091859311
4.280435390758092
4.27428091859311
4.2681264464281
4.2681264464281
4.2681264464281
4.2681264464281
4.249663029933098
4.1942727804480935
4.2681264464281
4.280435390758092
4.280435390758092
4.280435390758092
4.2681264464281
4.255817502098108
4.255817502098108
4.2681264464281
4.2681264464281
4.2681264464281
4.2681264464281
4.27428091859311
4.2681264464281
4.255817502098108
4.2681264464281
4.27428091859311
4.2681264464281
4.261971974263091
4.27428091859311
4.27428091859311
4.2681264464281
4.2681264464281
4.2681264464281
4.2681264464281
4.2681264464281
4.27428091859311
4.2681264464281
4.27428091859311
4.261971974263091
4.27428091859311
4.27428091859311
4.27428091859311
4.27428091859311
4.280435390758092
4.261971974263091
4.237354085603107
4.249663029933098
4.2681264464281
4.280435390758092
4.292744335088111
4.2865898629231
4.2865898629231
4.2865898629231
4.280435390758092
4.2681264464281
4.280435390758092
4.27428091859311
4.280435390758092
4.280435390758092
4.27428091859311
4.280435390758092
4.280435390758092
4.280435390758092
4.2865898629231
4.2865898629231
4.27428091859311
4.280435390758092
4.2865898629231
4.280435390758092
4.280435390758092
4.280435390758092
4.2865898629231
4.2865898629231
4.298898807253093
4.305053279418103
4.292744335088111
4.292744335088111
4.292744335088111
4.298898807253093
4.3112077515831135
4.3173622237481215
4.3173622237481215
4.3173622237481215
4.292744335088111
4.2865898629231
4.2865898629231
4.298898807253093
4.305053279418103
4.298898807253093
4.292744335088111
4.2865898629231
4.280435390758092
4.280435390758092
4.2065817247780855
4.243508557768089
4.2865898629231
4.280435390758092
4.2865898629231
4.2865898629231
4.280435390758092
4.2681264464281
4.255817502098108
4.261971974263091
4.261971974263091
4.27428091859311
4.27428091859311
4.27428091859311
4.280435390758092
4.27428091859311
4.280435390758092
4.280435390758092
4.280435390758092
4.2865898629231
4.280435390758092
4.2865898629231
4.27428091859311
4.2681264464281
4.261971974263091
4.255817502098108
4.27428091859311
4.329671168078114
4.428142722718132
4.526614277358149
4.5820045268431535
4.588158999008135
4.526614277358149
4.421988250553122
4.335825640243124
4.27428091859311
4.261971974263091
4.261971974263091
4.200427252613103
4.2681264464281
4.27428091859311
4.280435390758092
4.292744335088111
4.292744335088111
4.2865898629231
4.2865898629231
4.2865898629231
4.2681264464281
4.27428091859311
4.27428091859311
4.27428091859311
4.27428091859311
4.280435390758092
4.280435390758092
4.280435390758092
4.280435390758092
4.280435390758092
4.280435390758092
4.2865898629231
4.280435390758092
4.280435390758092
4.2865898629231
4.280435390758092
4.280435390758092
4.2865898629231
4.298898807253093
4.292744335088111
4.298898807253093
4.292744335088111
4.292744335088111
4.292744335088111
4.292744335088111
4.298898807253093
4.298898807253093
4.292744335088111
4.292744335088111
4.292744335088111
4.292744335088111
4.292744335088111
4.292744335088111
4.298898807253093
4.305053279418103
4.305053279418103
4.3112077515831135
4.3112077515831135
4.298898807253093
4.305053279418103
4.305053279418103
4.3112077515831135
4.3112077515831135
4.3112077515831135
4.3173622237481215
4.3173622237481215
4.3173622237481215
4.3173622237481215
4.323516695913104
4.329671168078114
4.323516695913104
4.329671168078114
4.329671168078114
4.335825640243124
4.329671168078114
4.341980112408105
4.341980112408105
4.341980112408105
4.335825640243124
4.341980112408105
4.335825640243124
4.341980112408105
4.329671168078114
4.323516695913104
4.329671168078114
4.329671168078114
4.323516695913104
4.3112077515831135
4.298898807253093
4.2865898629231
4.2865898629231
4.292744335088111
4.2865898629231
4.2865898629231
4.2865898629231
4.2865898629231
4.280435390758092
4.2865898629231
4.280435390758092
4.27428091859311
4.280435390758092
4.280435390758092
4.2865898629231
4.2865898629231
4.292744335088111
4.2865898629231
4.280435390758092
4.280435390758092
4.292744335088111
4.292744335088111
4.292744335088111
4.292744335088111
4.292744335088111
4.298898807253093
4.292744335088111
4.292744335088111
4.292744335088111
4.292744335088111
4.305053279418103
4.292744335088111
4.305053279418103
4.298898807253093
4.292744335088111
4.305053279418103
4.305053279418103
4.298898807253093
4.292744335088111
4.305053279418103
4.298898807253093
4.3112077515831135
4.298898807253093
4.3112077515831135
4.292744335088111
4.225045141273086
4.305053279418103
4.3173622237481215
4.3112077515831135
4.292744335088111
4.280435390758092
4.292744335088111
4.305053279418103
4.305053279418103
4.305053279418103
4.292744335088111
4.292744335088111
4.292744335088111
4.298898807253093
4.305053279418103
4.298898807253093
4.305053279418103
4.305053279418103
4.298898807253093
4.292744335088111
4.292744335088111
4.298898807253093
4.298898807253093
4.305053279418103
4.298898807253093
4.305053279418103
4.298898807253093
4.305053279418103
4.298898807253093
4.305053279418103
4.292744335088111
4.305053279418103
4.298898807253093
4.305053279418103
4.305053279418103
4.298898807253093
4.292744335088111
4.305053279418103
4.305053279418103
4.3112077515831135
4.3112077515831135
4.305053279418103
4.3112077515831135
4.298898807253093
4.298898807253093
4.298898807253093
4.305053279418103
4.3173622237481215
4.305053279418103
4.3112077515831135
4.305053279418103
4.305053279418103
4.305053279418103
4.305053279418103
4.305053279418103
4.3112077515831135
4.3112077515831135
4.3112077515831135
4.305053279418103
4.305053279418103
4.298898807253093
4.305053279418103
4.3112077515831135
4.3112077515831135
4.323516695913104
4.323516695913104
4.3173622237481215
4.305053279418103
4.3112077515831135
4.323516695913104
4.3112077515831135
4.3173622237481215
4.3112077515831135
4.3173622237481215
4.3112077515831135
4.3112077515831135
4.3112077515831135
4.3173622237481215
4.3112077515831135
4.3112077515831135
4.3173622237481215
4.3173622237481215
4.3112077515831135
4.3112077515831135
4.3112077515831135
4.323516695913104
4.3112077515831135
4.323516695913104
4.3112077515831135
4.3173622237481215
4.3112077515831135
4.3112077515831135
4.329671168078114
4.329671168078114
4.329671168078114
4.329671168078114
4.323516695913104
4.323516695913104
4.329671168078114
4.335825640243124
4.335825640243124
4.335825640243124
4.329671168078114
4.3173622237481215
4.3173622237481215
4.3112077515831135
4.3112077515831135
4.3112077515831135
4.305053279418103
4.305053279418103
4.305053279418103
4.298898807253093
4.298898807253093
4.2865898629231
4.2865898629231
4.2865898629231
4.2865898629231
4.298898807253093
4.2865898629231
4.298898807253093
4.292744335088111
4.27428091859311
4.200427252613103
4.2865898629231
4.292744335088111
4.305053279418103
4.305053279418103
4.298898807253093
4.298898807253093
4.2865898629231
4.27428091859311
4.2865898629231
4.280435390758092
4.280435390758092
4.280435390758092
4.280435390758092
4.27428091859311
4.261971974263091
4.261971974263091
4.2865898629231
4.335825640243124
4.428142722718132
4.526614277358149
4.588158999008135
4.5943134711731455
4.526614277358149
4.40967930622313
4.323516695913104
4.255817502098108
4.261971974263091
4.280435390758092
4.2865898629231
4.292744335088111
4.231199613438097
4.27428091859311
4.3112077515831135
4.305053279418103
4.298898807253093
4.292744335088111
4.292744335088111
4.2865898629231
4.261971974263091
4.2681264464281
4.280435390758092
4.2865898629231
4.292744335088111
4.2865898629231
4.2865898629231
4.2865898629231
4.2865898629231
4.298898807253093
4.298898807253093
4.298898807253093
4.292744335088111
4.298898807253093
4.298898807253093
4.2865898629231
4.292744335088111
4.298898807253093
4.292744335088111
4.292744335088111
4.298898807253093
4.298898807253093
4.292744335088111
4.292744335088111
4.298898807253093
4.292744335088111
4.292744335088111
4.298898807253093
4.3112077515831135
4.305053279418103
4.3112077515831135
4.298898807253093
4.305053279418103
4.3112077515831135
4.3173622237481215
4.3112077515831135
4.3112077515831135
4.3112077515831135
4.3173622237481215
4.3173622237481215
4.3173622237481215
4.323516695913104
4.3173622237481215
4.323516695913104
4.323516695913104
4.323516695913104
4.329671168078114
4.323516695913104
4.329671168078114
4.335825640243124
4.335825640243124
4.329671168078114
4.329671168078114
4.335825640243124
4.341980112408105
4.329671168078114
4.341980112408105
4.335825640243124
4.335825640243124
4.329671168078114
4.329671168078114
4.329671168078114
4.323516695913104
4.3173622237481215
4.3173622237481215
4.3173622237481215
4.305053279418103
4.298898807253093
4.280435390758092
4.280435390758092
4.27428091859311
4.27428091859311
4.280435390758092
4.280435390758092
4.2681264464281
4.280435390758092
4.280435390758092
4.27428091859311
4.2681264464281
4.27428091859311
4.2681264464281
4.2681264464281
4.261971974263091
4.2065817247780855
4.280435390758092
4.2865898629231
4.255817502098108
4.261971974263091
4.27428091859311
4.280435390758092
4.280435390758092
4.280435390758092
4.280435390758092
4.27428091859311
4.27428091859311
4.27428091859311
4.27428091859311
4.27428091859311
4.2865898629231
4.2865898629231
4.280435390758092
4.2865898629231
4.2865898629231
4.280435390758092
4.280435390758092
4.292744335088111
4.2865898629231
4.280435390758092
4.2865898629231
4.2865898629231
4.2865898629231
4.2865898629231
4.280435390758092
4.292744335088111
4.292744335088111
4.280435390758092
4.280435390758092
4.27428091859311
4.280435390758092
4.280435390758092
4.27428091859311
4.27428091859311
4.2865898629231
4.2865898629231
4.27428091859311
4.27428091859311
4.280435390758092
4.27428091859311
4.27428091859311
4.27428091859311
4.280435390758092
4.280435390758092
4.280435390758092
4.280435390758092
4.27428091859311
4.280435390758092
4.2865898629231
4.2865898629231
4.280435390758092
4.27428091859311
4.280435390758092
4.27428091859311
4.27428091859311
4.27428091859311
4.280435390758092
4.2865898629231
4.280435390758092
4.292744335088111
4.280435390758092
4.27428091859311
4.280435390758092
4.27428091859311
4.27428091859311
4.280435390758092
4.27428091859311
4.27428091859311
4.2681264464281
4.280435390758092
4.27428091859311
4.27428091859311
4.27428091859311
4.27428091859311
4.27428091859311
4.27428091859311
4.2681264464281
4.27428091859311
4.280435390758092
4.280435390758092
4.27428091859311
4.27428091859311
4.280435390758092
4.27428091859311
4.27428091859311
4.280435390758092
4.280435390758092
4.2865898629231
4.292744335088111
4.292744335088111
4.292744335088111
4.2865898629231
4.2865898629231
4.2865898629231
4.280435390758092
4.280435390758092
4.2865898629231
4.292744335088111
4.280435390758092
4.2865898629231
4.27428091859311
4.2865898629231
4.280435390758092
4.280435390758092
4.280435390758092
4.292744335088111
4.292744335088111
4.2865898629231
4.298898807253093
4.305053279418103
4.3112077515831135
4.305053279418103
4.298898807253093
4.3112077515831135
4.305053279418103
4.305053279418103
4.298898807253093
4.237354085603107
4.305053279418103
4.3112077515831135
4.305053279418103
4.298898807253093
4.298898807253093
4.2681264464281
4.27428091859311
4.280435390758092
4.280435390758092
4.2681264464281
4.27428091859311
4.2681264464281
4.261971974263091
4.255817502098108
4.261971974263091
4.2681264464281
4.261971974263091
4.2681264464281
4.2681264464281
4.27428091859311
4.2681264464281
4.2681264464281
4.2681264464281
4.2681264464281
4.27428091859311
4.27428091859311
4.27428091859311
4.2681264464281
4.261971974263091
4.261971974263091
4.261971974263091
4.27428091859311
4.261971974263091
4.255817502098108
4.255817502098108
4.249663029933098
4.237354085603107
4.249663029933098
4.3112077515831135
4.40352483405812
4.501996388698137
4.563541110348153
4.569695582513134
4.501996388698137
4.385061417563119
4.292744335088111
4.237354085603107
4.237354085603107
4.249663029933098
4.243508557768089
4.255817502098108
4.261971974263091
4.261971974263091
4.261971974263091
4.261971974263091
4.255817502098108
4.255817502098108
4.261971974263091
4.249663029933098
4.255817502098108
4.249663029933098
4.249663029933098
4.255817502098108
4.255817502098108
4.261971974263091
4.255817502098108
4.255817502098108
4.249663029933098
4.249663029933098
4.249663029933098
4.261971974263091
4.261971974263091
4.261971974263091
4.261971974263091
4.261971974263091
4.261971974263091
4.255817502098108
4.255817502098108
4.2681264464281
4.261971974263091
4.27428091859311
4.261971974263091
4.27428091859311
4.261971974263091
4.2681264464281
4.2681264464281
4.2681264464281
4.261971974263091
4.2681264464281
4.27428091859311
4.2681264464281
4.261971974263091
4.2681264464281
4.2681264464281
4.27428091859311
4.280435390758092
4.280435390758092
4.280435390758092
4.27428091859311
4.200427252613103
4.255817502098108
4.292744335088111
4.2865898629231
4.2865898629231
4.292744335088111
4.292744335088111
4.292744335088111
4.27428091859311
4.2865898629231
4.2865898629231
4.2865898629231
4.2865898629231
4.298898807253093
4.298898807253093
4.298898807253093
4.298898807253093
4.305053279418103
4.292744335088111
4.298898807253093
4.298898807253093
4.280435390758092
4.212736196943095
4.2681264464281
4.2681264464281
4.2681264464281
4.2681264464281
4.2681264464281
4.261971974263091
4.255817502098108
4.249663029933098
4.249663029933098
4.249663029933098
4.243508557768089
4.243508557768089
4.243508557768089
4.249663029933098
4.249663029933098
4.249663029933098
4.237354085603107
4.249663029933098
4.243508557768089
4.243508557768089
4.249663029933098
4.243508557768089
4.237354085603107
4.237354085603107
4.231199613438097
4.243508557768089
4.237354085603107
4.237354085603107
4.243508557768089
4.243508557768089
4.237354085603107
4.237354085603107
4.237354085603107
4.243508557768089
4.237354085603107
4.237354085603107
4.243508557768089
4.249663029933098
4.243508557768089
4.249663029933098
4.243508557768089
4.243508557768089
4.255817502098108
4.255817502098108
4.249663029933098
4.249663029933098
4.255817502098108
4.249663029933098
4.255817502098108
4.249663029933098
4.255817502098108
4.255817502098108
4.255817502098108
4.255817502098108
4.261971974263091
4.255817502098108
4.249663029933098
4.249663029933098
4.249663029933098
4.249663029933098
4.249663029933098
4.261971974263091
4.255817502098108
4.255817502098108
4.249663029933098
4.261971974263091
4.261971974263091
4.255817502098108
4.255817502098108
4.261971974263091
4.255817502098108
4.249663029933098
4.261971974263091
4.255817502098108
4.255817502098108
4.255817502098108
4.2681264464281
4.261971974263091
4.261971974263091
4.255817502098108
4.2681264464281
4.261971974263091
4.261971974263091
4.2681264464281
4.2681264464281
4.2681264464281
4.261971974263091
4.2681264464281
4.2681264464281
4.2681264464281
4.2681264464281
4.261971974263091
4.261971974263091
4.2681264464281
4.2681264464281
4.261971974263091
4.27428091859311
4.27428091859311
4.2681264464281
4.261971974263091
4.2681264464281
4.261971974263091
4.261971974263091
4.2681264464281
4.2681264464281
4.2681264464281
4.27428091859311
4.2681264464281
4.2681264464281
4.2681264464281
4.2681264464281
4.27428091859311
4.280435390758092
4.280435390758092
4.27428091859311
4.27428091859311
4.27428091859311
4.280435390758092
4.27428091859311
4.280435390758092
4.2681264464281
4.212736196943095
4.2865898629231
4.292744335088111
4.280435390758092
4.280435390758092
4.261971974263091
4.27428091859311
4.280435390758092
4.2865898629231
4.2865898629231
4.280435390758092
4.280435390758092
4.280435390758092
4.27428091859311
4.2865898629231
4.298898807253093
4.2865898629231
4.2865898629231
4.292744335088111
4.2865898629231
4.280435390758092
4.292744335088111
4.305053279418103
4.298898807253093
4.298898807253093
4.298898807253093
4.298898807253093
4.3112077515831135
4.298898807253093
4.305053279418103
4.3173622237481215
4.3173622237481215
4.3112077515831135
4.3112077515831135
4.298898807253093
4.298898807253093
4.298898807253093
4.305053279418103
4.298898807253093
4.298898807253093
4.298898807253093
4.292744335088111
4.292744335088111
4.280435390758092
4.27428091859311
4.2865898629231
4.2865898629231
4.292744335088111
4.2865898629231
4.2865898629231
4.292744335088111
4.292744335088111
4.2865898629231
4.298898807253093
4.292744335088111
4.292744335088111
4.292744335088111
4.292744335088111
4.292744335088111
4.292744335088111
4.2865898629231
4.298898807253093
4.2865898629231
4.2865898629231
4.292744335088111
4.292744335088111
4.27428091859311
4.261971974263091
4.27428091859311
4.2865898629231
4.354289056738125
4.452760611378115
4.551232166018132
4.6004679433381535
4.6004679433381535
4.520459805193139
4.40967930622313
4.329671168078114
4.2681264464281
4.27428091859311
4.27428091859311
4.292744335088111
4.298898807253093
4.292744335088111
4.298898807253093
4.298898807253093
4.292744335088111
4.292744335088111
4.298898807253093
4.298898807253093
4.292744335088111
4.292744335088111
4.298898807253093
4.292744335088111
4.292744335088111
4.292744335088111
4.292744335088111
4.298898807253093
4.298898807253093
4.292744335088111
4.305053279418103
4.305053279418103
4.305053279418103
4.305053279418103
4.3112077515831135
4.305053279418103
4.298898807253093
4.298898807253093
4.3112077515831135
4.305053279418103
4.305053279418103
4.3112077515831135
4.3173622237481215
4.3112077515831135
4.305053279418103
4.3112077515831135
4.3173622237481215
4.3112077515831135
4.3173622237481215
4.3112077515831135
4.3112077515831135
4.298898807253093
4.231199613438097
4.3112077515831135
4.323516695913104
4.329671168078114
4.329671168078114
4.329671168078114
4.329671168078114
4.3173622237481215
4.305053279418103
4.3173622237481215
4.323516695913104
4.323516695913104
4.329671168078114
4.323516695913104
4.335825640243124
4.329671168078114
4.335825640243124
4.335825640243124
4.335825640243124
4.335825640243124
4.341980112408105
4.348134584573115
4.348134584573115
4.341980112408105
4.341980112408105
4.348134584573115
4.354289056738125
4.348134584573115
4.341980112408105
4.341980112408105
4.348134584573115
4.335825640243124
4.329671168078114
4.335825640243124
4.329671168078114
4.323516695913104
4.3112077515831135
4.305053279418103
4.305053279418103
4.298898807253093
4.298898807253093
4.298898807253093
4.298898807253093
4.2865898629231
4.292744335088111
4.292744335088111
4.280435390758092
4.200427252613103
4.2681264464281
4.305053279418103
4.298898807253093
4.298898807253093
4.292744335088111
4.2865898629231
4.2865898629231
4.2681264464281
4.280435390758092
4.280435390758092
4.280435390758092
4.280435390758092
4.2865898629231
4.292744335088111
4.2865898629231
4.280435390758092
4.292744335088111
4.280435390758092
4.2865898629231
4.292744335088111
4.292744335088111
4.292744335088111
4.280435390758092
4.280435390758092
4.2865898629231
4.292744335088111
4.2865898629231
4.298898807253093
4.292744335088111
4.298898807253093
4.2865898629231
4.2865898629231
4.298898807253093
4.2865898629231
4.2865898629231
4.292744335088111
4.292744335088111
4.298898807253093
4.280435390758092
4.298898807253093
4.292744335088111
4.298898807253093
4.292744335088111
4.298898807253093
4.292744335088111
4.292744335088111
4.2865898629231
4.298898807253093
4.298898807253093
4.298898807253093
4.292744335088111
4.298898807253093
4.292744335088111
4.292744335088111
4.2865898629231
4.298898807253093
4.305053279418103
4.298898807253093
4.305053279418103
4.292744335088111
4.298898807253093
4.2865898629231
4.280435390758092
4.298898807253093
4.298898807253093
4.298898807253093
4.298898807253093
4.292744335088111
4.298898807253093
4.2865898629231
4.292744335088111
4.298898807253093
4.298898807253093
4.2865898629231
4.231199613438097
4.292744335088111
4.305053279418103
4.280435390758092
4.2865898629231
4.292744335088111
4.2865898629231
4.292744335088111
4.292744335088111
4.292744335088111
4.298898807253093
4.292744335088111
4.292744335088111
4.298898807253093
4.305053279418103
4.305053279418103
4.305053279418103
4.305053279418103
4.305053279418103
4.298898807253093
4.305053279418103
4.298898807253093
4.298898807253093
4.298898807253093
4.305053279418103
4.298898807253093
4.298898807253093
4.298898807253093
4.305053279418103
4.292744335088111
4.2865898629231
4.292744335088111
4.292744335088111
4.305053279418103
4.2865898629231
4.292744335088111
4.298898807253093
4.305053279418103
4.305053279418103
4.3112077515831135
4.305053279418103
4.298898807253093
4.292744335088111
4.298898807253093
4.305053279418103
4.3112077515831135
4.298898807253093
4.3112077515831135
4.3112077515831135
4.3112077515831135
4.305053279418103
4.323516695913104
4.3173622237481215
4.323516695913104
4.3173622237481215
4.323516695913104
4.323516695913104
4.329671168078114
4.323516695913104
4.329671168078114
4.323516695913104
4.3173622237481215
4.3112077515831135
4.3173622237481215
4.3173622237481215
4.305053279418103
4.305053279418103
4.298898807253093
4.298898807253093
4.305053279418103
4.292744335088111
4.292744335088111
4.2865898629231
4.2865898629231
4.280435390758092
4.292744335088111
4.2865898629231
4.298898807253093
4.292744335088111
4.292744335088111
4.298898807253093
4.292744335088111
4.298898807253093
4.305053279418103
4.298898807253093
4.298898807253093
4.292744335088111
4.298898807253093
4.305053279418103
4.292744335088111
4.305053279418103
4.298898807253093
4.298898807253093
4.292744335088111
4.292744335088111
4.2865898629231
4.2865898629231
4.305053279418103
4.385061417563119
4.483532972203136
4.575850054678144
4.612776887668146
4.6004679433381535
4.514305333028129
4.391215889728128
4.3173622237481215
4.280435390758092
4.2865898629231
4.292744335088111
4.305053279418103
4.3112077515831135
4.3173622237481215
4.329671168078114
4.3112077515831135
4.3112077515831135
4.3173622237481215
4.3173622237481215
4.3112077515831135
4.305053279418103
4.305053279418103
4.305053279418103
4.2865898629231
4.243508557768089
4.305053279418103
4.323516695913104
4.3112077515831135
4.3173622237481215
4.3173622237481215
4.292744335088111
4.292744335088111
4.305053279418103
4.305053279418103
4.3173622237481215
4.3173622237481215
4.3173622237481215
4.323516695913104
4.323516695913104
4.323516695913104
4.3173622237481215
4.323516695913104
4.323516695913104
4.329671168078114
4.323516695913104
4.329671168078114
4.323516695913104
4.335825640243124
4.329671168078114
4.335825640243124
4.341980112408105
4.335825640243124
4.341980112408105
4.335825640243124
4.329671168078114
4.335825640243124
4.341980112408105
4.341980112408105
4.348134584573115
4.348134584573115
4.341980112408105
4.348134584573115
4.341980112408105
4.348134584573115
4.354289056738125
4.360443528903107
4.360443528903107
4.360443528903107
4.360443528903107
4.360443528903107
4.360443528903107
4.3727524732331275
4.360443528903107
4.366598001068117
4.366598001068117
4.3727524732331275
4.366598001068117
4.366598001068117
4.366598001068117
4.3727524732331275
4.366598001068117
4.366598001068117
4.360443528903107
4.360443528903107
4.360443528903107
4.348134584573115
4.348134584573115
4.341980112408105
4.348134584573115
4.335825640243124
4.335825640243124
4.323516695913104
4.323516695913104
4.3173622237481215
4.3173622237481215
4.323516695913104
4.3173622237481215
4.3173622237481215
4.3173622237481215
4.3173622237481215
4.305053279418103
4.3112077515831135
4.3112077515831135
4.305053279418103
4.3112077515831135
4.3112077515831135
4.305053279418103
4.305053279418103
4.305053279418103
4.305053279418103
4.3112077515831135
4.3112077515831135
4.305053279418103
4.305053279418103
4.3112077515831135
4.305053279418103
4.298898807253093
4.305053279418103
4.305053279418103
4.305053279418103
4.3112077515831135
4.3173622237481215
4.305053279418103
4.3112077515831135
4.305053279418103
4.3112077515831135
4.3173622237481215
4.3173622237481215
4.3112077515831135
4.3112077515831135
4.3173622237481215
4.3173622237481215
4.3112077515831135
4.3112077515831135
4.323516695913104
4.3173622237481215
4.3173622237481215
4.3173622237481215
4.3173622237481215
4.305053279418103
4.243508557768089
4.3112077515831135
4.329671168078114
4.323516695913104
4.323516695913104
4.298898807253093
4.225045141273086
4.3173622237481215
4.292744335088111
4.298898807253093
4.305053279418103
4.3112077515831135
4.3112077515831135
4.3173622237481215
4.3112077515831135
4.3112077515831135
4.3112077515831135
4.323516695913104
4.323516695913104
4.3173622237481215
4.323516695913104
4.3173622237481215
4.3173622237481215
4.3112077515831135
4.3173622237481215
4.3173622237481215
4.323516695913104
4.3173622237481215
4.323516695913104
4.3173622237481215
4.323516695913104
4.323516695913104
4.323516695913104
4.3173622237481215
4.3173622237481215
4.323516695913104
4.323516695913104
4.329671168078114
4.323516695913104
4.323516695913104
4.323516695913104
4.323516695913104
4.329671168078114
4.329671168078114
4.329671168078114
4.323516695913104
4.329671168078114
4.3173622237481215
4.323516695913104
4.323516695913104
4.323516695913104
4.329671168078114
4.323516695913104
4.329671168078114
4.329671168078114
4.329671168078114
4.323516695913104
4.323516695913104
4.3112077515831135
4.305053279418103
4.323516695913104
4.335825640243124
4.329671168078114
4.329671168078114
4.335825640243124
4.329671168078114
4.329671168078114
4.329671168078114
4.329671168078114
4.329671168078114
4.329671168078114
4.323516695913104
4.323516695913104
4.329671168078114
4.329671168078114
4.323516695913104
4.329671168078114
4.329671168078114
4.323516695913104
4.323516695913104
4.323516695913104
4.335825640243124
4.329671168078114
4.329671168078114
4.341980112408105
4.341980112408105
4.341980112408105
4.341980112408105
4.348134584573115
4.354289056738125
4.341980112408105
4.348134584573115
4.341980112408105
4.335825640243124
4.341980112408105
4.335825640243124
4.329671168078114
4.335825640243124
4.335825640243124
4.335825640243124
4.329671168078114
4.323516695913104
4.3173622237481215
4.323516695913104
4.3173622237481215
4.3173622237481215
4.3112077515831135
4.3112077515831135
4.3112077515831135
4.3112077515831135
4.3173622237481215
4.3112077515831135
4.3173622237481215
4.3173622237481215
4.3173622237481215
4.3173622237481215
4.3112077515831135
4.305053279418103
4.305053279418103
4.3112077515831135
4.3112077515831135
4.3112077515831135
4.3112077515831135
4.3112077515831135
4.3112077515831135
4.305053279418103
4.3173622237481215
4.292744335088111
4.225045141273086
4.292744335088111
4.305053279418103
4.335825640243124
4.415833778388112
4.501996388698137
4.588158999008135
4.618931359833156
4.6004679433381535
4.483532972203136
4.37890694539811
4.3112077515831135
4.27428091859311
4.2865898629231
4.305053279418103
4.3112077515831135
4.3112077515831135
4.3173622237481215
4.323516695913104
4.3173622237481215
4.3112077515831135
4.3112077515831135
4.305053279418103
4.305053279418103
4.305053279418103
4.3112077515831135
4.305053279418103
4.305053279418103
4.3112077515831135
4.3112077515831135
4.305053279418103
4.3112077515831135
4.3112077515831135
4.3173622237481215
4.3112077515831135
4.3112077515831135
4.3112077515831135
4.3112077515831135
4.3112077515831135
4.3173622237481215
4.3173622237481215
4.3112077515831135
4.3112077515831135
4.323516695913104
4.3173622237481215
4.3173622237481215
4.329671168078114
4.329671168078114
4.329671168078114
4.323516695913104
4.329671168078114
4.329671168078114
4.329671168078114
4.329671168078114
4.335825640243124
4.329671168078114
4.329671168078114
4.329671168078114
4.329671168078114
4.323516695913104
4.329671168078114
4.335825640243124
4.335825640243124
4.323516695913104
4.348134584573115
4.341980112408105
4.335825640243124
4.335825640243124
4.341980112408105
4.348134584573115
4.348134584573115
4.348134584573115
4.348134584573115
4.360443528903107
4.366598001068117
4.360443528903107
4.360443528903107
4.360443528903107
4.354289056738125
4.360443528903107
4.354289056738125
4.360443528903107
4.354289056738125
4.354289056738125
4.360443528903107
4.354289056738125
4.348134584573115
4.341980112408105
4.341980112408105
4.329671168078114
4.323516695913104
4.3112077515831135
4.3173622237481215
4.3173622237481215
4.3173622237481215
4.305053279418103
4.305053279418103
4.298898807253093
4.292744335088111
4.2865898629231
4.298898807253093
4.2865898629231
4.298898807253093
4.298898807253093
4.292744335088111
4.298898807253093
4.298898807253093
4.298898807253093
4.305053279418103
4.305053279418103
4.305053279418103
4.298898807253093
4.298898807253093
4.298898807253093
4.2865898629231
4.2865898629231
4.292744335088111
4.298898807253093
4.298898807253093
4.292744335088111
4.292744335088111
4.27428091859311
4.212736196943095
4.292744335088111
4.298898807253093
4.292744335088111
4.298898807253093
4.305053279418103
4.3112077515831135
4.292744335088111
4.280435390758092
4.280435390758092
4.2865898629231
4.298898807253093
4.292744335088111
4.298898807253093
4.298898807253093
4.2865898629231
4.292744335088111
4.292744335088111
4.298898807253093
4.298898807253093
4.305053279418103
4.298898807253093
4.298898807253093
4.292744335088111
4.292744335088111
4.305053279418103
4.298898807253093
4.305053279418103
4.292744335088111
4.298898807253093
4.298898807253093
4.292744335088111
4.292744335088111
4.2865898629231
4.2865898629231
4.298898807253093
4.292744335088111
4.292744335088111
4.298898807253093
4.2865898629231
4.298898807253093
4.292744335088111
4.292744335088111
4.292744335088111
4.298898807253093
4.298898807253093
4.305053279418103
4.298898807253093
4.298898807253093
4.298898807253093
4.305053279418103
4.298898807253093
4.298898807253093
4.292744335088111
4.298898807253093
4.2865898629231
4.298898807253093
4.298898807253093
4.298898807253093
4.305053279418103
4.305053279418103
4.305053279418103
4.2865898629231
4.225045141273086
4.292744335088111
4.3112077515831135
4.305053279418103
4.3112077515831135
4.3112077515831135
4.298898807253093
4.292744335088111
4.27428091859311
4.292744335088111
4.2865898629231
4.292744335088111
4.298898807253093
4.298898807253093
4.292744335088111
4.292744335088111
4.298898807253093
4.298898807253093
4.292744335088111
4.305053279418103
4.292744335088111
4.305053279418103
4.298898807253093
4.292744335088111
4.305053279418103
4.298898807253093
4.305053279418103
4.3112077515831135
4.305053279418103
4.305053279418103
4.298898807253093
4.298898807253093
4.3112077515831135
4.3112077515831135
4.3112077515831135
4.305053279418103
4.305053279418103
4.305053279418103
4.298898807253093
4.298898807253093
4.292744335088111
4.305053279418103
4.298898807253093
4.298898807253093
4.3112077515831135
4.3112077515831135
4.305053279418103
4.3173622237481215
4.3173622237481215
4.3173622237481215
4.3112077515831135
4.329671168078114
4.341980112408105
4.341980112408105
4.335825640243124
4.335825640243124
4.335825640243124
4.323516695913104
4.298898807253093
4.249663029933098
4.3112077515831135
4.323516695913104
4.298898807253093
4.292744335088111
4.298898807253093
4.298898807253093
4.2865898629231
4.292744335088111
4.2865898629231
4.292744335088111
4.280435390758092
4.2865898629231
4.292744335088111
4.2865898629231
4.298898807253093
4.2865898629231
4.2865898629231
4.280435390758092
4.280435390758092
4.292744335088111
4.292744335088111
4.292744335088111
4.2865898629231
4.292744335088111
4.298898807253093
4.2865898629231
4.2865898629231
4.2865898629231
4.298898807253093
4.2865898629231
4.280435390758092
4.27428091859311
4.280435390758092
4.27428091859311
4.323516695913104
4.421988250553122
4.526614277358149
4.5943134711731455
4.6004679433381535
4.557386638183142
4.440451667048122
4.341980112408105
4.27428091859311
4.2681264464281
4.280435390758092
4.292744335088111
4.298898807253093
4.298898807253093
4.298898807253093
4.292744335088111
4.298898807253093
4.292744335088111
4.298898807253093
4.292744335088111
4.292744335088111
4.292744335088111
4.292744335088111
4.292744335088111
4.298898807253093
4.305053279418103
4.298898807253093
4.292744335088111
4.292744335088111
4.305053279418103
4.292744335088111
4.2865898629231
4.292744335088111
4.305053279418103
4.298898807253093
4.298898807253093
4.292744335088111
4.305053279418103
4.298898807253093
4.292744335088111
4.3112077515831135
4.3112077515831135
4.305053279418103
4.305053279418103
4.3112077515831135
4.3112077515831135
4.3112077515831135
4.305053279418103
4.3112077515831135
4.3173622237481215
4.3112077515831135
4.3173622237481215
4.3173622237481215
4.323516695913104
4.323516695913104
4.3173622237481215
4.323516695913104
4.329671168078114
4.329671168078114
4.329671168078114
4.335825640243124
4.329671168078114
4.329671168078114
4.335825640243124
4.335825640243124
4.335825640243124
4.341980112408105
4.329671168078114
4.335825640243124
4.360443528903107
4.354289056738125
4.354289056738125
4.354289056738125
4.354289056738125
4.329671168078114
4.329671168078114
4.341980112408105
4.335825640243124
4.335825640243124
4.348134584573115
4.341980112408105
4.341980112408105
4.341980112408105
4.335825640243124
4.329671168078114
4.323516695913104
4.305053279418103
4.249663029933098
4.3173622237481215
4.323516695913104
4.3112077515831135
4.3112077515831135
4.305053279418103
4.280435390758092
4.2681264464281
4.280435390758092
4.2865898629231
4.280435390758092
4.280435390758092
4.280435390758092
4.27428091859311
4.2681264464281
4.27428091859311
4.27428091859311
4.2865898629231
4.280435390758092
4.27428091859311
4.280435390758092
4.280435390758092
4.27428091859311
4.280435390758092
4.27428091859311
4.27428091859311
4.2865898629231
4.280435390758092
4.2865898629231
4.280435390758092
4.27428091859311
4.27428091859311
4.2865898629231
4.280435390758092
4.27428091859311
4.27428091859311
4.280435390758092
4.280435390758092
4.280435390758092
4.305053279418103
4.292744335088111
4.2865898629231
4.292744335088111
4.27428091859311
4.280435390758092
4.27428091859311
4.27428091859311
4.27428091859311
4.280435390758092
4.2865898629231
4.280435390758092
4.280435390758092
4.280435390758092
4.280435390758092
4.27428091859311
4.2865898629231
4.280435390758092
4.280435390758092
4.280435390758092
4.280435390758092
4.2865898629231
4.280435390758092
4.280435390758092
4.280435390758092
4.2865898629231
4.2865898629231
4.280435390758092
4.2865898629231
4.27428091859311
4.2681264464281
4.27428091859311
4.27428091859311
4.280435390758092
4.27428091859311
4.280435390758092
4.280435390758092
4.27428091859311
4.27428091859311
4.280435390758092
4.280435390758092
4.27428091859311
4.2865898629231
4.280435390758092
4.280435390758092
4.280435390758092
4.280435390758092
4.280435390758092
4.280435390758092
4.280435390758092
4.292744335088111
4.2865898629231
4.292744335088111
4.2865898629231
4.280435390758092
4.2865898629231
4.2865898629231
4.280435390758092
4.2865898629231
4.292744335088111
4.292744335088111
4.2865898629231
4.2865898629231
4.292744335088111
4.2865898629231
4.2865898629231
4.292744335088111
4.292744335088111
4.298898807253093
4.292744335088111
4.292744335088111
4.298898807253093
4.298898807253093
4.292744335088111
4.292744335088111
4.298898807253093
4.305053279418103
4.292744335088111
4.298898807253093
4.298898807253093
4.298898807253093
4.305053279418103
4.292744335088111
4.237354085603107
4.298898807253093
4.280435390758092
4.298898807253093
4.305053279418103
4.305053279418103
4.292744335088111
4.298898807253093
4.3112077515831135
4.2865898629231
4.225045141273086
4.305053279418103
4.3112077515831135
4.3173622237481215
4.3173622237481215
4.323516695913104
4.3173622237481215
4.305053279418103
4.292744335088111
4.3112077515831135
4.3173622237481215
4.323516695913104
4.329671168078114
4.323516695913104
4.329671168078114
4.3112077515831135
4.3112077515831135
4.3112077515831135
4.3112077515831135
4.305053279418103
4.3112077515831135
4.298898807253093
4.305053279418103
4.292744335088111
4.292744335088111
4.292744335088111
4.292744335088111
4.2865898629231
4.2865898629231
4.2865898629231
4.2865898629231
4.27428091859311
4.280435390758092
4.2865898629231
4.2865898629231
4.2865898629231
4.2865898629231
4.292744335088111
4.280435390758092
4.280435390758092
4.2865898629231
4.2865898629231
4.2865898629231
4.292744335088111
4.2865898629231
4.2865898629231
4.292744335088111
4.2865898629231
4.280435390758092
4.27428091859311
4.280435390758092
4.280435390758092
4.305053279418103
4.391215889728128
4.483532972203136
4.563541110348153
4.6004679433381535
4.588158999008135
4.489687444368147
4.385061417563119
4.298898807253093
4.255817502098108
4.27428091859311
4.27428091859311
4.298898807253093
4.298898807253093
4.3112077515831135
4.3112077515831135
4.305053279418103
4.305053279418103
4.305053279418103
4.298898807253093
4.298898807253093
4.298898807253093
4.305053279418103
4.305053279418103
4.305053279418103
4.292744335088111
4.298898807253093
4.3112077515831135
4.3173622237481215
4.3112077515831135
4.3112077515831135
4.305053279418103
4.3112077515831135
4.3112077515831135
4.3112077515831135
4.3112077515831135
4.3173622237481215
4.305053279418103
4.305053279418103
4.305053279418103
4.305053279418103
4.3112077515831135
4.305053279418103
4.305053279418103
4.3112077515831135
4.3112077515831135
4.3112077515831135
4.323516695913104
4.3173622237481215
4.3112077515831135
4.3173622237481215
4.323516695913104
4.323516695913104
4.329671168078114
4.323516695913104
4.335825640243124
4.329671168078114
4.323516695913104
4.329671168078114
4.3112077515831135
4.2681264464281
4.329671168078114
4.341980112408105
4.348134584573115
4.341980112408105
4.3173622237481215
4.323516695913104
4.329671168078114
4.335825640243124
4.341980112408105
4.348134584573115
4.348134584573115
4.341980112408105
4.341980112408105
4.348134584573115
4.354289056738125
4.354289056738125
4.348134584573115
4.348134584573115
4.348134584573115
4.341980112408105
4.341980112408105
4.354289056738125
4.348134584573115
4.348134584573115
4.341980112408105
4.335825640243124
4.329671168078114
4.3173622237481215
4.3173622237481215
4.3173622237481215
4.3112077515831135
4.305053279418103
4.305053279418103
4.298898807253093
4.305053279418103
4.292744335088111
4.2865898629231
4.292744335088111
4.2865898629231
4.2865898629231
4.298898807253093
4.292744335088111
4.2865898629231
4.280435390758092
4.292744335088111
4.292744335088111
4.2865898629231
4.2865898629231
4.280435390758092
4.2865898629231
4.280435390758092
4.280435390758092
4.280435390758092
4.280435390758092
4.280435390758092
4.292744335088111
4.292744335088111
4.2865898629231
4.280435390758092
4.2865898629231
4.2865898629231
4.2865898629231
4.2865898629231
4.298898807253093
4.292744335088111
4.292744335088111
4.2865898629231
4.2865898629231
4.2865898629231
4.292744335088111
4.2865898629231
4.2865898629231
4.2865898629231
4.2865898629231
4.2865898629231
4.280435390758092
4.2865898629231
4.292744335088111
4.292744335088111
4.292744335088111
4.298898807253093
4.2865898629231
4.2865898629231
4.2865898629231
4.292744335088111
4.2865898629231
4.280435390758092
4.292744335088111
4.2865898629231
4.2865898629231
4.2865898629231
4.292744335088111
4.292744335088111
4.2865898629231
4.2865898629231
4.2865898629231
4.280435390758092
4.2865898629231
4.2865898629231
4.280435390758092
4.2865898629231
4.280435390758092
4.2865898629231
4.2865898629231
4.298898807253093
4.292744335088111
4.280435390758092
4.2865898629231
4.2865898629231
4.2865898629231
4.292744335088111
4.292744335088111
4.292744335088111
4.2865898629231
4.292744335088111
4.292744335088111
4.292744335088111
4.292744335088111
4.292744335088111
4.298898807253093
4.280435390758092
4.218890669108104
4.280435390758092
4.305053279418103
4.292744335088111
4.298898807253093
4.305053279418103
4.292744335088111
4.298898807253093
4.27428091859311
4.27428091859311
4.2865898629231
4.2865898629231
4.292744335088111
4.2865898629231
4.298898807253093
4.292744335088111
4.2865898629231
4.292744335088111
4.292744335088111
4.292744335088111
4.305053279418103
4.298898807253093
4.292744335088111
4.298898807253093
4.298898807253093
4.298898807253093
4.305053279418103
4.298898807253093
4.305053279418103
4.305053279418103
4.298898807253093
4.298898807253093
4.2865898629231
4.292744335088111
4.298898807253093
4.305053279418103
4.298898807253093
4.3112077515831135
4.305053279418103
4.3112077515831135
4.3112077515831135
4.305053279418103
4.305053279418103
4.3112077515831135
4.323516695913104
4.323516695913104
4.323516695913104
4.3173622237481215
4.3173622237481215
4.3173622237481215
4.3112077515831135
4.305053279418103
4.305053279418103
4.298898807253093
4.305053279418103
4.298898807253093
4.292744335088111
4.292744335088111
4.2865898629231
4.298898807253093
4.292744335088111
4.292744335088111
4.280435390758092
4.280435390758092
4.298898807253093
4.292744335088111
4.280435390758092
4.2865898629231
4.298898807253093
4.305053279418103
4.298898807253093
4.280435390758092
4.292744335088111
4.2865898629231
4.305053279418103
4.292744335088111
4.292744335088111
4.298898807253093
4.2865898629231
4.225045141273086
4.292744335088111
4.2865898629231
4.280435390758092
4.280435390758092
4.27428091859311
4.298898807253093
4.366598001068117
4.452760611378115
4.569695582513134
4.5943134711731455
4.563541110348153
4.465069555708134
4.366598001068117
4.280435390758092
4.243508557768089
4.2681264464281
4.280435390758092
4.27428091859311
4.261971974263091
4.2681264464281
4.280435390758092
4.2681264464281
4.27428091859311
4.27428091859311
4.280435390758092
4.261971974263091
4.249663029933098
4.243508557768089
4.237354085603107
4.218890669108104
4.218890669108104
4.237354085603107
4.249663029933098
4.255817502098108
4.255817502098108
4.249663029933098
4.261971974263091
4.261971974263091
4.261971974263091
4.249663029933098
4.243508557768089
4.231199613438097
4.188118308283084
4.255817502098108
4.280435390758092
4.27428091859311
4.237354085603107
4.249663029933098
4.2681264464281
4.2681264464281
4.27428091859311
4.280435390758092
4.292744335088111
4.292744335088111
4.280435390758092
4.27428091859311
4.2865898629231
4.2865898629231
4.292744335088111
4.2865898629231
4.292744335088111
4.298898807253093
4.292744335088111
4.292744335088111
4.305053279418103
4.3112077515831135
4.3173622237481215
4.298898807253093
4.305053279418103
4.3112077515831135
4.3112077515831135
4.3112077515831135
4.3112077515831135
4.3173622237481215
4.3112077515831135
4.323516695913104
4.341980112408105
4.341980112408105
4.323516695913104
4.329671168078114
4.329671168078114
4.341980112408105
4.341980112408105
4.329671168078114
4.329671168078114
4.335825640243124
4.341980112408105
4.335825640243124
4.329671168078114
4.335825640243124
4.323516695913104
4.3173622237481215
4.298898807253093
4.298898807253093
4.305053279418103
4.305053279418103
4.305053279418103
4.305053279418103
4.298898807253093
4.27428091859311
4.261971974263091
4.2681264464281
4.292744335088111
4.280435390758092
4.27428091859311
4.27428091859311
4.280435390758092
4.280435390758092
4.280435390758092
4.27428091859311
4.2681264464281
4.27428091859311
4.280435390758092
4.2681264464281
4.2681264464281
4.27428091859311
4.261971974263091
4.280435390758092
4.280435390758092
4.2681264464281
4.2681264464281
4.2681264464281
4.27428091859311
4.27428091859311
4.255817502098108
4.2681264464281
4.27428091859311
4.27428091859311
4.280435390758092
4.2681264464281
4.2681264464281
4.27428091859311
4.280435390758092
4.280435390758092
4.27428091859311
4.27428091859311
4.27428091859311
4.2865898629231
4.292744335088111
4.280435390758092
4.2865898629231
4.292744335088111
4.280435390758092
4.280435390758092
4.292744335088111
4.2865898629231
4.292744335088111
4.27428091859311
4.280435390758092
4.280435390758092
4.292744335088111
4.292744335088111
4.280435390758092
4.280435390758092
4.2865898629231
4.280435390758092
4.298898807253093
4.305053279418103
4.292744335088111
4.298898807253093
4.298898807253093
4.292744335088111
4.292744335088111
4.27428091859311
4.225045141273086
4.298898807253093
4.305053279418103
4.305053279418103
4.298898807253093
4.305053279418103
4.292744335088111
4.27428091859311
4.292744335088111
4.292744335088111
4.2865898629231
4.292744335088111
4.298898807253093
4.3112077515831135
4.3173622237481215
4.305053279418103
4.298898807253093
4.298898807253093
4.3173622237481215
4.305053279418103
4.3173622237481215
4.3173622237481215
4.305053279418103
4.305053279418103
4.3112077515831135
4.323516695913104
4.3173622237481215
4.3112077515831135
4.305053279418103
4.3173622237481215
4.3112077515831135
4.3112077515831135
4.323516695913104
4.305053279418103
4.3112077515831135
4.305053279418103
4.3112077515831135
4.3112077515831135
4.3112077515831135
4.323516695913104
4.3112077515831135
4.3173622237481215
4.3112077515831135
4.3112077515831135
4.3112077515831135
4.3173622237481215
4.305053279418103
4.298898807253093
4.3173622237481215
4.329671168078114
4.3173622237481215
4.323516695913104
4.329671168078114
4.3173622237481215
4.3173622237481215
4.329671168078114
4.329671168078114
4.329671168078114
4.341980112408105
4.348134584573115
4.341980112408105
4.3173622237481215
4.3173622237481215
4.323516695913104
4.341980112408105
4.323516695913104
4.3173622237481215
4.323516695913104
4.323516695913104
4.3112077515831135
4.3112077515831135
4.305053279418103
4.298898807253093
4.3112077515831135
4.3112077515831135
4.3173622237481215
4.3173622237481215
4.305053279418103
4.298898807253093
4.3173622237481215
4.3173622237481215
4.3173622237481215
4.3173622237481215
4.323516695913104
4.3173622237481215
4.305053279418103
4.305053279418103
4.3112077515831135
4.305053279418103
4.3112077515831135
4.3173622237481215
4.323516695913104
4.3173622237481215
4.305053279418103
4.305053279418103
4.298898807253093
4.305053279418103
4.329671168078114
4.391215889728128
4.465069555708134
4.520459805193139
4.538923221688139
4.538923221688139
4.465069555708134
4.391215889728128
4.323516695913104
4.292744335088111
4.292744335088111
4.298898807253093
4.3112077515831135
4.323516695913104
4.3173622237481215
4.323516695913104
4.335825640243124
4.329671168078114
4.323516695913104
4.323516695913104
4.329671168078114
4.335825640243124
4.335825640243124
4.335825640243124
4.305053279418103
4.249663029933098
4.335825640243124
4.329671168078114
4.329671168078114
4.341980112408105
4.341980112408105
4.348134584573115
4.348134584573115
4.341980112408105
4.348134584573115
4.341980112408105
4.354289056738125
4.366598001068117
4.3727524732331275
4.366598001068117
4.360443528903107
4.366598001068117
4.360443528903107
4.360443528903107
4.360443528903107
4.366598001068117
4.366598001068117
4.37890694539811
4.3727524732331275
4.366598001068117
4.348134584573115
4.292744335088111
4.3727524732331275
4.37890694539811
4.3727524732331275
4.3727524732331275
4.385061417563119
4.391215889728128
4.366598001068117
4.348134584573115
4.366598001068117
4.3727524732331275
4.391215889728128
4.385061417563119
4.385061417563119
4.391215889728128
4.385061417563119
4.385061417563119
4.385061417563119
4.391215889728128
4.397370361893111
4.391215889728128
4.391215889728128
4.385061417563119
4.385061417563119
4.385061417563119
4.385061417563119
4.391215889728128
4.397370361893111
4.391215889728128
4.391215889728128
4.3727524732331275
4.37890694539811
4.37890694539811
4.37890694539811
4.37890694539811
4.354289056738125
4.354289056738125
4.354289056738125
4.348134584573115
4.341980112408105
4.341980112408105
4.341980112408105
4.341980112408105
4.341980112408105
4.335825640243124
4.335825640243124
4.323516695913104
4.323516695913104
4.335825640243124
4.329671168078114
4.335825640243124
4.323516695913104
4.323516695913104
4.329671168078114
4.329671168078114
4.329671168078114
4.329671168078114
4.329671168078114
4.329671168078114
4.323516695913104
4.3173622237481215
4.3173622237481215
4.3112077515831135
4.323516695913104
4.323516695913104
4.3173622237481215
4.323516695913104
4.323516695913104
4.323516695913104
4.323516695913104
4.323516695913104
4.329671168078114
4.323516695913104
4.323516695913104
4.329671168078114
4.329671168078114
4.329671168078114
4.329671168078114
4.329671168078114
4.335825640243124
4.329671168078114
4.341980112408105
4.341980112408105
4.341980112408105
4.341980112408105
4.335825640243124
4.329671168078114
4.335825640243124
4.341980112408105
4.341980112408105
4.341980112408105
4.335825640243124
4.348134584573115
4.335825640243124
4.341980112408105
4.335825640243124
4.2681264464281
4.335825640243124
4.360443528903107
4.360443528903107
4.360443528903107
4.335825640243124
4.335825640243124
4.354289056738125
4.366598001068117
4.3727524732331275
4.397370361893111
4.428142722718132
4.440451667048122
4.452760611378115
4.471224027873144
4.477378500038126
4.477378500038126
4.489687444368147
4.483532972203136
4.483532972203136
4.489687444368147
4.477378500038126
4.452760611378115
4.458915083543125
4.489687444368147
4.508150860863147
4.514305333028129
4.501996388698137
4.495841916533128
4.495841916533128
4.489687444368147
4.483532972203136
4.477378500038126
4.477378500038126
4.477378500038126
4.471224027873144
4.465069555708134
4.458915083543125
4.465069555708134
4.465069555708134
4.458915083543125
4.471224027873144
4.471224027873144
4.458915083543125
4.452760611378115
4.458915083543125
4.452760611378115
4.458915083543125
4.458915083543125
4.452760611378115
4.452760611378115
4.440451667048122
4.434297194883113
4.434297194883113
4.434297194883113
4.428142722718132
4.421988250553122
4.415833778388112
4.40967930622313
4.40352483405812
4.397370361893111
4.397370361893111
4.397370361893111
4.385061417563119
4.391215889728128
4.385061417563119
4.37890694539811
4.37890694539811
4.385061417563119
4.385061417563119
4.385061417563119
4.37890694539811
4.37890694539811
4.385061417563119
4.385061417563119
4.40352483405812
4.385061417563119
4.366598001068117
4.37890694539811
4.3727524732331275
4.37890694539811
4.3727524732331275
4.37890694539811
4.3727524732331275
4.366598001068117
4.360443528903107
4.354289056738125
4.354289056738125
4.360443528903107
4.415833778388112
4.501996388698137
4.588158999008135
4.637394776328158
4.655858192823159
4.606622415503137
4.514305333028129
4.434297194883113
4.366598001068117
4.360443528903107
4.360443528903107
4.3727524732331275
4.37890694539811
4.385061417563119
4.391215889728128
4.391215889728128
4.391215889728128
4.385061417563119
4.3727524732331275
4.385061417563119
4.385061417563119
4.40352483405812
4.40967930622313
4.421988250553122
4.421988250553122
4.440451667048122
4.458915083543125
4.508150860863147
4.508150860863147
4.526614277358149
4.563541110348153
4.5943134711731455
4.575850054678144
4.508150860863147
4.551232166018132
4.563541110348153
4.557386638183142
4.538923221688139
4.54507769385315
4.538923221688139
4.5327687495231315
4.526614277358149
4.5327687495231315
4.5327687495231315
4.5327687495231315
4.5327687495231315
4.526614277358149
4.526614277358149
4.514305333028129
4.501996388698137
4.508150860863147
4.501996388698137
4.495841916533128
4.477378500038126
4.471224027873144
4.458915083543125
4.452760611378115
4.440451667048122
4.440451667048122
4.434297194883113
4.421988250553122
4.428142722718132
4.421988250553122
4.40967930622313
4.40352483405812
4.40352483405812
4.397370361893111
4.397370361893111
4.391215889728128
4.391215889728128
4.37890694539811
4.385061417563119
4.3727524732331275
4.366598001068117
4.366598001068117
4.354289056738125
4.354289056738125
4.360443528903107
4.354289056738125
4.354289056738125
4.335825640243124
4.335825640243124
4.335825640243124
4.323516695913104
4.323516695913104
4.3112077515831135
4.305053279418103
4.292744335088111
4.27428091859311
4.27428091859311
4.27428091859311
4.261971974263091
4.2681264464281
4.261971974263091
4.255817502098108
4.255817502098108
4.243508557768089
4.255817502098108
4.243508557768089
4.243508557768089
4.243508557768089
4.243508557768089
4.249663029933098
4.243508557768089
4.243508557768089
4.249663029933098
4.249663029933098
4.249663029933098
4.243508557768089
4.249663029933098
4.249663029933098
4.237354085603107
4.237354085603107
4.243508557768089
4.237354085603107
4.243508557768089
4.237354085603107
4.237354085603107
4.237354085603107
4.243508557768089
4.237354085603107
4.237354085603107
4.231199613438097
4.237354085603107
4.237354085603107
4.237354085603107
4.243508557768089
4.212736196943095
4.169654891788083
4.243508557768089
4.243508557768089
4.243508557768089
4.243508557768089
4.243508557768089
4.243508557768089
4.218890669108104
4.225045141273086
4.231199613438097
4.237354085603107
4.231199613438097
4.243508557768089
4.243508557768089
4.243508557768089
4.237354085603107
4.237354085603107
4.243508557768089
4.237354085603107
4.237354085603107
4.243508557768089
4.243508557768089
4.243508557768089
4.237354085603107
4.243508557768089
4.237354085603107
4.218890669108104
4.169654891788083
4.243508557768089
4.255817502098108
4.237354085603107
4.218890669108104
4.237354085603107
4.237354085603107
4.237354085603107
4.237354085603107
4.243508557768089
4.237354085603107
4.237354085603107
4.231199613438097
4.243508557768089
4.237354085603107
4.249663029933098
4.243508557768089
4.243508557768089
4.249663029933098
4.237354085603107
4.237354085603107
4.249663029933098
4.255817502098108
4.249663029933098
4.249663029933098
4.249663029933098
4.249663029933098
4.243508557768089
4.255817502098108
4.243508557768089
4.243508557768089
4.255817502098108
4.249663029933098
4.255817502098108
4.255817502098108
4.249663029933098
4.255817502098108
4.255817502098108
4.255817502098108
4.255817502098108
4.255817502098108
4.261971974263091
4.255817502098108
4.249663029933098
4.255817502098108
4.261971974263091
4.261971974263091
4.2681264464281
4.2681264464281
4.261971974263091
4.249663029933098
4.255817502098108
4.255817502098108
4.2681264464281
4.261971974263091
4.261971974263091
4.261971974263091
4.27428091859311
4.27428091859311
4.27428091859311
4.280435390758092
4.280435390758092
4.27428091859311
4.27428091859311
4.2865898629231
4.280435390758092
4.27428091859311
4.292744335088111
4.2865898629231
4.280435390758092
4.280435390758092
4.27428091859311
4.2681264464281
4.27428091859311
4.261971974263091
4.27428091859311
4.261971974263091
4.261971974263091
4.261971974263091
4.255817502098108
4.243508557768089
4.249663029933098
4.249663029933098
4.243508557768089
4.249663029933098
4.249663029933098
4.255817502098108
4.249663029933098
4.249663029933098
4.243508557768089
4.255817502098108
4.255817502098108
4.243508557768089
4.243508557768089
4.249663029933098
4.249663029933098
4.255817502098108
4.255817502098108
4.243508557768089
4.237354085603107
4.243508557768089
4.237354085603107
4.231199613438097
4.225045141273086
4.231199613438097
4.218890669108104
4.2681264464281
4.360443528903107
4.458915083543125
4.54507769385315
4.563541110348153
4.526614277358149
4.40967930622313
4.3173622237481215
4.243508557768089
4.212736196943095
4.218890669108104
4.231199613438097
4.237354085603107
4.225045141273086
4.237354085603107
4.218890669108104
4.169654891788083
4.231199613438097
4.231199613438097
4.231199613438097
4.237354085603107
4.237354085603107
4.225045141273086
4.200427252613103
4.2065817247780855
4.212736196943095
4.225045141273086
4.218890669108104
4.231199613438097
4.231199613438097
4.225045141273086
4.225045141273086
4.231199613438097
4.225045141273086
4.237354085603107
4.231199613438097
4.237354085603107
4.237354085603107
4.237354085603107
4.225045141273086
4.231199613438097
4.225045141273086
4.218890669108104
4.225045141273086
4.225045141273086
4.237354085603107
4.237354085603107
4.243508557768089
4.261971974263091
4.255817502098108
4.255817502098108
4.261971974263091
4.255817502098108
4.261971974263091
4.255817502098108
4.249663029933098
4.243508557768089
4.249663029933098
4.255817502098108
4.261971974263091
4.261971974263091
4.2681264464281
4.27428091859311
4.280435390758092
4.2865898629231
4.280435390758092
4.27428091859311
4.280435390758092
4.2865898629231
4.2865898629231
4.280435390758092
4.2865898629231
4.2865898629231
4.27428091859311
4.27428091859311
4.280435390758092
4.292744335088111
4.2865898629231
4.280435390758092
4.2865898629231
4.292744335088111
4.298898807253093
4.292744335088111
4.292744335088111
4.2865898629231
4.280435390758092
4.27428091859311
4.2681264464281
4.261971974263091
4.255817502098108
4.249663029933098
4.249663029933098
4.255817502098108
4.243508557768089
4.249663029933098
4.237354085603107
4.243508557768089
4.237354085603107
4.243508557768089
4.243508557768089
4.243508557768089
4.243508557768089
4.249663029933098
4.249663029933098
4.249663029933098
4.255817502098108
4.243508557768089
4.249663029933098
4.255817502098108
4.243508557768089
4.249663029933098
4.249663029933098
4.249663029933098
4.243508557768089
4.255817502098108
4.261971974263091
4.255817502098108
4.243508557768089
4.255817502098108
4.255817502098108
4.261971974263091
4.255817502098108
4.249663029933098
4.255817502098108
4.249663029933098
4.255817502098108
4.255817502098108
4.255817502098108
4.261971974263091
4.261971974263091
4.261971974263091
4.261971974263091
4.255817502098108
4.255817502098108
4.255817502098108
4.261971974263091
4.261971974263091
4.243508557768089
4.188118308283084
4.261971974263091
4.261971974263091
4.249663029933098
4.255817502098108
4.27428091859311
4.27428091859311
4.2681264464281
4.27428091859311
4.2681264464281
4.261971974263091
4.255817502098108
4.261971974263091
4.255817502098108
4.255817502098108
4.249663029933098
4.249663029933098
4.237354085603107
4.243508557768089
4.243508557768089
4.243508557768089
4.231199613438097
4.231199613438097
4.231199613438097
4.225045141273086
4.218890669108104
4.218890669108104
4.237354085603107
4.231199613438097
4.243508557768089
4.237354085603107
4.2065817247780855
4.2065817247780855
4.218890669108104
4.225045141273086
4.231199613438097
4.27428091859311
4.2865898629231
4.280435390758092
4.27428091859311
4.27428091859311
4.225045141273086
4.1942727804480935
4.2681264464281
4.27428091859311
4.2681264464281
4.261971974263091
4.27428091859311
4.2681264464281
4.249663029933098
4.243508557768089
4.249663029933098
4.255817502098108
4.2681264464281
4.280435390758092
4.2865898629231
4.2865898629231
4.27428091859311
4.27428091859311
4.2865898629231
4.292744335088111
4.2865898629231
4.2681264464281
4.249663029933098
4.249663029933098
4.292744335088111
4.3112077515831135
4.3112077515831135
4.3112077515831135
4.298898807253093
4.298898807253093
4.305053279418103
4.298898807253093
4.292744335088111
4.3112077515831135
4.305053279418103
4.305053279418103
4.3112077515831135
4.3112077515831135
4.3112077515831135
4.3112077515831135
4.305053279418103
4.3173622237481215
4.3173622237481215
4.3112077515831135
4.305053279418103
4.305053279418103
4.298898807253093
4.298898807253093
4.305053279418103
4.305053279418103
4.3112077515831135
4.3173622237481215
4.3112077515831135
4.298898807253093
4.292744335088111
4.292744335088111
4.298898807253093
4.292744335088111
4.298898807253093
4.292744335088111
4.298898807253093
4.298898807253093
4.298898807253093
4.2865898629231
4.2865898629231
4.298898807253093
4.298898807253093
4.292744335088111
4.298898807253093
4.298898807253093
4.298898807253093
4.298898807253093
4.305053279418103
4.298898807253093
4.305053279418103
4.3112077515831135
4.298898807253093
4.292744335088111
4.280435390758092
4.292744335088111
4.348134584573115
4.391215889728128
4.551232166018132
4.618931359833156
4.618931359833156
4.563541110348153
4.434297194883113
4.335825640243124
4.2865898629231
4.2865898629231
4.292744335088111
4.298898807253093
4.3112077515831135
4.3112077515831135
4.3112077515831135
4.3173622237481215
4.3173622237481215
4.323516695913104
4.3173622237481215
4.3173622237481215
4.323516695913104
4.3173622237481215
4.3112077515831135
4.323516695913104
4.3173622237481215
4.3173622237481215
4.3112077515831135
4.3112077515831135
4.3173622237481215
4.3112077515831135
4.305053279418103
4.3173622237481215
4.3112077515831135
4.3112077515831135
4.3112077515831135
4.3173622237481215
4.3112077515831135
4.3112077515831135
4.3112077515831135
4.323516695913104
4.3173622237481215
4.305053279418103
4.323516695913104
4.323516695913104
4.329671168078114
4.323516695913104
4.3173622237481215
4.323516695913104
4.323516695913104
4.323516695913104
4.323516695913104
4.329671168078114
4.3173622237481215
4.3112077515831135
4.3173622237481215
4.323516695913104
4.329671168078114
4.329671168078114
4.329671168078114
4.335825640243124
4.341980112408105
4.335825640243124
4.335825640243124
4.335825640243124
4.335825640243124
4.341980112408105
4.341980112408105
4.348134584573115
4.341980112408105
4.335825640243124
4.341980112408105
4.348134584573115
4.348134584573115
4.335825640243124
4.335825640243124
4.341980112408105
4.341980112408105
4.341980112408105
4.354289056738125
4.354289056738125
4.354289056738125
4.348134584573115
4.348134584573115
4.341980112408105
4.329671168078114
4.323516695913104
4.323516695913104
4.3173622237481215
4.3173622237481215
4.3173622237481215
4.3173622237481215
4.3112077515831135
4.298898807253093
4.2865898629231
4.298898807253093
4.292744335088111
4.298898807253093
4.298898807253093
4.2865898629231
4.2865898629231
4.2865898629231
4.298898807253093
4.292744335088111
4.298898807253093
4.298898807253093
4.292744335088111
4.2865898629231
4.2865898629231
4.292744335088111
4.2865898629231
4.292744335088111
4.292744335088111
4.292744335088111
4.292744335088111
4.292744335088111
4.292744335088111
4.2865898629231
4.292744335088111
4.2865898629231
4.2865898629231
4.2865898629231
4.2865898629231
4.280435390758092
4.212736196943095
4.255817502098108
4.280435390758092
4.2865898629231
4.292744335088111
4.2865898629231
4.2865898629231
4.2865898629231
4.27428091859311
4.280435390758092
4.2865898629231
4.27428091859311
4.27428091859311
4.2865898629231
4.2865898629231
4.2865898629231
4.2865898629231
4.2865898629231
4.2865898629231
4.2865898629231
4.2865898629231
4.292744335088111
4.292744335088111
4.292744335088111
4.2865898629231
4.2865898629231
4.2865898629231
4.292744335088111
4.292744335088111
4.2865898629231
4.292744335088111
4.292744335088111
4.292744335088111
4.292744335088111
4.2865898629231
4.298898807253093
4.298898807253093
4.298898807253093
4.292744335088111
4.292744335088111
4.292744335088111
4.298898807253093
4.298898807253093
4.298898807253093
4.292744335088111
4.298898807253093
4.3112077515831135
4.298898807253093
4.292744335088111
4.305053279418103
4.305053279418103
4.305053279418103
4.298898807253093
4.292744335088111
4.292744335088111
4.292744335088111
4.298898807253093
4.292744335088111
4.292744335088111
4.305053279418103
4.298898807253093
4.298898807253093
4.305053279418103
4.305053279418103
4.3112077515831135
4.305053279418103
4.298898807253093
4.3112077515831135
4.305053279418103
4.3112077515831135
4.305053279418103
4.292744335088111
4.298898807253093
4.298898807253093
4.298898807253093
4.305053279418103
4.298898807253093
4.305053279418103
4.298898807253093
4.292744335088111
4.298898807253093
4.298898807253093
4.305053279418103
4.305053279418103
4.3112077515831135
4.305053279418103
4.3112077515831135
4.3112077515831135
4.323516695913104
4.3173622237481215
4.3173622237481215
4.3173622237481215
4.329671168078114
4.335825640243124
4.323516695913104
4.323516695913104
4.329671168078114
4.3112077515831135
4.3173622237481215
4.3173622237481215
4.3173622237481215
4.3112077515831135
4.305053279418103
4.298898807253093
4.305053279418103
4.298898807253093
4.292744335088111
4.292744335088111
4.2865898629231
4.2865898629231
4.249663029933098
4.237354085603107
4.298898807253093
4.298898807253093
4.305053279418103
4.305053279418103
4.298898807253093
4.298898807253093
4.280435390758092
4.280435390758092
4.292744335088111
4.27428091859311
4.225045141273086
4.298898807253093
4.3112077515831135
4.3112077515831135
4.2865898629231
4.292744335088111
4.298898807253093
4.280435390758092
4.2865898629231
4.2865898629231
4.2865898629231
4.335825640243124
4.428142722718132
4.538923221688139
4.606622415503137
4.612776887668146
4.563541110348153
4.446606139213133
4.360443528903107
4.280435390758092
4.261971974263091
4.298898807253093
4.298898807253093
4.305053279418103
4.3173622237481215
4.3112077515831135
4.305053279418103
4.305053279418103
4.3173622237481215
4.3112077515831135
4.3112077515831135
4.3112077515831135
4.298898807253093
4.298898807253093
4.298898807253093
4.298898807253093
4.305053279418103
4.3173622237481215
4.3112077515831135
4.3112077515831135
4.3173622237481215
4.3112077515831135
4.305053279418103
4.3112077515831135
4.3173622237481215
4.3173622237481215
4.3173622237481215
4.323516695913104
4.3112077515831135
4.3112077515831135
4.3173622237481215
4.3112077515831135
4.3112077515831135
4.3173622237481215
4.3112077515831135
4.3112077515831135
4.323516695913104
4.323516695913104
4.3173622237481215
4.3112077515831135
4.323516695913104
4.3112077515831135
4.3112077515831135
4.3173622237481215
4.3173622237481215
4.3173622237481215
4.323516695913104
4.3173622237481215
4.3173622237481215
4.329671168078114
4.329671168078114
4.323516695913104
4.323516695913104
4.329671168078114
4.3173622237481215
4.3173622237481215
4.3173622237481215
4.3112077515831135
4.3112077515831135
4.298898807253093
4.298898807253093
4.292744335088111
4.2865898629231
4.292744335088111
4.292744335088111
4.292744335088111
4.292744335088111
4.298898807253093
4.298898807253093
4.298898807253093
4.298898807253093
4.305053279418103
4.305053279418103
4.292744335088111
4.298898807253093
4.292744335088111
4.2865898629231
4.27428091859311
4.2681264464281
4.27428091859311
4.2681264464281
4.261971974263091
4.261971974263091
4.261971974263091
4.261971974263091
4.249663029933098
4.249663029933098
4.249663029933098
4.249663029933098
4.255817502098108
4.255817502098108
4.249663029933098
4.255817502098108
4.255817502098108
4.243508557768089
4.243508557768089
4.249663029933098
4.255817502098108
4.255817502098108
4.255817502098108
4.249663029933098
4.237354085603107
4.1758093639530935
4.261971974263091
4.2681264464281
4.2681264464281
4.261971974263091
4.261971974263091
4.255817502098108
4.231199613438097
4.231199613438097
4.249663029933098
4.255817502098108
4.255817502098108
4.255817502098108
4.255817502098108
4.255817502098108
4.249663029933098
4.261971974263091
4.2681264464281
4.2681264464281
4.2681264464281
4.2681264464281
4.261971974263091
4.2681264464281
4.255817502098108
4.261971974263091
4.2681264464281
4.27428091859311
4.27428091859311
4.261971974263091
4.261971974263091
4.261971974263091
4.2681264464281
4.27428091859311
4.27428091859311
4.280435390758092
4.27428091859311
4.2681264464281
4.27428091859311
4.2681264464281
4.27428091859311
4.27428091859311
4.27428091859311
4.280435390758092
4.2865898629231
4.27428091859311
4.2865898629231
4.27428091859311
4.27428091859311
4.2865898629231
4.2865898629231
4.292744335088111
4.292744335088111
4.2865898629231
4.292744335088111
4.280435390758092
4.292744335088111
4.2865898629231
4.2865898629231
4.292744335088111
4.292744335088111
4.2865898629231
4.298898807253093
4.292744335088111
4.292744335088111
4.305053279418103
4.298898807253093
4.292744335088111
4.298898807253093
4.298898807253093
4.298898807253093
4.298898807253093
4.298898807253093
4.298898807253093
4.3112077515831135
4.298898807253093
4.298898807253093
4.292744335088111
4.292744335088111
4.292744335088111
4.305053279418103
4.298898807253093
4.305053279418103
4.298898807253093
4.298898807253093
4.305053279418103
4.298898807253093
4.305053279418103
4.3112077515831135
4.323516695913104
4.3173622237481215
4.323516695913104
4.329671168078114
4.323516695913104
4.323516695913104
4.329671168078114
4.335825640243124
4.341980112408105
4.341980112408105
4.335825640243124
4.329671168078114
4.323516695913104
4.3173622237481215
4.3173622237481215
4.3173622237481215
4.3112077515831135
4.3112077515831135
4.305053279418103
4.305053279418103
4.292744335088111
4.2865898629231
4.305053279418103
4.292744335088111
4.292744335088111
4.298898807253093
4.292744335088111
4.298898807253093
4.298898807253093
4.292744335088111
4.305053279418103
4.3112077515831135
4.305053279418103
4.2865898629231
4.225045141273086
4.305053279418103
4.292744335088111
4.2865898629231
4.2865898629231
4.292744335088111
4.292744335088111
4.298898807253093
4.298898807253093
4.280435390758092
4.2681264464281
4.27428091859311
4.27428091859311
4.292744335088111
4.354289056738125
4.458915083543125
4.538923221688139
4.588158999008135
4.575850054678144
4.495841916533128
4.37890694539811
4.3112077515831135
4.2681264464281
4.27428091859311
4.2865898629231
4.292744335088111
4.298898807253093
4.305053279418103
4.3112077515831135
4.305053279418103
4.292744335088111
4.298898807253093
4.292744335088111
4.292744335088111
4.292744335088111
4.298898807253093
4.292744335088111
4.2865898629231
4.298898807253093
4.292744335088111
4.292744335088111
4.2865898629231
4.292744335088111
4.305053279418103
4.298898807253093
4.298898807253093
4.292744335088111
4.292744335088111
4.305053279418103
4.298898807253093
4.298898807253093
4.305053279418103
4.298898807253093
4.305053279418103
4.3173622237481215
4.3173622237481215
4.305053279418103
4.255817502098108
4.243508557768089
4.329671168078114
4.323516695913104
4.323516695913104
4.323516695913104
4.323516695913104
4.329671168078114
4.305053279418103
4.305053279418103
4.3173622237481215
4.3173622237481215
4.323516695913104
4.323516695913104
4.329671168078114
4.323516695913104
4.3173622237481215
4.335825640243124
4.329671168078114
4.329671168078114
4.335825640243124
4.329671168078114
4.335825640243124
4.341980112408105
4.335825640243124
4.348134584573115
4.341980112408105
4.348134584573115
4.354289056738125
4.348134584573115
4.341980112408105
4.341980112408105
4.348134584573115
4.348134584573115
4.348134584573115
4.348134584573115
4.348134584573115
4.354289056738125
4.341980112408105
4.335825640243124
4.335825640243124
4.329671168078114
4.323516695913104
4.323516695913104
4.323516695913104
4.3173622237481215
4.3173622237481215
4.3112077515831135
4.305053279418103
4.298898807253093
4.292744335088111
4.292744335088111
4.292744335088111
4.292744335088111
4.292744335088111
4.2865898629231
4.280435390758092
4.2865898629231
4.292744335088111
4.2865898629231
4.280435390758092
4.280435390758092
4.280435390758092
4.27428091859311
4.2681264464281
4.212736196943095
4.2865898629231
4.292744335088111
4.292744335088111
4.292744335088111
4.2865898629231
4.261971974263091
4.280435390758092
4.280435390758092
4.280435390758092
4.2865898629231
4.2865898629231
4.2865898629231
4.2865898629231
4.2865898629231
4.280435390758092
4.2865898629231
4.280435390758092
4.2865898629231
4.2865898629231
4.2865898629231
4.280435390758092
4.292744335088111
4.298898807253093
4.292744335088111
4.298898807253093
4.292744335088111
4.298898807253093
4.2865898629231
4.2865898629231
4.2865898629231
4.292744335088111
4.2865898629231
4.292744335088111
4.2865898629231
4.2865898629231
4.280435390758092
4.280435390758092
4.2865898629231
4.292744335088111
4.292744335088111
4.2865898629231
4.298898807253093
4.2865898629231
4.2865898629231
4.280435390758092
4.2865898629231
4.2865898629231
4.292744335088111
4.2865898629231
4.292744335088111
4.292744335088111
4.292744335088111
4.2865898629231
4.2865898629231
4.292744335088111
4.298898807253093
4.292744335088111
4.2865898629231
4.298898807253093
4.2865898629231
4.292744335088111
4.298898807253093
4.298898807253093
4.298898807253093
4.292744335088111
4.292744335088111
4.292744335088111
4.2865898629231
4.292744335088111
4.298898807253093
4.292744335088111
4.305053279418103
4.305053279418103
4.298898807253093
4.305053279418103
4.292744335088111
4.292744335088111
4.305053279418103
4.3112077515831135
4.3112077515831135
4.305053279418103
4.298898807253093
4.305053279418103
4.292744335088111
4.305053279418103
4.3112077515831135
4.3112077515831135
4.305053279418103
4.3112077515831135
4.3173622237481215
4.3173622237481215
4.3112077515831135
4.323516695913104
4.3173622237481215
4.3173622237481215
4.323516695913104
4.329671168078114
4.335825640243124
4.329671168078114
4.335825640243124
4.335825640243124
4.323516695913104
4.329671168078114
4.329671168078114
4.329671168078114
4.323516695913104
4.3173622237481215
4.3112077515831135
4.3112077515831135
4.3173622237481215
4.305053279418103
4.305053279418103
4.3112077515831135
4.298898807253093
4.305053279418103
4.3112077515831135
4.305053279418103
4.3112077515831135
4.3112077515831135
4.3173622237481215
4.298898807253093
4.231199613438097
4.2865898629231
4.298898807253093
4.3173622237481215
4.3173622237481215
4.3173622237481215
4.3173622237481215
4.3112077515831135
4.3173622237481215
4.3112077515831135
4.3112077515831135
4.3173622237481215
4.3112077515831135
4.298898807253093
4.298898807253093
4.298898807253093
4.335825640243124
4.40967930622313
4.514305333028129
4.6004679433381535
4.625085831998166
4.606622415503137
4.508150860863147
4.40352483405812
4.3173622237481215
4.2865898629231
4.3112077515831135
4.3173622237481215
4.323516695913104
4.323516695913104
4.323516695913104
4.323516695913104
4.3173622237481215
4.323516695913104
4.3173622237481215
4.323516695913104
4.3173622237481215
4.323516695913104
4.3173622237481215
4.3173622237481215
4.3173622237481215
4.3173622237481215
4.323516695913104
4.323516695913104
4.323516695913104
4.3173622237481215
4.323516695913104
4.3173622237481215
4.3112077515831135
4.3173622237481215
4.3173622237481215
4.3173622237481215
4.323516695913104
4.323516695913104
4.3173622237481215
4.323516695913104
4.3173622237481215
4.335825640243124
4.329671168078114
4.329671168078114
4.323516695913104
4.335825640243124
4.329671168078114
4.3173622237481215
4.335825640243124
4.329671168078114
4.335825640243124
4.335825640243124
4.329671168078114
4.329671168078114
4.329671168078114
4.323516695913104
4.335825640243124
4.341980112408105
4.335825640243124
4.341980112408105
4.341980112408105
4.348134584573115
4.348134584573115
4.341980112408105
4.341980112408105
4.354289056738125
4.354289056738125
4.348134584573115
4.360443528903107
4.360443528903107
4.360443528903107
4.348134584573115
4.360443528903107
4.360443528903107
4.360443528903107
4.360443528903107
4.354289056738125
4.354289056738125
4.354289056738125
4.354289056738125
4.360443528903107
4.360443528903107
4.366598001068117
4.354289056738125
4.354289056738125
4.341980112408105
4.341980112408105
4.329671168078114
4.323516695913104
4.329671168078114
4.323516695913104
4.3112077515831135
4.3112077515831135
4.3112077515831135
4.3112077515831135
4.3112077515831135
4.3112077515831135
4.3112077515831135
4.305053279418103
4.305053279418103
4.3112077515831135
4.305053279418103
4.298898807253093
4.298898807253093
4.3112077515831135
4.2865898629231
4.231199613438097
4.298898807253093
4.3173622237481215
4.3173622237481215
4.225045141273086
4.231199613438097
4.305053279418103
4.3112077515831135
4.3112077515831135
4.305053279418103
4.3112077515831135
4.298898807253093
4.2865898629231
4.292744335088111
4.305053279418103
4.305053279418103
4.305053279418103
4.3112077515831135
4.305053279418103
4.305053279418103
4.305053279418103
4.3112077515831135
4.3112077515831135
4.3112077515831135
4.3173622237481215
4.3173622237481215
4.3173622237481215
4.3173622237481215
4.3173622237481215
4.3173622237481215
4.323516695913104
4.323516695913104
4.323516695913104
4.329671168078114
4.329671168078114
4.3173622237481215
4.323516695913104
4.3173622237481215
4.3173622237481215
4.329671168078114
4.323516695913104
4.3173622237481215
4.323516695913104
4.3173622237481215
4.3173622237481215
4.329671168078114
4.323516695913104
4.323516695913104
4.329671168078114
4.323516695913104
4.3173622237481215
4.3112077515831135
4.3173622237481215
4.323516695913104
4.323516695913104
4.323516695913104
4.3173622237481215
4.323516695913104
4.3112077515831135
4.3112077515831135
4.323516695913104
4.3173622237481215
4.3173622237481215
4.3173622237481215
4.3173622237481215
4.3173622237481215
4.323516695913104
4.3112077515831135
4.3173622237481215
4.329671168078114
4.3173622237481215
4.329671168078114
4.3173622237481215
4.323516695913104
4.323516695913104
4.323516695913104
4.323516695913104
4.329671168078114
4.323516695913104
4.329671168078114
4.3173622237481215
4.329671168078114
4.3173622237481215
4.323516695913104
4.329671168078114
4.329671168078114
4.3173622237481215
4.3173622237481215
4.329671168078114
4.323516695913104
4.3173622237481215
4.3173622237481215
4.3173622237481215
4.323516695913104
4.329671168078114
4.323516695913104
4.323516695913104
4.323516695913104
4.3173622237481215
4.335825640243124
4.329671168078114
4.341980112408105
4.341980112408105
4.348134584573115
4.341980112408105
4.348134584573115
4.341980112408105
4.354289056738125
4.360443528903107
4.360443528903107
4.348134584573115
4.348134584573115
4.329671168078114
4.323516695913104
4.329671168078114
4.335825640243124
4.335825640243124
4.329671168078114
4.323516695913104
4.3173622237481215
4.323516695913104
4.292744335088111
4.243508557768089
4.3112077515831135
4.323516695913104
4.3112077515831135
4.3173622237481215
4.3112077515831135
4.3173622237481215
4.298898807253093
4.2865898629231
4.298898807253093
4.298898807253093
4.298898807253093
4.298898807253093
4.298898807253093
4.305053279418103
4.305053279418103
4.305053279418103
4.298898807253093
4.3112077515831135
4.3112077515831135
4.3112077515831135
4.3112077515831135
4.292744335088111
4.2865898629231
4.2865898629231
4.292744335088111
4.323516695913104
4.40967930622313
4.508150860863147
4.5820045268431535
4.612776887668146
4.5820045268431535
4.483532972203136
4.37890694539811
4.305053279418103
4.280435390758092
4.2865898629231
4.292744335088111
4.298898807253093
4.298898807253093
4.3112077515831135
4.3112077515831135
4.305053279418103
4.305053279418103
4.305053279418103
4.298898807253093
4.298898807253093
4.298898807253093
4.298898807253093
4.305053279418103
4.305053279418103
4.305053279418103
4.3112077515831135
4.305053279418103
4.305053279418103
4.298898807253093
4.298898807253093
4.298898807253093
4.292744335088111
4.298898807253093
4.298898807253093
4.3173622237481215
4.3112077515831135
4.3112077515831135
4.3173622237481215
4.305053279418103
4.298898807253093
4.292744335088111
4.329671168078114
4.3727524732331275
4.360443528903107
4.335825640243124
4.305053279418103
4.27428091859311
4.249663029933098
4.225045141273086
4.243508557768089
4.261971974263091
4.3112077515831135
4.40967930622313
4.428142722718132
4.385061417563119
4.335825640243124
4.298898807253093
4.2681264464281
4.261971974263091
4.2681264464281
4.305053279418103
4.335825640243124
4.354289056738125
4.3727524732331275
4.3727524732331275
4.391215889728128
4.434297194883113
4.434297194883113
4.385061417563119
4.348134584573115
4.3173622237481215
4.323516695913104
4.348134584573115
4.37890694539811
4.360443528903107
4.348134584573115
4.341980112408105
4.360443528903107
4.354289056738125
4.348134584573115
4.348134584573115
4.348134584573115
4.329671168078114
4.305053279418103
4.261971974263091
4.2681264464281
4.280435390758092
4.280435390758092
4.27428091859311
4.298898807253093
4.3112077515831135
4.249663029933098
4.188118308283084
4.1758093639530935
4.200427252613103
4.181963836118102
4.292744335088111
4.3173622237481215
4.298898807253093
4.3112077515831135
4.329671168078114
4.397370361893111
4.385061417563119
4.329671168078114
4.27428091859311
4.225045141273086
4.2065817247780855
4.1942727804480935
4.188118308283084
4.188118308283084
4.212736196943095
4.237354085603107
4.261971974263091
4.261971974263091
4.249663029933098
4.261971974263091
4.2681264464281
4.249663029933098
4.237354085603107
4.237354085603107
4.3173622237481215
4.366598001068117
4.329671168078114
4.2865898629231
4.231199613438097
4.212736196943095
4.188118308283084
4.169654891788083
4.169654891788083
4.1327280587980795
4.145037003128072
4.169654891788083
4.200427252613103
4.231199613438097
4.27428091859311
4.2865898629231
4.280435390758092
4.231199613438097
4.249663029933098
4.323516695913104
4.323516695913104
4.3112077515831135
4.27428091859311
4.237354085603107
4.200427252613103
4.157345947458091
4.169654891788083
4.1942727804480935
4.243508557768089
4.280435390758092
4.2865898629231
4.280435390758092
4.305053279418103
4.397370361893111
4.37890694539811
4.3112077515831135
4.237354085603107
4.1758093639530935
4.157345947458091
4.169654891788083
4.1942727804480935
4.231199613438097
4.249663029933098
4.261971974263091
4.218890669108104
4.188118308283084
4.1758093639530935
4.1758093639530935
4.1327280587980795
4.169654891788083
4.212736196943095
4.212736196943095
4.1942727804480935
4.200427252613103
4.212736196943095
4.225045141273086
4.2681264464281
4.2681264464281
4.1758093639530935
4.108110170138069
4.083492281478085
4.120419114468088
4.163500419623101
4.145037003128072
4.1327280587980795
4.12657358663307
4.138882530963089
4.181963836118102
4.237354085603107
4.323516695913104
4.341980112408105
4.280435390758092
4.218890669108104
4.181963836118102
4.1942727804480935
4.218890669108104
4.243508557768089
4.225045141273086
4.181963836118102
4.163500419623101
4.280435390758092
4.335825640243124
4.2865898629231
4.200427252613103
4.120419114468088
4.120419114468088
4.145037003128072
4.181963836118102
4.231199613438097
4.280435390758092
4.360443528903107
4.391215889728128
4.305053279418103
4.231199613438097
4.200427252613103
4.1942727804480935
4.169654891788083
4.138882530963089
4.243508557768089
4.280435390758092
4.305053279418103
4.298898807253093
4.255817502098108
4.200427252613103
4.2065817247780855
4.243508557768089
4.2681264464281
4.329671168078114
4.3173622237481215
4.200427252613103
4.138882530963089
4.157345947458091
4.200427252613103
4.218890669108104
4.231199613438097
4.212736196943095
4.2065817247780855
4.212736196943095
4.255817502098108
4.2865898629231
4.243508557768089
4.255817502098108
4.305053279418103
4.2681264464281
4.249663029933098
4.231199613438097
4.237354085603107
4.261971974263091
4.249663029933098
4.225045141273086
4.231199613438097
4.212736196943095
4.200427252613103
4.1758093639530935
4.200427252613103
4.243508557768089
4.218890669108104
4.261971974263091
4.341980112408105
4.397370361893111
4.471224027873144
4.526614277358149
4.551232166018132
4.508150860863147
4.421988250553122
4.348134584573115
4.249663029933098
4.225045141273086
4.243508557768089
4.243508557768089
4.249663029933098
4.237354085603107
4.225045141273086
4.249663029933098
4.298898807253093
4.366598001068117
4.249663029933098
4.1758093639530935
4.169654891788083
4.218890669108104
4.255817502098108
4.280435390758092
4.298898807253093
4.292744335088111
4.2681264464281
4.249663029933098
4.231199613438097
4.212736196943095
4.225045141273086
4.243508557768089
4.292744335088111
4.298898807253093
4.3173622237481215
4.366598001068117
4.323516695913104
4.2681264464281
4.237354085603107
4.249663029933098
4.27428091859311
4.261971974263091
4.231199613438097
4.212736196943095
4.169654891788083
4.157345947458091
4.188118308283084
4.2681264464281
4.3173622237481215
4.3173622237481215
4.323516695913104
4.3727524732331275
4.348134584573115
4.243508557768089
4.2065817247780855
4.255817502098108
4.2865898629231
4.298898807253093
4.280435390758092
4.292744335088111
4.323516695913104
4.421988250553122
4.415833778388112
4.323516695913104
4.243508557768089
4.218890669108104
4.212736196943095
4.231199613438097
4.27428091859311
4.3173622237481215
4.348134584573115
4.335825640243124
4.329671168078114
4.298898807253093
4.261971974263091
4.305053279418103
4.366598001068117
4.360443528903107
4.3173622237481215
4.292744335088111
4.243508557768089
4.169654891788083
4.212736196943095
4.225045141273086
4.249663029933098
4.298898807253093
4.40352483405812
4.40967930622313
4.329671168078114
4.2681264464281
4.261971974263091
4.2681264464281
4.243508557768089
4.249663029933098
4.255817502098108
4.243508557768089
4.231199613438097
4.243508557768089
4.2865898629231
4.2865898629231
4.255817502098108
4.27428091859311
4.391215889728128
4.335825640243124
4.200427252613103
4.1327280587980795
4.1758093639530935
4.27428091859311
4.2681264464281
4.2065817247780855
4.181963836118102
4.218890669108104
4.2865898629231
4.298898807253093
4.305053279418103
4.305053279418103
4.348134584573115
4.385061417563119
4.292744335088111
4.2065817247780855
4.157345947458091
4.181963836118102
4.225045141273086
4.249663029933098
4.27428091859311
4.249663029933098
4.249663029933098
4.280435390758092
4.341980112408105
4.3727524732331275
4.298898807253093
4.2065817247780855
4.138882530963089
4.151191475293081
4.212736196943095
4.27428091859311
4.292744335088111
4.280435390758092
4.2681264464281
4.280435390758092
4.305053279418103
4.305053279418103
4.3112077515831135
4.37890694539811
4.329671168078114
4.261971974263091
4.1942727804480935
4.200427252613103
4.231199613438097
4.280435390758092
4.298898807253093
4.292744335088111
4.261971974263091
4.243508557768089
4.231199613438097
4.218890669108104
4.237354085603107
4.335825640243124
4.366598001068117
4.305053279418103
4.255817502098108
4.255817502098108
4.2865898629231
4.2681264464281
4.27428091859311
4.2681264464281
4.261971974263091
4.2681264464281
4.2865898629231
4.415833778388112
4.40352483405812
4.305053279418103
4.231199613438097
4.237354085603107
4.261971974263091
4.261971974263091
4.243508557768089
4.2065817247780855
4.200427252613103
4.249663029933098
4.3173622237481215
4.421988250553122
4.40967930622313
4.341980112408105
4.27428091859311
4.261971974263091
4.255817502098108
4.261971974263091
4.2681264464281
4.237354085603107
4.218890669108104
4.2865898629231
4.3112077515831135
4.280435390758092
4.212736196943095
4.231199613438097
4.3112077515831135
4.366598001068117
4.348134584573115
4.305053279418103
4.27428091859311
4.255817502098108
4.2065817247780855
4.145037003128072
4.249663029933098
4.329671168078114
4.341980112408105
4.2681264464281
4.243508557768089
4.261971974263091
4.2681264464281
4.27428091859311
4.298898807253093
4.3112077515831135
4.335825640243124
4.3112077515831135
4.360443528903107
4.385061417563119
4.305053279418103
4.231199613438097
4.200427252613103
4.218890669108104
4.261971974263091
4.231199613438097
4.243508557768089
4.298898807253093
4.3173622237481215
4.3173622237481215
4.341980112408105
4.434297194883113
4.40967930622313
4.2865898629231
4.225045141273086
4.218890669108104
4.243508557768089
4.243508557768089
4.255817502098108
4.2681264464281
4.225045141273086
4.27428091859311
4.335825640243124
4.3112077515831135
4.255817502098108
4.2065817247780855
4.249663029933098
4.261971974263091
4.249663029933098
4.243508557768089
4.249663029933098
4.255817502098108
4.218890669108104
4.1942727804480935
4.3112077515831135
4.397370361893111
4.3727524732331275
4.2865898629231
4.225045141273086
4.2065817247780855
4.188118308283084
4.1942727804480935
4.200427252613103
4.2681264464281
4.305053279418103
4.255817502098108
4.225045141273086
4.237354085603107
4.298898807253093
4.329671168078114
4.385061417563119
4.458915083543125
4.520459805193139
4.5943134711731455
4.6435492484931675
4.477378500038126
4.3112077515831135
4.212736196943095
4.218890669108104
4.225045141273086
4.225045141273086
4.2681264464281
4.335825640243124
4.354289056738125
4.27428091859311
4.1942727804480935
4.188118308283084
4.231199613438097
4.249663029933098
4.2865898629231
4.292744335088111
4.280435390758092
4.27428091859311
4.261971974263091
4.27428091859311
4.354289056738125
4.391215889728128
4.2865898629231
4.1942727804480935
4.212736196943095
4.255817502098108
4.280435390758092
4.280435390758092
4.225045141273086
4.2065817247780855
4.225045141273086
4.341980112408105
4.37890694539811
4.3112077515831135
4.261971974263091
4.280435390758092
4.292744335088111
4.2865898629231
4.2681264464281
4.255817502098108
4.27428091859311
4.261971974263091
4.225045141273086
4.218890669108104
4.27428091859311
4.329671168078114
4.40967930622313
4.329671168078114
4.200427252613103
4.1758093639530935
4.261971974263091
4.3173622237481215
4.231199613438097
4.27428091859311
4.2681264464281
4.292744335088111
4.3173622237481215
4.348134584573115
4.348134584573115
4.391215889728128
4.434297194883113
4.348134584573115
4.237354085603107
4.1758093639530935
4.188118308283084
4.231199613438097
4.305053279418103
4.329671168078114
4.335825640243124
4.335825640243124
4.341980112408105
4.434297194883113
4.458915083543125
4.366598001068117
4.2865898629231
4.255817502098108
4.200427252613103
4.169654891788083
4.225045141273086
4.329671168078114
4.477378500038126
4.428142722718132
4.298898807253093
4.218890669108104
4.218890669108104
4.237354085603107
4.255817502098108
4.280435390758092
4.2865898629231
4.292744335088111
4.2865898629231
4.255817502098108
4.237354085603107
4.261971974263091
4.2865898629231
4.366598001068117
4.415833778388112
4.3173622237481215
4.231199613438097
4.200427252613103
4.255817502098108
4.237354085603107
4.2065817247780855
4.218890669108104
4.27428091859311
4.329671168078114
4.335825640243124
4.2865898629231
4.243508557768089
4.2865898629231
4.366598001068117
4.298898807253093
4.200427252613103
4.1942727804480935
4.231199613438097
4.2865898629231
4.280435390758092
4.27428091859311
4.2681264464281
4.280435390758092
4.3112077515831135
4.341980112408105
4.37890694539811
4.3173622237481215
4.218890669108104
4.212736196943095
4.243508557768089
4.2681264464281
4.280435390758092
4.27428091859311
4.231199613438097
4.225045141273086
4.225045141273086
4.231199613438097
4.292744335088111
4.415833778388112
4.40967930622313
4.292744335088111
4.212736196943095
4.243508557768089
4.255817502098108
4.2865898629231
4.280435390758092
4.2681264464281
4.249663029933098
4.237354085603107
4.249663029933098
4.2865898629231
4.280435390758092
4.341980112408105
4.421988250553122
4.360443528903107
4.231199613438097
4.1758093639530935
4.225045141273086
4.27428091859311
4.27428091859311
4.27428091859311
4.243508557768089
4.243508557768089
4.261971974263091
4.298898807253093
4.280435390758092
4.292744335088111
4.391215889728128
4.391215889728128
4.298898807253093
4.212736196943095
4.225045141273086
4.255817502098108
4.261971974263091
4.237354085603107
4.243508557768089
4.27428091859311
4.255817502098108
4.298898807253093
4.292744335088111
4.2681264464281
4.292744335088111
4.391215889728128
4.3727524732331275
4.27428091859311
4.169654891788083
4.188118308283084
4.243508557768089
4.2865898629231
4.305053279418103
4.2681264464281
4.261971974263091
4.341980112408105
4.440451667048122
4.360443528903107
4.212736196943095
4.163500419623101
4.237354085603107
4.280435390758092
4.2681264464281
4.243508557768089
4.255817502098108
4.280435390758092
4.329671168078114
4.341980112408105
4.391215889728128
4.40352483405812
4.329671168078114
4.261971974263091
4.243508557768089
4.2681264464281
4.280435390758092
4.2865898629231
4.243508557768089
4.1758093639530935
4.1758093639530935
4.255817502098108
4.391215889728128
4.471224027873144
4.37890694539811
4.298898807253093
4.2681264464281
4.255817502098108
4.255817502098108
4.2865898629231
4.305053279418103
4.3112077515831135
4.292744335088111
4.2865898629231
4.27428091859311
4.2865898629231
4.391215889728128
4.40352483405812
4.335825640243124
4.249663029933098
4.231199613438097
4.243508557768089
4.243508557768089
4.249663029933098
4.255817502098108
4.27428091859311
4.2865898629231
4.360443528903107
4.360443528903107
4.280435390758092
4.200427252613103
4.212736196943095
4.27428091859311
4.305053279418103
4.298898807253093
4.261971974263091
4.231199613438097
4.212736196943095
4.225045141273086
4.237354085603107
4.305053279418103
4.440451667048122
4.40967930622313
4.2865898629231
4.212736196943095
4.225045141273086
4.231199613438097
4.243508557768089
4.255817502098108
4.261971974263091
4.305053279418103
4.366598001068117
4.637394776328158
4.723557386638155
4.5943134711731455
4.360443528903107
4.261971974263091
4.243508557768089
4.243508557768089
4.237354085603107
4.261971974263091
4.255817502098108
4.255817502098108
4.249663029933098
4.249663029933098
4.237354085603107
4.329671168078114
4.329671168078114
4.3112077515831135
4.2681264464281
4.261971974263091
4.261971974263091
4.255817502098108
4.2681264464281
4.261971974263091
4.249663029933098
4.243508557768089
4.255817502098108
4.27428091859311
4.3173622237481215
4.323516695913104
4.243508557768089
4.1942727804480935
4.225045141273086
4.2065817247780855
4.2865898629231
4.3173622237481215
4.329671168078114
4.3112077515831135
4.292744335088111
4.2681264464281
4.2865898629231
4.354289056738125
4.385061417563119
4.2865898629231
4.1942727804480935
4.163500419623101
4.231199613438097
4.243508557768089
4.249663029933098
4.2681264464281
4.292744335088111
4.305053279418103
4.348134584573115
4.415833778388112
4.348134584573115
4.261971974263091
4.243508557768089
4.292744335088111
4.335825640243124
4.348134584573115
4.341980112408105
4.335825640243124
4.323516695913104
4.323516695913104
4.3112077515831135
4.298898807253093
4.323516695913104
4.40352483405812
4.348134584573115
4.237354085603107
4.200427252613103
4.2681264464281
4.3173622237481215
4.335825640243124
4.305053279418103
4.298898807253093
4.323516695913104
4.348134584573115
4.366598001068117
4.3727524732331275
4.37890694539811
4.366598001068117
4.354289056738125
4.329671168078114
4.397370361893111
4.397370361893111
4.292744335088111
4.188118308283084
4.1758093639530935
4.225045141273086
4.255817502098108
4.261971974263091
4.27428091859311
4.2865898629231
4.292744335088111
4.292744335088111
4.2865898629231
4.305053279418103
4.360443528903107
4.323516695913104
4.225045141273086
4.181963836118102
4.1942727804480935
4.2065817247780855
4.237354085603107
4.261971974263091
4.305053279418103
4.3173622237481215
4.329671168078114
4.391215889728128
4.391215889728128
4.27428091859311
4.1758093639530935
4.181963836118102
4.255817502098108
4.280435390758092
4.280435390758092
4.261971974263091
4.2865898629231
4.323516695913104
4.3112077515831135
4.280435390758092
4.255817502098108
4.255817502098108
4.2681264464281
4.348134584573115
4.335825640243124
4.280435390758092
4.237354085603107
4.243508557768089
4.2865898629231
4.305053279418103
4.298898807253093
4.298898807253093
4.3112077515831135
4.37890694539811
4.428142722718132
4.305053279418103
4.157345947458091
4.108110170138069
4.188118308283084
4.2681264464281
4.348134584573115
4.366598001068117
4.354289056738125
4.329671168078114
4.3112077515831135
4.298898807253093
4.335825640243124
4.440451667048122
4.37890694539811
4.231199613438097
4.151191475293081
4.2065817247780855
4.237354085603107
4.237354085603107
4.335825640243124
4.329671168078114
4.329671168078114
4.329671168078114
4.323516695913104
4.3112077515831135
4.298898807253093
4.280435390758092
4.243508557768089
4.237354085603107
4.261971974263091
4.391215889728128
4.415833778388112
4.3112077515831135
4.231199613438097
4.237354085603107
4.3112077515831135
4.329671168078114
4.3173622237481215
4.305053279418103
4.323516695913104
4.341980112408105
4.3112077515831135
4.2865898629231
4.298898807253093
4.3112077515831135
4.323516695913104
4.323516695913104
4.323516695913104
4.323516695913104
4.3173622237481215
4.391215889728128
4.428142722718132
4.341980112408105
4.249663029933098
4.200427252613103
4.237354085603107
4.280435390758092
4.3112077515831135
4.3112077515831135
4.280435390758092
4.261971974263091
4.280435390758092
4.335825640243124
4.366598001068117
4.366598001068117
4.354289056738125
4.341980112408105
4.341980112408105
4.348134584573115
4.341980112408105
4.354289056738125
4.360443528903107
4.360443528903107
4.348134584573115
4.329671168078114
4.335825640243124
4.348134584573115
4.354289056738125
4.354289056738125
4.366598001068117
4.354289056738125
4.341980112408105
4.335825640243124
4.335825640243124
4.329671168078114
4.335825640243124
4.335825640243124
4.323516695913104
4.329671168078114
4.323516695913104
4.323516695913104
4.3112077515831135
4.3112077515831135
4.298898807253093
4.3112077515831135
4.3173622237481215
4.3173622237481215
4.298898807253093
4.298898807253093
4.298898807253093
4.305053279418103
4.305053279418103
4.305053279418103
4.2865898629231
4.261971974263091
4.27428091859311
4.298898807253093
4.335825640243124
4.366598001068117
4.366598001068117
4.360443528903107
4.354289056738125
4.348134584573115
4.341980112408105
4.323516695913104
4.323516695913104
4.3173622237481215
4.3173622237481215
4.348134584573115
4.434297194883113
4.520459805193139
4.6004679433381535
4.637394776328158
4.618931359833156
4.520459805193139
4.40967930622313
4.335825640243124
4.3112077515831135
4.3173622237481215
4.329671168078114
4.335825640243124
4.335825640243124
4.341980112408105
4.341980112408105
4.348134584573115
4.335825640243124
4.335825640243124
4.329671168078114
4.335825640243124
4.323516695913104
4.261971974263091
4.335825640243124
4.354289056738125
4.348134584573115
4.335825640243124
4.323516695913104
4.323516695913104
4.335825640243124
4.335825640243124
4.341980112408105
4.354289056738125
4.348134584573115
4.348134584573115
4.341980112408105
4.348134584573115
4.360443528903107
4.348134584573115
4.348134584573115
4.354289056738125
4.360443528903107
4.360443528903107
4.366598001068117
4.3727524732331275
4.3727524732331275
4.3727524732331275
4.360443528903107
4.341980112408105
4.348134584573115
4.354289056738125
4.385061417563119
4.385061417563119
4.391215889728128
4.385061417563119
4.3727524732331275
4.360443528903107
4.341980112408105
4.292744335088111
4.3727524732331275
4.421988250553122
4.421988250553122
4.40967930622313
4.40352483405812
4.40967930622313
4.397370361893111
4.385061417563119
4.391215889728128
4.397370361893111
4.40967930622313
4.40967930622313
4.40967930622313
4.415833778388112
4.415833778388112
4.40967930622313
4.415833778388112
4.421988250553122
4.421988250553122
4.421988250553122
4.428142722718132
4.415833778388112
4.40352483405812
4.428142722718132
4.428142722718132
4.421988250553122
4.415833778388112
4.40352483405812
4.397370361893111
4.391215889728128
4.385061417563119
4.391215889728128
4.37890694539811
4.3727524732331275
4.3727524732331275
4.3727524732331275
4.3727524732331275
4.3727524732331275
4.360443528903107
4.360443528903107
4.360443528903107
4.366598001068117
4.366598001068117
4.366598001068117
4.366598001068117
4.360443528903107
4.360443528903107
4.366598001068117
4.3727524732331275
4.366598001068117
4.360443528903107
4.360443528903107
4.360443528903107
4.360443528903107
4.360443528903107
4.366598001068117
4.360443528903107
4.366598001068117
4.366598001068117
4.366598001068117
4.366598001068117
4.360443528903107
4.360443528903107
4.3727524732331275
4.360443528903107
4.366598001068117
4.3727524732331275
4.366598001068117
4.366598001068117
4.348134584573115
4.360443528903107
4.360443528903107
4.360443528903107
4.354289056738125
4.360443528903107
4.360443528903107
4.354289056738125
4.348134584573115
4.354289056738125
4.348134584573115
4.341980112408105
4.348134584573115
4.341980112408105
4.341980112408105
4.329671168078114
4.255817502098108
4.335825640243124
4.348134584573115
4.354289056738125
4.348134584573115
4.335825640243124
4.341980112408105
4.335825640243124
4.3112077515831135
4.323516695913104
4.329671168078114
4.329671168078114
4.329671168078114
4.329671168078114
4.323516695913104
4.329671168078114
4.323516695913104
4.329671168078114
4.323516695913104
4.329671168078114
4.323516695913104
4.323516695913104
4.3173622237481215
4.3173622237481215
4.3173622237481215
4.3173622237481215
4.329671168078114
4.329671168078114
4.329671168078114
4.329671168078114
4.329671168078114
4.3173622237481215
4.329671168078114
4.329671168078114
4.329671168078114
4.323516695913104
4.329671168078114
4.329671168078114
4.323516695913104
4.3173622237481215
4.329671168078114
4.329671168078114
4.329671168078114
4.329671168078114
4.323516695913104
4.329671168078114
4.323516695913104
4.323516695913104
4.335825640243124
4.335825640243124
4.335825640243124
4.329671168078114
4.323516695913104
4.329671168078114
4.329671168078114
4.323516695913104
4.335825640243124
4.335825640243124
4.335825640243124
4.329671168078114
4.341980112408105
4.335825640243124
4.335825640243124
4.329671168078114
4.329671168078114
4.335825640243124
4.335825640243124
4.335825640243124
4.348134584573115
4.341980112408105
4.335825640243124
4.341980112408105
4.335825640243124
4.348134584573115
4.360443528903107
4.360443528903107
4.360443528903107
4.354289056738125
4.341980112408105
4.341980112408105
4.335825640243124
4.341980112408105
4.329671168078114
4.329671168078114
4.335825640243124
4.329671168078114
4.323516695913104
4.329671168078114
4.3173622237481215
4.3112077515831135
4.3173622237481215
4.3173622237481215
4.323516695913104
4.3112077515831135
4.3112077515831135
4.3173622237481215
4.3112077515831135
4.3173622237481215
4.3173622237481215
4.3173622237481215
4.3173622237481215
4.3173622237481215
4.3112077515831135
4.3173622237481215
4.3173622237481215
4.3112077515831135
4.3173622237481215
4.3173622237481215
4.3173622237481215
4.305053279418103
4.305053279418103
4.298898807253093
4.298898807253093
4.298898807253093
4.305053279418103
4.341980112408105
4.428142722718132
4.508150860863147
4.575850054678144
4.5943134711731455
4.563541110348153
4.446606139213133
4.2865898629231
4.292744335088111
4.280435390758092
4.2865898629231
4.2865898629231
4.298898807253093
4.305053279418103
4.3173622237481215
4.3173622237481215
4.305053279418103
4.305053279418103
4.305053279418103
4.305053279418103
4.305053279418103
4.305053279418103
4.305053279418103
4.3112077515831135
4.305053279418103
4.305053279418103
4.298898807253093
4.3112077515831135
4.305053279418103
4.305053279418103
4.3112077515831135
4.3112077515831135
4.3173622237481215
4.3112077515831135
4.305053279418103
4.3112077515831135
4.3112077515831135
4.305053279418103
4.305053279418103
4.305053279418103
4.3173622237481215
4.305053279418103
4.298898807253093
4.3112077515831135
4.3112077515831135
4.3112077515831135
4.305053279418103
4.3112077515831135
4.3112077515831135
4.305053279418103
4.3112077515831135
4.3112077515831135
4.3173622237481215
4.323516695913104
4.323516695913104
4.3173622237481215
4.3112077515831135
4.3112077515831135
4.323516695913104
4.329671168078114
4.323516695913104
4.335825640243124
4.329671168078114
4.329671168078114
4.329671168078114
4.323516695913104
4.329671168078114
4.341980112408105
4.335825640243124
4.341980112408105
4.335825640243124
4.354289056738125
4.335825640243124
4.335825640243124
4.335825640243124
4.341980112408105
4.348134584573115
4.341980112408105
4.348134584573115
4.341980112408105
4.348134584573115
4.341980112408105
4.335825640243124
4.329671168078114
4.323516695913104
4.323516695913104
4.323516695913104
4.3112077515831135
4.298898807253093
4.292744335088111
4.292744335088111
4.298898807253093
4.2865898629231
4.292744335088111
4.2865898629231
4.280435390758092
4.27428091859311
4.280435390758092
4.280435390758092
4.27428091859311
4.27428091859311
4.2681264464281
4.280435390758092
4.27428091859311
4.280435390758092
4.280435390758092
4.27428091859311
4.280435390758092
4.27428091859311
4.280435390758092
4.27428091859311
4.27428091859311
4.200427252613103
4.2681264464281
4.292744335088111
4.292744335088111
4.2865898629231
4.2865898629231
4.2865898629231
4.292744335088111
4.261971974263091
4.27428091859311
4.2865898629231
4.280435390758092
4.280435390758092
4.280435390758092
4.2865898629231
4.2865898629231
4.2681264464281
4.225045141273086
4.292744335088111
4.298898807253093
4.292744335088111
4.298898807253093
4.305053279418103
4.2865898629231
4.2681264464281
4.280435390758092
4.280435390758092
4.2865898629231
4.2865898629231
4.2865898629231
4.2865898629231
4.280435390758092
4.2865898629231
4.298898807253093
4.292744335088111
4.292744335088111
4.292744335088111
4.298898807253093
4.292744335088111
4.2865898629231
4.292744335088111
4.298898807253093
4.298898807253093
4.298898807253093
4.298898807253093
4.2865898629231
4.292744335088111
4.280435390758092
4.292744335088111
4.292744335088111
4.298898807253093
4.298898807253093
4.298898807253093
4.2865898629231
4.292744335088111
4.292744335088111
4.292744335088111
4.2865898629231
4.2865898629231
4.292744335088111
4.2865898629231
4.292744335088111
4.280435390758092
4.27428091859311
4.280435390758092
4.27428091859311
4.2865898629231
4.280435390758092
4.280435390758092
4.280435390758092
4.280435390758092
4.280435390758092
4.280435390758092
4.292744335088111
4.292744335088111
4.2865898629231
4.280435390758092
4.280435390758092
4.27428091859311
4.2865898629231
4.280435390758092
4.2865898629231
4.2865898629231
4.280435390758092
4.292744335088111
4.2865898629231
4.27428091859311
4.280435390758092
4.292744335088111
4.2865898629231
4.2865898629231
4.292744335088111
4.292744335088111
4.292744335088111
4.27428091859311
4.2865898629231
4.2865898629231
4.292744335088111
4.2865898629231
4.298898807253093
4.3112077515831135
4.305053279418103
4.305053279418103
4.3112077515831135
4.305053279418103
4.305053279418103
4.305053279418103
4.3112077515831135
4.3112077515831135
4.3112077515831135
4.3112077515831135
4.305053279418103
4.305053279418103
4.298898807253093
4.298898807253093
4.292744335088111
4.2865898629231
4.292744335088111
4.2865898629231
4.2865898629231
4.2865898629231
4.27428091859311
4.27428091859311
4.27428091859311
4.2681264464281
4.27428091859311
4.27428091859311
4.280435390758092
4.27428091859311
4.2681264464281
4.27428091859311
4.2681264464281
4.280435390758092
4.27428091859311
4.2681264464281
4.280435390758092
4.27428091859311
4.27428091859311
4.261971974263091
4.200427252613103
4.261971974263091
4.255817502098108
4.261971974263091
4.261971974263091
4.249663029933098
4.255817502098108
4.243508557768089
4.255817502098108
4.305053279418103
4.397370361893111
4.501996388698137
4.563541110348153
4.5820045268431535
4.538923221688139
4.428142722718132
4.335825640243124
4.255817502098108
4.243508557768089
4.255817502098108
4.2681264464281
4.261971974263091
4.2681264464281
4.2681264464281
4.27428091859311
4.2681264464281
4.2681264464281
4.261971974263091
4.261971974263091
4.261971974263091
4.2681264464281
4.2681264464281
4.2681264464281
4.261971974263091
4.2681264464281
4.261971974263091
4.261971974263091
4.261971974263091
4.2681264464281
4.2681264464281
4.2681264464281
4.255817502098108
4.2681264464281
4.2681264464281
4.2681264464281
4.2681264464281
4.2681264464281
4.27428091859311
4.261971974263091
4.2681264464281
4.280435390758092
4.2865898629231
4.27428091859311
4.280435390758092
4.280435390758092
4.27428091859311
4.27428091859311
4.27428091859311
4.27428091859311
4.280435390758092
4.280435390758092
4.2865898629231
4.280435390758092
4.280435390758092
4.2865898629231
4.280435390758092
4.292744335088111
4.280435390758092
4.2865898629231
4.2865898629231
4.292744335088111
4.2865898629231
4.292744335088111
4.305053279418103
4.305053279418103
4.305053279418103
4.3112077515831135
4.298898807253093
4.3173622237481215
4.3173622237481215
4.3112077515831135
4.323516695913104
4.323516695913104
4.323516695913104
4.329671168078114
4.323516695913104
4.329671168078114
4.323516695913104
4.323516695913104
4.323516695913104
4.323516695913104
4.3173622237481215
4.3173622237481215
4.3112077515831135
4.305053279418103
4.292744335088111
4.292744335088111
4.292744335088111
4.2865898629231
4.280435390758092
4.2865898629231
4.27428091859311
4.280435390758092
4.261971974263091
4.2681264464281
4.2681264464281
4.261971974263091
4.2681264464281
4.2681264464281
4.2681264464281
4.27428091859311
4.261971974263091
4.261971974263091
4.2681264464281
4.2681264464281
4.27428091859311
4.2681264464281
4.27428091859311
4.261971974263091
4.255817502098108
4.261971974263091
4.255817502098108
4.1942727804480935
4.2681264464281
4.280435390758092
4.27428091859311
4.2681264464281
4.249663029933098
4.249663029933098
4.261971974263091
4.2681264464281
4.27428091859311
4.2681264464281
4.261971974263091
4.2681264464281
4.261971974263091
4.261971974263091
4.261971974263091
4.2681264464281
4.2681264464281
4.27428091859311
4.27428091859311
4.2681264464281
4.261971974263091
4.280435390758092
4.280435390758092
4.27428091859311
4.280435390758092
4.280435390758092
4.280435390758092
4.280435390758092
4.27428091859311
4.280435390758092
4.280435390758092
4.280435390758092
4.27428091859311
4.27428091859311
4.27428091859311
4.27428091859311
4.280435390758092
4.280435390758092
4.2865898629231
4.280435390758092
4.280435390758092
4.292744335088111
4.292744335088111
4.280435390758092
4.2865898629231
4.292744335088111
4.292744335088111
4.2865898629231
4.280435390758092
4.280435390758092
4.2681264464281
4.2065817247780855
4.27428091859311
4.298898807253093
4.292744335088111
4.292744335088111
4.298898807253093
4.292744335088111
4.280435390758092
4.261971974263091
4.280435390758092
4.2865898629231
4.292744335088111
4.2865898629231
4.292744335088111
4.292744335088111
4.292744335088111
4.2865898629231
4.292744335088111
4.292744335088111
4.292744335088111
4.292744335088111
4.292744335088111
4.292744335088111
4.2865898629231
4.298898807253093
4.305053279418103
4.305053279418103
4.298898807253093
4.292744335088111
4.305053279418103
4.298898807253093
4.292744335088111
4.305053279418103
4.305053279418103
4.305053279418103
4.305053279418103
4.298898807253093
4.298898807253093
4.305053279418103
4.298898807253093
4.298898807253093
4.298898807253093
4.305053279418103
4.305053279418103
4.3112077515831135
4.305053279418103
4.305053279418103
4.3112077515831135
4.305053279418103
4.305053279418103
4.3112077515831135
4.3112077515831135
4.3112077515831135
4.3112077515831135
4.305053279418103
4.305053279418103
4.305053279418103
4.3173622237481215
4.3173622237481215
4.3112077515831135
4.3173622237481215
4.323516695913104
4.3173622237481215
4.323516695913104
4.323516695913104
4.323516695913104
4.329671168078114
4.329671168078114
4.335825640243124
4.3173622237481215
4.249663029933098
4.323516695913104
4.329671168078114
4.3173622237481215
4.323516695913104
4.323516695913104
4.3173622237481215
4.3112077515831135
4.2865898629231
4.2865898629231
4.292744335088111
4.2865898629231
4.292744335088111
4.292744335088111
4.2865898629231
4.292744335088111
4.280435390758092
4.2865898629231
4.292744335088111
4.2865898629231
4.292744335088111
4.292744335088111
4.292744335088111
4.2865898629231
4.2865898629231
4.298898807253093
4.292744335088111
4.292744335088111
4.292744335088111
4.298898807253093
4.292744335088111
4.292744335088111
4.2865898629231
4.292744335088111
4.280435390758092
4.280435390758092
4.280435390758092
4.2865898629231
4.3112077515831135
4.37890694539811
4.489687444368147
4.5820045268431535
4.618931359833156
4.606622415503137
4.501996388698137
4.40352483405812
4.323516695913104
4.27428091859311
4.280435390758092
4.298898807253093
4.298898807253093
4.3112077515831135
4.3112077515831135
4.3112077515831135
4.3112077515831135
4.292744335088111
4.298898807253093
4.292744335088111
4.298898807253093
4.298898807253093
4.292744335088111
4.292744335088111
4.292744335088111
4.2865898629231
4.305053279418103
4.2865898629231
4.2865898629231
4.292744335088111
4.292744335088111
4.292744335088111
4.2865898629231
4.280435390758092
4.298898807253093
4.2865898629231
4.292744335088111
4.298898807253093
4.292744335088111
4.292744335088111
4.298898807253093
4.292744335088111
4.305053279418103
4.305053279418103
4.305053279418103
4.305053279418103
4.298898807253093
4.305053279418103
4.292744335088111
4.298898807253093
4.305053279418103
4.298898807253093
4.305053279418103
4.3112077515831135
4.305053279418103
4.3112077515831135
4.305053279418103
4.3112077515831135
4.3173622237481215
4.3112077515831135
4.3173622237481215
4.323516695913104
4.323516695913104
4.323516695913104
4.323516695913104
4.329671168078114
4.3173622237481215
4.323516695913104
4.329671168078114
4.329671168078114
4.335825640243124
4.335825640243124
4.335825640243124
4.341980112408105
4.348134584573115
4.341980112408105
4.348134584573115
4.341980112408105
4.348134584573115
4.354289056738125
4.335825640243124
4.335825640243124
4.335825640243124
4.3173622237481215
4.2681264464281
4.329671168078114
4.335825640243124
4.3112077515831135
4.292744335088111
4.298898807253093
4.305053279418103
4.298898807253093
4.298898807253093
4.292744335088111
4.298898807253093
4.292744335088111
4.292744335088111
4.292744335088111
4.292744335088111
4.292744335088111
4.298898807253093
4.298898807253093
4.292744335088111
4.2865898629231
4.298898807253093
4.298898807253093
4.305053279418103
4.305053279418103
4.298898807253093
4.298898807253093
4.298898807253093
4.292744335088111
4.298898807253093
4.298898807253093
4.305053279418103
4.305053279418103
4.298898807253093
4.298898807253093
4.298898807253093
4.292744335088111
4.305053279418103
4.298898807253093
4.298898807253093
4.298898807253093
4.292744335088111
4.292744335088111
4.2865898629231
4.292744335088111
4.298898807253093
4.298898807253093
4.298898807253093
4.298898807253093
4.298898807253093
4.298898807253093
4.2865898629231
4.298898807253093
4.292744335088111
4.292744335088111
4.292744335088111
4.298898807253093
4.292744335088111
4.298898807253093
4.292744335088111
4.2865898629231
4.298898807253093
4.292744335088111
4.292744335088111
4.292744335088111
4.298898807253093
4.298898807253093
4.292744335088111
4.292744335088111
4.298898807253093
4.292744335088111
4.292744335088111
4.292744335088111
4.298898807253093
4.292744335088111
4.2865898629231
4.292744335088111
4.298898807253093
4.292744335088111
4.305053279418103
4.305053279418103
4.298898807253093
4.2865898629231
4.2865898629231
4.298898807253093
4.305053279418103
4.298898807253093
4.305053279418103
4.305053279418103
4.298898807253093
4.305053279418103
4.292744335088111
4.305053279418103
4.298898807253093
4.292744335088111
4.305053279418103
4.298898807253093
4.305053279418103
4.292744335088111
4.298898807253093
4.305053279418103
4.298898807253093
4.298898807253093
4.298898807253093
4.305053279418103
4.305053279418103
4.298898807253093
4.298898807253093
4.3173622237481215
4.3173622237481215
4.305053279418103
4.305053279418103
4.3112077515831135
4.305053279418103
4.305053279418103
4.298898807253093
4.305053279418103
4.292744335088111
4.305053279418103
4.3112077515831135
4.3112077515831135
4.292744335088111
4.1942727804480935
4.2065817247780855
4.305053279418103
4.3173622237481215
4.3112077515831135
4.305053279418103
4.3112077515831135
4.305053279418103
4.2865898629231
4.292744335088111
4.292744335088111
4.292744335088111
4.298898807253093
4.3112077515831135
4.298898807253093
4.292744335088111
4.298898807253093
4.305053279418103
4.3112077515831135
4.3112077515831135
4.323516695913104
4.3173622237481215
4.3112077515831135
4.305053279418103
4.3112077515831135
4.323516695913104
4.323516695913104
4.323516695913104
4.329671168078114
4.341980112408105
4.335825640243124
4.323516695913104
4.329671168078114
4.335825640243124
4.329671168078114
4.323516695913104
4.329671168078114
4.329671168078114
4.329671168078114
4.323516695913104
4.329671168078114
4.335825640243124
4.335825640243124
4.348134584573115
4.360443528903107
4.37890694539811
4.391215889728128
4.40967930622313
4.421988250553122
4.434297194883113
4.440451667048122
4.434297194883113
4.446606139213133
4.452760611378115
4.465069555708134
4.471224027873144
4.489687444368147
4.508150860863147
4.514305333028129
4.520459805193139
4.526614277358149
4.5327687495231315
4.538923221688139
4.563541110348153
4.557386638183142
4.563541110348153
4.563541110348153
4.575850054678144
4.631240304163148
4.705093970143154
4.7912565804531795
4.858955774268176
4.883573662928187
4.846646829938185
4.7297118588031655
4.6435492484931675
4.575850054678144
4.5943134711731455
4.618931359833156
4.655858192823159
4.692785025813162
4.7297118588031655
4.7297118588031655
4.754329747463175
4.754329747463175
4.760484219628157
4.766638691793168
4.797411052618189
4.81587446911319
4.834337885608192
4.840492357773174
4.846646829938185
4.969736273238212
5.043589939218219
5.012817578393197
5.000508634063205
4.963581801073202
4.91434602375318
4.8651102464331855
4.834337885608192
4.809719996948181
4.760484219628157
4.7297118588031655
4.717402914473173
4.686630553648152
4.655858192823159
4.631240304163148
4.612776887668146
4.588158999008135
4.557386638183142
4.54507769385315
4.54507769385315
4.526614277358149
4.514305333028129
4.495841916533128
4.483532972203136
4.458915083543125
4.440451667048122
4.440451667048122
4.428142722718132
4.421988250553122
4.415833778388112
4.391215889728128
4.323516695913104
4.385061417563119
4.3727524732331275
4.366598001068117
4.366598001068117
4.360443528903107
4.354289056738125
4.354289056738125
4.354289056738125
4.348134584573115
4.341980112408105
4.335825640243124
4.335825640243124
4.335825640243124
4.323516695913104
4.329671168078114
4.335825640243124
4.335825640243124
4.3173622237481215
4.3173622237481215
4.323516695913104
4.3112077515831135
4.3112077515831135
4.3173622237481215
4.305053279418103
4.305053279418103
4.298898807253093
4.298898807253093
4.298898807253093
4.2865898629231
4.27428091859311
4.2681264464281
4.255817502098108
4.237354085603107
4.243508557768089
4.243508557768089
4.249663029933098
4.243508557768089
4.231199613438097
4.225045141273086
4.231199613438097
4.218890669108104
4.212736196943095
4.212736196943095
4.2065817247780855
4.2065817247780855
4.212736196943095
4.2065817247780855
4.2065817247780855
4.200427252613103
4.200427252613103
4.200427252613103
4.200427252613103
4.2065817247780855
4.2065817247780855
4.200427252613103
4.200427252613103
4.200427252613103
4.200427252613103
4.200427252613103
4.212736196943095
4.2065817247780855
4.2065817247780855
4.200427252613103
4.200427252613103
4.200427252613103
4.2065817247780855
4.2065817247780855
4.212736196943095
4.2065817247780855
4.2065817247780855
4.2065817247780855
4.200427252613103
4.2065817247780855
4.200427252613103
4.200427252613103
4.2065817247780855
4.2065817247780855
4.200427252613103
4.2065817247780855
4.1942727804480935
4.200427252613103
4.2065817247780855
4.200427252613103
4.2065817247780855
4.200427252613103
4.2065817247780855
4.2065817247780855
4.1942727804480935
4.2065817247780855
4.200427252613103
4.2065817247780855
4.200427252613103
4.200427252613103
4.200427252613103
4.200427252613103
4.1942727804480935
4.2065817247780855
4.200427252613103
4.2065817247780855
4.2065817247780855
4.2065817247780855
4.200427252613103
4.1942727804480935
4.200427252613103
4.200427252613103
4.200427252613103
4.2065817247780855
4.200427252613103
4.200427252613103
4.200427252613103
4.200427252613103
4.2065817247780855
4.212736196943095
4.2065817247780855
4.2065817247780855
4.2065817247780855
4.212736196943095
4.2065817247780855
4.2065817247780855
4.2065817247780855
4.1942727804480935
4.151191475293081
