3.9604028381780574
3.9973296711680604
3.7449963124030208
4.3112077515831135
3.529589786627985
4.40967930622313
3.2403295948729705
4.698939497978172
3.178784873222956
4.785102108288171
3.271101955697964
4.785102108288171
3.1726304010579467
4.501996388698137
3.486508481473
4.2681264464281
3.75730525673304
3.9357849495180455
3.9850207268380675
3.738841840238039
4.2681264464281
3.332646677347978
4.508150860863147
3.277256427862973
4.686630553648152
3.560362147453006
4.9389639124131905
3.271101955697964
4.668167137153151
2.9510694031179288
4.711248442308165
3.634215813433012
4.2681264464281
3.800386561888025
3.9173215330230438
4.145037003128072
3.732687368073029
4.225045141273086
3.394191398997992
4.1327280587980795
2.871061264972913
4.649703720658149
3.1357035680679433
4.754329747463175
3.277256427862973
4.606622415503137
3.271101955697964
4.385061417563119
3.5234353144630024
4.169654891788083
3.695760535083026
4.009638615498079
4.0711833371480655
3.5972889804430093
4.385061417563119
3.271101955697964
4.477378500038126
3.2280206505429514
4.723557386638155
3.178784873222956
4.686630553648152
3.0864677907479487
4.649703720658149
3.3388011495129604
4.40967930622313
3.591134508277999
4.1758093639530935
4.188118308283084
4.003484143333068
4.065028864983084
3.6219068691030203
4.434297194883113
3.3449556216779697
4.54507769385315
3.283410900027955
4.785102108288171
3.166475928892937
4.67432160931816
3.2280206505429514
4.606622415503137
3.394191398997992
4.575850054678144
3.8803947000330408
4.169654891788083
3.8803947000330408
3.75730525673304
4.200427252613103
4.3112077515831135
6.052923374278346
3.1049312072429505
4.5943134711731455
2.655654739197877
3.141858040232953
2.8156710154879088
4.662012664988168
2.778744182497905
3.9911751990030497
3.289565372192965
4.2681264464281
4.335825640243124
3.634215813433012
3.578825563948007
3.732687368073029
4.108110170138069
3.5972889804430093
4.434297194883113
3.2957198443579747
4.711248442308165
3.1357035680679433
5.098980188703223
3.7757686732280415
4.686630553648152
3.2403295948729705
4.618931359833156
3.461890592812989
4.458915083543125
3.634215813433012
4.040410976323072
3.9788662546730578
3.7942320897230433
4.225045141273086
3.541898730958004
4.471224027873144
3.117240151572942
3.886549172198051
3.055695429922928
4.760484219628157
3.074158846417929
4.54507769385315
3.277256427862973
4.625085831998166
3.5357442587929944
4.1942727804480935
3.6649881742580046
4.034256504158063
3.9665573103430654
3.677297118588024
4.440451667048122
3.788077617558033
5.695963988708308
4.212736196943095
4.520459805193139
3.3203377330179586
4.760484219628157
3.1480125123979352
4.668167137153151
3.301874316522957
3.437272704152977
2.249459576307816
4.151191475293081
3.7449963124030208
3.9973296711680604
3.7265328959080186
3.541898730958004
4.249663029933098
3.504971897968001
4.37890694539811
3.264947483532954
4.588158999008135
3.1295490959029335
4.711248442308165
3.0864677907479487
4.649703720658149
3.375727982502963
4.40967930622313
3.4557361206479786
4.058874392818074
3.6896060629180156
3.9234760051880535
4.009638615498079
3.671142646423015
4.335825640243124
3.332646677347978
4.440451667048122
3.166475928892937
4.655858192823159
3.1726304010579467
4.735866330968175
3.1049312072429505
4.828183413443182
3.449581648482997
4.397370361893111
3.437272704152977
4.138882530963089
3.837313394878028
3.9173215330230438
4.077337809313075
3.61575239693801
4.237354085603107
3.4311182319879947
4.526614277358149
3.2464840670379527
4.67432160931816
3.2280206505429514
5.19129727117823
3.35111009384298
4.557386638183142
3.4311182319879947
4.421988250553122
3.541898730958004
4.163500419623101
3.8619312835380395
3.7757686732280415
3.9665573103430654
3.9050125886930522
4.3173622237481215
3.4126548154929934
4.557386638183142
2.723353933012873
5.320541186643241
4.54507769385315
2.944914930952919
2.5325652958978484
4.526614277358149
3.35111009384298
4.40967930622313
3.609597924773
4.108110170138069
3.9173215330230438
3.825004450548036
4.034256504158063
3.5665166196180156
4.834337885608192
3.5357442587929944
4.588158999008135
3.166475928892937
4.717402914473173
3.1480125123979352
4.662012664988168
3.1849393453879378
4.54507769385315
3.406500343327984
4.385061417563119
3.61575239693801
4.114264642303079
3.8803947000330408
3.308028788687967
3.9727117825080476
3.486508481473
4.360443528903107
3.3141832608529764
4.557386638183142
3.1972482897179573
4.705093970143154
3.0003051804379233
4.68047608148317
3.166475928892937
4.520459805193139
3.301874316522957
4.434297194883113
4.27428091859311
4.2865898629231
3.8619312835380395
3.7696142010630322
4.1942727804480935
3.578825563948007
4.465069555708134
3.271101955697964
4.692785025813162
3.160321456727955
4.686630553648152
3.2034027618829395
4.7297118588031655
3.258793011367972
4.009638615498079
3.0126141247679152
4.261971974263091
3.6834515907530063
3.9604028381780574
4.028102031993082
3.7696142010630322
4.157345947458091
3.363419038172971
4.169654891788083
3.671142646423015
4.68047608148317
3.1233946237379517
4.717402914473173
3.609597924773
5.025126522723218
3.221866178377941
4.508150860863147
3.548053203123014
4.212736196943095
3.6834515907530063
3.9850207268380675
3.9727117825080476
3.788077617558033
4.280435390758092
3.437272704152977
4.575850054678144
3.2464840670379527
4.341980112408105
2.760280766002876
4.7297118588031655
3.141858040232953
4.778947636123188
3.2957198443579747
4.649703720658149
3.504971897968001
4.292744335088111
3.8434678670430373
3.948093893848065
4.058874392818074
3.7265328959080186
4.2865898629231
3.6219068691030203
4.569695582513134
3.264947483532954
4.686630553648152
3.1357035680679433
4.754329747463175
3.1972482897179573
4.705093970143154
3.437272704152977
4.341980112408105
3.541898730958004
4.27428091859311
3.8126955062180454
3.9111670608580615
4.1327280587980795
3.6649881742580046
4.40352483405812
3.35111009384298
4.551232166018132
3.301874316522957
4.81587446911319
3.1726304010579467
4.7420208031331565
3.221866178377941
4.754329747463175
3.7696142010630322
5.646728211388286
3.800386561888025
4.305053279418103
3.831158922713046
3.8680857557030492
4.114264642303079
2.391012436102846
3.468045064977998
3.35111009384298
4.514305333028129
3.191093817552948
4.711248442308165
3.117240151572942
4.717402914473173
3.221866178377941
4.538923221688139
3.3141832608529764
4.188118308283084
3.554207675287996
4.1758093639530935
3.8680857557030492
3.8680857557030492
4.212736196943095
3.628061341268002
4.3727524732331275
3.357264566007961
4.514305333028129
3.191093817552948
4.7420208031331565
3.1233946237379517
4.932809440248209
3.449581648482997
4.606622415503137
3.418809287657976
4.3727524732331275
3.5665166196180156
4.163500419623101
3.9419394216830552
3.7696142010630322
3.9850207268380675
3.61575239693801
4.446606139213133
3.271101955697964
4.563541110348153
3.1972482897179573
4.520459805193139
3.0126141247679152
4.6004679433381535
3.1480125123979352
4.557386638183142
3.4126548154929934
4.27428091859311
3.6465247577630033
4.065028864983084
3.9234760051880535
3.652679229928013
4.145037003128072
3.541898730958004
4.495841916533128
3.363419038172971
4.5943134711731455
3.2957198443579747
4.766638691793168
2.729508405177883
4.932809440248209
3.264947483532954
4.557386638183142
3.424963759822985
4.280435390758092
3.720378423743037
4.0465654484880815
3.8496223392080475
3.8619312835380395
4.748175275298167
3.7265328959080186
4.452760611378115
3.3880369268329824
4.723557386638155
3.301874316522957
4.705093970143154
3.141858040232953
4.67432160931816
3.289565372192965
4.606622415503137
3.4988174258029914
4.40352483405812
3.671142646423015
3.468045064977998
3.7942320897230433
3.701915007248036
4.261971974263091
3.5172808422979926
4.551232166018132
3.289565372192965
4.625085831998166
3.178784873222956
4.809719996948181
3.074158846417929
4.655858192823159
3.271101955697964
4.575850054678144
3.541898730958004
4.3173622237481215
3.701915007248036
3.9788662546730578
4.0465654484880815
3.677297118588024
4.261971974263091
3.511126370132983
5.308232242313249
2.8095165433228986
4.292744335088111
3.2095572340479492
4.7420208031331565
3.1480125123979352
4.6435492484931675
3.4741995371429804
4.551232166018132
3.4126548154929934
4.169654891788083
3.781923145393024
4.538923221688139
5.295923297983257
3.8496223392080475
4.341980112408105
3.3449556216779697
4.021947559828071
3.3880369268329824
4.932809440248209
3.357264566007961
4.797411052618189
3.0987767350779407
4.662012664988168
2.4894839907428636
3.154166984562945
3.394191398997992
4.138882530963089
3.8496223392080475
3.9050125886930522
4.089646753643067
3.671142646423015
4.341980112408105
3.418809287657976
4.434297194883113
2.9879962361079313
4.662012664988168
3.1480125123979352
4.723557386638155
3.1233946237379517
4.662012664988168
3.221866178377941
4.465069555708134
3.468045064977998
4.095801225808078
3.8496223392080475
3.948093893848065
4.335825640243124
3.781923145393024
4.2065817247780855
3.449581648482997
4.5820045268431535
3.141858040232953
4.692785025813162
3.1357035680679433
4.766638691793168
3.2403295948729705
4.477378500038126
3.381882454667973
4.421988250553122
3.6465247577630033
4.120419114468088
3.9419394216830552
3.9604028381780574
4.3112077515831135
3.578825563948007
4.421988250553122
3.424963759822985
4.67432160931816
3.2280206505429514
4.754329747463175
3.178784873222956
4.846646829938185
3.178784873222956
4.606622415503137
3.449581648482997
4.323516695913104
3.5357442587929944
4.065028864983084
3.8188499783830263
3.671142646423015
4.483532972203136
3.658833702093023
4.483532972203136
3.437272704152977
4.563541110348153
3.2957198443579747
4.8651102464331855
3.2403295948729705
4.655858192823159
3.2957198443579747
4.5943134711731455
3.449581648482997
4.415833778388112
3.701915007248036
4.1327280587980795
4.12657358663307
3.788077617558033
4.243508557768089
3.554207675287996
4.477378500038126
3.4311182319879947
4.698939497978172
3.258793011367972
5.135907021693225
3.628061341268002
4.797411052618189
3.308028788687967
4.637394776328158
3.4926629536379816
4.385061417563119
3.800386561888025
4.028102031993082
3.948093893848065
3.800386561888025
4.27428091859311
3.541898730958004
4.538923221688139
3.1480125123979352
4.280435390758092
3.0372320134279267
4.5820045268431535
3.1726304010579467
4.778947636123188
3.160321456727955
4.477378500038126
3.48035400930799
4.37890694539811
3.7942320897230433
3.8988581165280416
4.065028864983084
3.8065410340530352
4.391215889728128
3.511126370132983
5.025126522723218
4.181963836118102
3.332646677347978
2.754126293837894
4.67432160931816
3.1480125123979352
4.698939497978172
3.2280206505429514
4.458915083543125
3.554207675287996
4.243508557768089
3.658833702093023
4.0465654484880815
4.249663029933098
3.7080694794130173
4.292744335088111
3.4311182319879947
4.551232166018132
3.1972482897179573
4.686630553648152
3.0864677907479487
4.668167137153151
3.2095572340479492
4.692785025813162
3.301874316522957
4.40967930622313
3.5172808422979926
3.9542483660130467
3.677297118588024
3.9173215330230438
3.9973296711680604
3.7757686732280415
4.280435390758092
3.461890592812989
4.588158999008135
3.283410900027955
4.735866330968175
3.0864677907479487
4.7420208031331565
3.166475928892937
4.717402914473173
3.418809287657976
4.397370361893111
3.5972889804430093
4.243508557768089
3.886549172198051
3.9111670608580615
4.040410976323072
3.701915007248036
4.452760611378115
3.3203377330179586
4.563541110348153
3.264947483532954
4.735866330968175
3.2957198443579747
5.363622491798253
3.357264566007961
4.766638691793168
3.289565372192965
4.40352483405812
3.609597924773
4.1942727804480935
3.837313394878028
3.8126955062180454
3.8988581165280416
4.108110170138069
4.465069555708134
3.3264922051829684
4.526614277358149
2.55718318455786
4.40967930622313
3.2034027618829395
4.698939497978172
3.271101955697964
4.508150860863147
3.301874316522957
4.37890694539811
3.61575239693801
4.151191475293081
3.9111670608580615
3.855776811373057
4.188118308283084
3.560362147453006
4.563541110348153
3.258793011367972
4.575850054678144
3.2280206505429514
4.7297118588031655
3.1357035680679433
4.7297118588031655
3.117240151572942
4.631240304163148
3.363419038172971
4.335825640243124
3.6649881742580046
4.108110170138069
3.9850207268380675
3.8496223392080475
4.0465654484880815
3.548053203123014
4.428142722718132
3.289565372192965
4.563541110348153
3.234175122707961
4.754329747463175
3.1849393453879378
4.6004679433381535
3.2403295948729705
4.655858192823159
3.357264566007961
4.366598001068117
4.034256504158063
4.015793087663061
4.034256504158063
3.671142646423015
4.243508557768089
3.578825563948007
4.483532972203136
3.2957198443579747
4.6004679433381535
3.234175122707961
4.883573662928187
3.6649881742580046
5.9421428753083365
3.400345871162974
4.828183413443182
3.5665166196180156
4.237354085603107
3.591134508277999
2.667963683527869
3.2957198443579747
3.7142239515780275
4.249663029933098
3.548053203123014
4.538923221688139
3.2095572340479492
4.649703720658149
3.301874316522957
4.68047608148317
2.907988097962916
4.551232166018132
3.215711706212959
4.551232166018132
3.486508481473
4.3173622237481215
3.7757686732280415
3.9542483660130467
4.0465654484880815
3.7080694794130173
4.305053279418103
3.504971897968001
4.649703720658149
3.3695735103379807
4.754329747463175
3.141858040232953
4.760484219628157
3.191093817552948
4.662012664988168
3.3141832608529764
4.520459805193139
3.5665166196180156
4.169654891788083
3.7265328959080186
3.9973296711680604
4.052719920653064
3.640370285598021
4.323516695913104
3.504971897968001
4.508150860863147
3.221866178377941
4.6004679433381535
3.117240151572942
4.785102108288171
3.154166984562945
4.649703720658149
3.2957198443579747
4.588158999008135
3.5357442587929944
4.157345947458091
3.825004450548036
3.9542483660130467
4.1327280587980795
3.701915007248036
4.348134584573115
3.511126370132983
4.514305333028129
3.0126141247679152
5.06205335571322
3.1849393453879378
4.834337885608192
3.1233946237379517
4.631240304163148
3.4126548154929934
4.538923221688139
3.541898730958004
4.489687444368147
4.421988250553122
3.9727117825080476
4.151191475293081
3.658833702093023
4.932809440248209
5.357468019633243
4.434297194883113
3.191093817552948
4.7297118588031655
3.166475928892937
4.785102108288171
3.2526385392029624
4.785102108288171
1.2031993082576575
3.3388011495129604
3.541898730958004
4.089646753643067
3.9357849495180455
3.9111670608580615
4.157345947458091
3.7265328959080186
4.421988250553122
3.375727982502963
4.649703720658149
3.1726304010579467
4.711248442308165
3.221866178377941
4.809719996948181
3.394191398997992
4.557386638183142
3.357264566007961
4.514305333028129
3.6649881742580046
4.1327280587980795
3.948093893848065
3.8619312835380395
4.298898807253093
3.4311182319879947
4.421988250553122
3.381882454667973
4.606622415503137
3.215711706212959
4.625085831998166
3.055695429922928
4.840492357773174
3.1295490959029335
4.551232166018132
3.424963759822985
5.05589888354821
5.394394852623274
3.7942320897230433
3.9296304773530633
2.8033620711578893
3.006459652602933
3.4311182319879947
4.489687444368147
3.357264566007961
4.655858192823159
3.178784873222956
4.7297118588031655
3.2403295948729705
4.686630553648152
3.215711706212959
4.54507769385315
3.468045064977998
4.305053279418103
3.6896060629180156
4.058874392818074
3.9973296711680604
3.9973296711680604
5.05589888354821
3.6034434526080172
4.5327687495231315
3.271101955697964
4.698939497978172
3.2095572340479492
4.772793163958178
3.0249230690979347
4.692785025813162
3.258793011367972
4.563541110348153
3.437272704152977
4.348134584573115
3.671142646423015
3.461890592812989
3.738841840238039
3.7449963124030208
4.255817502098108
3.4926629536379816
4.428142722718132
3.3449556216779697
4.655858192823159
3.1726304010579467
4.662012664988168
3.154166984562945
4.612776887668146
3.1972482897179573
4.563541110348153
4.040410976323072
4.458915083543125
3.8065410340530352
3.7942320897230433
4.034256504158063
3.7265328959080186
4.298898807253093
3.424963759822985
4.520459805193139
3.3141832608529764
4.637394776328158
3.0249230690979347
4.711248442308165
2.9572238752829105
4.065028864983084
3.548053203123014
4.551232166018132
3.48035400930799
4.280435390758092
3.732687368073029
3.8434678670430373
4.028102031993082
3.7265328959080186
4.335825640243124
3.418809287657976
4.557386638183142
3.2280206505429514
4.631240304163148
3.0249230690979347
4.569695582513134
3.1295490959029335
4.625085831998166
3.301874316522957
4.421988250553122
3.5357442587929944
4.138882530963089
3.75115078456803
3.837313394878028
4.108110170138069
3.677297118588024
4.3112077515831135
3.4557361206479786
4.557386638183142
3.1357035680679433
4.6435492484931675
3.1233946237379517
4.67432160931816
3.1726304010579467
4.686630553648152
3.35111009384298
4.40352483405812
3.5172808422979926
4.188118308283084
3.886549172198051
3.9173215330230438
4.151191475293081
4.231199613438097
4.828183413443182
3.375727982502963
4.563541110348153
3.301874316522957
4.772793163958178
3.1972482897179573
4.717402914473173
3.2526385392029624
4.686630553648152
3.3695735103379807
4.452760611378115
3.677297118588024
4.120419114468088
3.461890592812989
3.4126548154929934
4.7912565804531795
4.686630553648152
2.5694921288878514
3.055695429922928
4.5820045268431535
3.277256427862973
4.723557386638155
3.154166984562945
4.692785025813162
3.0987767350779407
4.501996388698137
3.3264922051829684
4.2681264464281
3.486508481473
4.077337809313075
3.9419394216830552
3.7696142010630322
4.261971974263091
3.61575239693801
4.37890694539811
3.449581648482997
4.625085831998166
3.2034027618829395
4.760484219628157
3.154166984562945
4.822028941278172
3.35111009384298
4.662012664988168
3.418809287657976
4.323516695913104
3.7142239515780275
4.114264642303079
3.9850207268380675
3.855776811373057
4.249663029933098
3.5357442587929944
4.434297194883113
3.35111009384298
4.618931359833156
3.1972482897179573
5.160524910353237
3.738841840238039
4.698939497978172
3.2526385392029624
4.655858192823159
3.4557361206479786
4.27428091859311
3.7449963124030208
4.12657358663307
4.120419114468088
3.652679229928013
4.218890669108104
3.5234353144630024
4.483532972203136
3.0310775412629165
4.151191475293081
3.154166984562945
4.778947636123188
3.080313318582939
4.692785025813162
3.264947483532954
4.538923221688139
3.486508481473
4.1327280587980795
3.48035400930799
4.360443528903107
4.003484143333068
3.695760535083026
4.391215889728128
3.4988174258029914
4.477378500038126
3.283410900027955
4.705093970143154
3.215711706212959
4.67432160931816
3.1233946237379517
4.686630553648152
3.289565372192965
4.538923221688139
3.5849800361130173
4.188118308283084
3.8927036443630603
3.9173215330230438
4.040410976323072
3.658833702093023
4.280435390758092
3.449581648482997
4.489687444368147
3.2526385392029624
4.686630553648152
3.080313318582939
4.735866330968175
3.117240151572942
4.631240304163148
3.2957198443579747
4.495841916533128
3.732687368073029
4.446606139213133
3.886549172198051
3.948093893848065
4.065028864983084
3.677297118588024
4.391215889728128
3.486508481473
4.563541110348153
3.381882454667973
4.637394776328158
3.191093817552948
4.797411052618189
3.1972482897179573
4.637394776328158
3.0310775412629165
4.501996388698137
3.529589786627985
4.095801225808078
3.8619312835380395
3.948093893848065
4.1942727804480935
3.7080694794130173
4.446606139213133
3.5234353144630024
4.5943134711731455
3.8619312835380395
6.452964065003453
2.9264515144579173
4.7420208031331565
3.2095572340479492
4.631240304163148
3.221866178377941
2.9141425701278982
3.0310775412629165
4.1327280587980795
3.886549172198051
3.9173215330230438
4.200427252613103
3.6219068691030203
4.452760611378115
3.3264922051829684
4.711248442308165
3.258793011367972
4.67432160931816
3.154166984562945
4.754329747463175
3.2280206505429514
4.686630553648152
3.437272704152977
4.385061417563119
3.6649881742580046
4.151191475293081
3.9050125886930522
3.8803947000330408
4.2065817247780855
4.12657358663307
6.182167289743385
3.191093817552948
4.994354161898196
3.215711706212959
4.828183413443182
3.2034027618829395
4.809719996948181
2.8218254876528905
2.9879962361079313
3.1233946237379517
4.465069555708134
3.671142646423015
4.028102031993082
4.015793087663061
4.243508557768089
4.397370361893111
3.560362147453006
4.40967930622313
3.400345871162974
4.67432160931816
3.2034027618829395
4.748175275298167
3.2034027618829395
4.637394776328158
3.375727982502963
4.501996388698137
3.4311182319879947
4.37890694539811
3.3695735103379807
3.855776811373057
3.9419394216830552
4.54507769385315
3.8434678670430373
3.1726304010579467
4.458915083543125
3.363419038172971
4.655858192823159
3.1726304010579467
4.717402914473173
3.283410900027955
4.705093970143154
3.1972482897179573
4.415833778388112
3.449581648482997
4.348134584573115
3.695760535083026
3.9727117825080476
4.138882530963089
3.738841840238039
4.231199613438097
3.468045064977998
4.465069555708134
3.3264922051829684
4.698939497978172
3.1357035680679433
4.828183413443182
3.1110856794079322
4.655858192823159
3.283410900027955
4.514305333028129
3.554207675287996
4.3173622237481215
3.634215813433012
3.7942320897230433
4.298898807253093
3.8988581165280416
4.323516695913104
3.5172808422979926
4.563541110348153
3.375727982502963
5.111289133033214
3.511126370132983
4.6435492484931675
3.2095572340479492
4.760484219628157
3.3141832608529764
4.54507769385315
3.634215813433012
4.261971974263091
3.886549172198051
3.8680857557030492
4.052719920653064
3.7696142010630322
4.3727524732331275
3.2526385392029624
4.298898807253093
3.2526385392029624
4.809719996948181
3.043386485592936
4.67432160931816
3.191093817552948
5.388240380458265
5.037435467053208
4.181963836118102
3.5234353144630024
2.994150708272913
2.8402889041478923
3.8496223392080475
4.052719920653064
3.6219068691030203
4.348134584573115
3.35111009384298
4.7297118588031655
3.375727982502963
4.606622415503137
3.1049312072429505
4.760484219628157
3.221866178377941
4.668167137153151
3.418809287657976
4.563541110348153
3.6034434526080172
4.305053279418103
3.8988581165280416
3.9111670608580615
4.188118308283084
3.695760535083026
4.40967930622313
3.468045064977998
4.698939497978172
3.2403295948729705
4.834337885608192
3.1726304010579467
4.8651102464331855
3.375727982502963
4.748175275298167
3.283410900027955
4.231199613438097
3.652679229928013
4.225045141273086
3.9911751990030497
3.9665573103430654
4.157345947458091
3.671142646423015
4.477378500038126
3.400345871162974
4.563541110348153
3.277256427862973
4.803565524783171
3.2095572340479492
5.185142799013221
3.7696142010630322
4.871264718598195
3.511126370132983
4.366598001068117
3.7142239515780275
4.157345947458091
3.9850207268380675
3.948093893848065
4.218890669108104
3.695760535083026
4.575850054678144
3.2957198443579747
4.655858192823159
3.221866178377941
4.612776887668146
3.449581648482997
4.797411052618189
3.283410900027955
4.575850054678144
3.3388011495129604
4.348134584573115
3.732687368073029
4.169654891788083
4.015793087663061
3.788077617558033
4.360443528903107
3.640370285598021
4.397370361893111
3.258793011367972
4.649703720658149
3.3388011495129604
4.772793163958178
3.1726304010579467
4.822028941278172
3.2957198443579747
4.612776887668146
3.511126370132983
4.348134584573115
3.8126955062180454
4.157345947458091
4.151191475293081
3.9727117825080476
4.335825640243124
3.5234353144630024
4.557386638183142
3.3388011495129604
4.655858192823159
3.264947483532954
4.834337885608192
3.1233946237379517
4.655858192823159
3.2526385392029624
4.637394776328158
3.554207675287996
4.261971974263091
3.7265328959080186
3.628061341268002
3.874240227868059
3.825004450548036
4.280435390758092
3.578825563948007
4.538923221688139
3.289565372192965
4.67432160931816
3.221866178377941
5.628264794893284
2.704890516517872
4.2681264464281
3.308028788687967
4.68047608148317
4.225045141273086
4.397370361893111
4.501996388698137
5.012817578393197
2.403321380432838
3.5357442587929944
4.305053279418103
3.48035400930799
4.588158999008135
3.2095572340479492
4.723557386638155
3.3203377330179586
4.705093970143154
3.0680043742529195
4.040410976323072
3.0310775412629165
4.465069555708134
3.4926629536379816
4.145037003128072
3.8680857557030492
3.8803947000330408
4.040410976323072
3.677297118588024
4.2865898629231
3.4126548154929934
4.575850054678144
3.166475928892937
4.7912565804531795
3.738841840238039
4.951272856743211
3.1849393453879378
4.618931359833156
3.3388011495129604
4.483532972203136
3.560362147453006
4.2681264464281
3.763459728898022
3.855776811373057
4.120419114468088
3.609597924773
4.305053279418103
3.3449556216779697
3.9234760051880535
2.8649067928079033
4.569695582513134
3.0987767350779407
4.717402914473173
3.049540957757918
4.569695582513134
3.308028788687967
4.385061417563119
3.7142239515780275
3.9665573103430654
3.8188499783830263
3.9604028381780574
4.188118308283084
4.360443528903107
4.754329747463175
3.461890592812989
4.760484219628157
3.1849393453879378
4.735866330968175
3.1972482897179573
4.760484219628157
3.1972482897179573
4.526614277358149
3.178784873222956
4.797411052618189
3.609597924773
4.089646753643067
3.2957198443579747
3.511126370132983
4.145037003128072
3.511126370132983
4.440451667048122
3.468045064977998
4.551232166018132
3.1972482897179573
4.705093970143154
3.141858040232953
4.772793163958178
3.215711706212959
4.575850054678144
3.449581648482997
4.415833778388112
3.677297118588024
4.0711833371480655
3.9727117825080476
3.7757686732280415
4.231199613438097
3.578825563948007
4.458915083543125
3.2526385392029624
4.67432160931816
3.1295490959029335
4.705093970143154
3.1726304010579467
4.717402914473173
3.2464840670379527
4.5820045268431535
3.363419038172971
4.415833778388112
3.720378423743037
4.052719920653064
4.021947559828071
3.781923145393024
4.452760611378115
5.591337961903281
4.421988250553122
3.271101955697964
4.717402914473173
3.166475928892937
5.037435467053208
3.548053203123014
4.526614277358149
1.6463213041377214
4.040410976323072
3.48035400930799
4.354289056738125
3.75115078456803
4.114264642303079
4.077337809313075
3.8988581165280416
4.366598001068117
4.120419114468088
6.176012817578375
2.895679153632896
4.237354085603107
3.215711706212959
4.7420208031331565
2.883370209302905
3.2095572340479492
2.7910531268278973
4.508150860863147
3.5357442587929944
4.366598001068117
3.7757686732280415
3.9911751990030497
4.089646753643067
3.874240227868059
4.686630553648152
3.9542483660130467
4.569695582513134
3.301874316522957
4.748175275298167
3.1726304010579467
4.7912565804531795
3.178784873222956
4.668167137153151
3.3388011495129604
4.5327687495231315
3.4988174258029914
4.305053279418103
3.837313394878028
3.671142646423015
3.695760535083026
3.720378423743037
4.348134584573115
3.4988174258029914
4.557386638183142
3.308028788687967
4.7420208031331565
3.166475928892937
4.840492357773174
3.2280206505429514
4.717402914473173
3.4434271763179867
4.440451667048122
3.634215813433012
4.188118308283084
3.855776811373057
3.8434678670430373
4.0711833371480655
3.6834515907530063
4.397370361893111
3.418809287657976
4.551232166018132
3.3141832608529764
4.803565524783171
3.049540957757918
4.7297118588031655
3.2464840670379527
4.7297118588031655
3.2403295948729705
4.329671168078114
3.5665166196180156
4.292744335088111
3.671142646423015
3.541898730958004
4.440451667048122
3.732687368073029
4.354289056738125
3.381882454667973
4.588158999008135
3.301874316522957
4.68047608148317
3.1295490959029335
4.637394776328158
3.1849393453879378
4.67432160931816
3.332646677347978
4.37890694539811
3.701915007248036
4.145037003128072
3.788077617558033
3.9788662546730578
4.145037003128072
3.609597924773
4.458915083543125
3.3388011495129604
4.7420208031331565
3.301874316522957
4.772793163958178
3.1972482897179573
4.760484219628157
3.2957198443579747
4.686630553648152
3.3880369268329824
4.465069555708134
3.609597924773
4.108110170138069
3.9357849495180455
3.825004450548036
4.138882530963089
3.738841840238039
4.834337885608192
3.4434271763179867
4.5943134711731455
3.2957198443579747
4.822028941278172
3.160321456727955
4.735866330968175
3.215711706212959
4.68047608148317
3.5172808422979926
4.255817502098108
3.7265328959080186
4.1327280587980795
4.034256504158063
3.363419038172971
3.9850207268380675
3.658833702093023
4.520459805193139
3.2095572340479492
4.569695582513134
3.2403295948729705
5.468248518603279
4.797411052618189
4.335825640243124
3.1480125123979352
3.234175122707961
2.649500267032867
4.218890669108104
3.8803947000330408
4.040410976323072
4.015793087663061
3.8065410340530352
4.249663029933098
3.529589786627985
4.440451667048122
3.2464840670379527
4.6004679433381535
3.191093817552948
4.785102108288171
3.117240151572942
4.723557386638155
3.3388011495129604
4.618931359833156
3.5172808422979926
4.27428091859311
3.7696142010630322
4.065028864983084
4.058874392818074
3.75730525673304
4.329671168078114
3.4311182319879947
4.495841916533128
3.264947483532954
4.692785025813162
3.1726304010579467
4.735866330968175
2.8218254876528905
4.67432160931816
3.35111009384298
4.538923221688139
3.548053203123014
4.231199613438097
3.788077617558033
4.058874392818074
4.145037003128072
3.720378423743037
4.249663029933098
3.4926629536379816
4.575850054678144
3.2464840670379527
4.625085831998166
3.0618499020879373
4.7912565804531795
3.1233946237379517
4.557386638183142
3.3203377330179586
4.5327687495231315
3.486508481473
4.200427252613103
3.831158922713046
4.015793087663061
4.120419114468088
3.677297118588024
4.3727524732331275
3.7265328959080186
4.452760611378115
3.511126370132983
4.772793163958178
3.191093817552948
4.754329747463175
3.1049312072429505
4.637394776328158
3.375727982502963
4.508150860863147
3.5172808422979926
4.163500419623101
3.9419394216830552
3.831158922713046
4.27428091859311
3.7696142010630322
4.3727524732331275
3.424963759822985
4.6004679433381535
3.2526385392029624
4.766638691793168
3.1110856794079322
4.735866330968175
3.2280206505429514
4.612776887668146
3.3880369268329824
4.520459805193139
3.658833702093023
4.021947559828071
3.6834515907530063
3.9111670608580615
4.2065817247780855
3.6219068691030203
4.415833778388112
3.437272704152977
4.67432160931816
3.3264922051829684
4.637394776328158
3.2095572340479492
4.822028941278172
3.2280206505429514
4.668167137153151
3.504971897968001
4.508150860863147
3.7696142010630322
4.095801225808078
3.9234760051880535
3.9111670608580615
4.181963836118102
3.4741995371429804
4.446606139213133
3.4311182319879947
4.760484219628157
3.1480125123979352
4.655858192823159
3.1357035680679433
4.662012664988168
3.0680043742529195
4.54507769385315
3.9665573103430654
4.649703720658149
2.655654739197877
3.9727117825080476
3.9604028381780574
3.874240227868059
4.3112077515831135
3.554207675287996
4.440451667048122
3.5234353144630024
4.6435492484931675
3.628061341268002
5.505175351593283
3.3141832608529764
4.754329747463175
3.289565372192965
4.637394776328158
3.5972889804430093
4.3173622237481215
3.7449963124030208
4.034256504158063
3.9911751990030497
3.8188499783830263
4.2681264464281
3.640370285598021
4.237354085603107
2.5141018794028467
4.557386638183142
3.141858040232953
4.858955774268176
3.1480125123979352
4.7297118588031655
3.332646677347978
4.655858192823159
3.400345871162974
4.40967930622313
3.701915007248036
4.003484143333068
4.021947559828071
3.9173215330230438
4.292744335088111
3.578825563948007
4.446606139213133
3.3141832608529764
4.723557386638155
3.160321456727955
4.717402914473173
3.166475928892937
4.766638691793168
3.3141832608529764
4.385061417563119
3.468045064977998
4.298898807253093
3.831158922713046
4.028102031993082
3.9850207268380675
3.8619312835380395
6.169858345413365
3.332646677347978
4.760484219628157
3.289565372192965
4.68047608148317
3.1049312072429505
4.692785025813162
3.0680043742529195
3.166475928892937
2.4648661020828517
4.477378500038126
3.4434271763179867
4.243508557768089
3.720378423743037
3.9111670608580615
4.114264642303079
3.8065410340530352
4.2681264464281
3.437272704152977
4.5327687495231315
3.264947483532954
4.754329747463175
3.092622262912931
4.766638691793168
3.3880369268329824
5.419012741283257
3.4988174258029914
4.495841916533128
3.572671091782997
4.2681264464281
3.874240227868059
3.9234760051880535
4.1942727804480935
3.6649881742580046
4.335825640243124
3.418809287657976
4.588158999008135
3.234175122707961
4.618931359833156
2.483329518577854
4.391215889728128
3.1295490959029335
4.631240304163148
3.289565372192965
4.397370361893111
3.609597924773
4.181963836118102
3.8927036443630603
3.9111670608580615
4.077337809313075
3.628061341268002
4.489687444368147
3.400345871162974
4.54507769385315
3.1849393453879378
4.766638691793168
3.141858040232953
4.692785025813162
3.2034027618829395
4.631240304163148
3.3264922051829684
4.360443528903107
3.548053203123014
3.837313394878028
3.9296304773530633
4.649703720658149
5.775972126853325
3.2957198443579747
4.27428091859311
3.3203377330179586
4.5943134711731455
2.7171994608478913
3.1295490959029335
2.766435238167886
4.692785025813162
3.1972482897179573
4.5327687495231315
3.35111009384298
4.335825640243124
5.455939574273261
3.154166984562945
3.308028788687967
3.8496223392080475
4.083492281478085
3.548053203123014
4.391215889728128
3.332646677347978
4.588158999008135
3.074158846417929
4.717402914473173
3.0249230690979347
4.637394776328158
3.2280206505429514
4.6004679433381535
3.3264922051829684
4.1758093639530935
3.418809287657976
3.9850207268380675
3.8927036443630603
3.732687368073029
4.188118308283084
3.504971897968001
4.415833778388112
3.3203377330179586
4.501996388698137
3.1049312072429505
4.723557386638155
3.166475928892937
4.705093970143154
3.234175122707961
4.452760611378115
3.5357442587929944
4.181963836118102
3.634215813433012
4.065028864983084
4.021947559828071
3.658833702093023
4.225045141273086
3.560362147453006
4.588158999008135
3.160321456727955
4.625085831998166
3.221866178377941
4.9266549680832
3.221866178377941
4.7297118588031655
3.277256427862973
4.446606139213133
3.437272704152977
3.9788662546730578
4.034256504158063
4.065028864983084
3.9850207268380675
3.7449963124030208
4.3112077515831135
3.634215813433012
4.421988250553122
3.1972482897179573
4.5327687495231315
3.1295490959029335
4.754329747463175
3.2034027618829395
4.692785025813162
3.3203377330179586
4.421988250553122
3.4988174258029914
4.169654891788083
3.763459728898022
3.9911751990030497
4.003484143333068
3.6834515907530063
4.538923221688139
3.381882454667973
4.465069555708134
3.2095572340479492
4.618931359833156
3.166475928892937
4.735866330968175
3.1110856794079322
4.67432160931816
3.2034027618829395
4.446606139213133
3.504971897968001
4.157345947458091
3.75115078456803
3.9357849495180455
3.9850207268380675
3.5357442587929944
4.163500419623101
3.4988174258029914
4.514305333028129
3.1972482897179573
4.637394776328158
3.0987767350779407
4.754329747463175
3.141858040232953
4.477378500038126
3.277256427862973
4.458915083543125
3.732687368073029
4.231199613438097
3.788077617558033
3.9788662546730578
4.058874392818074
3.437272704152977
4.341980112408105
3.48035400930799
5.283614353653238
4.9266549680832
4.3727524732331275
2.9141425701278982
3.2403295948729705
2.5387197680628577
4.637394776328158
3.4557361206479786
4.360443528903107
3.572671091782997
4.083492281478085
3.8619312835380395
3.8803947000330408
3.9911751990030497
3.560362147453006
4.3112077515831135
3.3880369268329824
4.551232166018132
3.141858040232953
4.717402914473173
3.018768596932925
4.446606139213133
3.1480125123979352
4.514305333028129
3.424963759822985
4.428142722718132
3.5972889804430093
4.145037003128072
3.874240227868059
3.7696142010630322
4.12657358663307
3.5357442587929944
4.335825640243124
3.332646677347978
4.588158999008135
3.1233946237379517
4.575850054678144
3.055695429922928
4.655858192823159
3.0864677907479487
4.446606139213133
3.2957198443579747
4.329671168078114
3.572671091782997
3.874240227868059
3.738841840238039
3.7080694794130173
4.0465654484880815
3.394191398997992
4.366598001068117
3.1849393453879378
4.508150860863147
2.9818417639429216
4.520459805193139
3.0680043742529195
4.6004679433381535
3.0680043742529195
4.434297194883113
3.3695735103379807
4.034256504158063
3.6896060629180156
4.021947559828071
4.077337809313075
4.428142722718132
4.108110170138069
3.7757686732280415
4.520459805193139
3.418809287657976
4.606622415503137
3.1110856794079322
4.717402914473173
3.2034027618829395
4.711248442308165
3.2403295948729705
4.557386638183142
3.6219068691030203
4.2065817247780855
2.8095165433228986
3.658833702093023
3.9604028381780574
3.7265328959080186
4.2681264464281
3.5234353144630024
4.54507769385315
3.264947483532954
4.6004679433381535
3.0864677907479487
4.662012664988168
3.1480125123979352
4.67432160931816
3.332646677347978
5.468248518603279
3.6896060629180156
4.2065817247780855
3.677297118588024
3.9357849495180455
3.9973296711680604
3.634215813433012
4.323516695913104
3.529589786627985
4.348134584573115
3.178784873222956
4.551232166018132
3.018768596932925
4.625085831998166
2.4587116299178424
4.237354085603107
3.221866178377941
4.261971974263091
3.357264566007961
4.108110170138069
3.6834515907530063
3.8496223392080475
3.9850207268380675
3.6465247577630033
4.335825640243124
3.2464840670379527
4.440451667048122
3.2464840670379527
4.846646829938185
3.117240151572942
4.668167137153151
3.781923145393024
6.034459957783345
3.049540957757918
4.397370361893111
3.541898730958004
4.1758093639530935
3.7757686732280415
3.8619312835380395
3.9911751990030497
3.8065410340530352
3.732687368073029
3.449581648482997
4.40967930622313
3.160321456727955
4.668167137153151
3.191093817552948
4.551232166018132
1.7878741639327511
3.720378423743037
3.2095572340479492
4.354289056738125
3.5665166196180156
4.157345947458091
3.8188499783830263
3.874240227868059
4.249663029933098
3.695760535083026
4.348134584573115
3.271101955697964
4.508150860863147
3.1849393453879378
4.655858192823159
3.1049312072429505
4.840492357773174
3.141858040232953
4.563541110348153
3.277256427862973
4.360443528903107
3.5972889804430093
4.631240304163148
4.298898807253093
3.886549172198051
4.0711833371480655
3.6465247577630033
4.415833778388112
3.3203377330179586
4.557386638183142
3.2095572340479492
4.778947636123188
3.1295490959029335
4.655858192823159
3.1972482897179573
4.612776887668146
2.9264515144579173
3.75730525673304
3.658833702093023
4.151191475293081
3.886549172198051
3.701915007248036
4.200427252613103
3.6034434526080172
4.458915083543125
3.375727982502963
4.625085831998166
3.283410900027955
4.7912565804531795
3.191093817552948
4.748175275298167
3.191093817552948
4.563541110348153
3.437272704152977
4.366598001068117
3.4926629536379816
4.108110170138069
4.188118308283084
3.75730525673304
4.163500419623101
3.5972889804430093
4.471224027873144
3.308028788687967
4.692785025813162
3.2464840670379527
4.692785025813162
3.166475928892937
4.668167137153151
3.2403295948729705
4.655858192823159
3.486508481473
4.335825640243124
3.732687368073029
4.052719920653064
4.040410976323072
3.738841840238039
4.157345947458091
3.671142646423015
4.705093970143154
3.658833702093023
4.67432160931816
3.1849393453879378
4.785102108288171
3.234175122707961
4.711248442308165
3.289565372192965
4.5943134711731455
3.4926629536379816
4.2681264464281
3.7142239515780275
4.034256504158063
4.058874392818074
3.5849800361130173
3.8927036443630603
3.418809287657976
5.185142799013221
2.766435238167886
4.255817502098108
3.080313318582939
4.723557386638155
3.0618499020879373
4.557386638183142
3.2034027618829395
4.520459805193139
3.308028788687967
4.7912565804531795
5.591337961903281
3.9296304773530633
3.9419394216830552
3.5234353144630024
4.145037003128072
2.661809211362886
2.975687291777912
2.907988097962916
4.520459805193139
3.0372320134279267
4.520459805193139
3.0126141247679152
4.631240304163148
3.2464840670379527
4.243508557768089
2.9879962361079313
3.9357849495180455
3.6465247577630033
3.831158922713046
3.948093893848065
3.4988174258029914
4.261971974263091
3.2280206505429514
4.3727524732331275
3.074158846417929
4.538923221688139
3.0680043742529195
4.67432160931816
3.215711706212959
5.018972050558207
3.277256427862973
4.465069555708134
3.511126370132983
4.108110170138069
3.8126955062180454
3.8619312835380395
4.028102031993082
3.6219068691030203
4.163500419623101
3.35111009384298
4.483532972203136
3.1972482897179573
4.6004679433381535
3.074158846417929
4.692785025813162
3.166475928892937
4.446606139213133
3.308028788687967
4.415833778388112
3.572671091782997
4.151191475293081
3.825004450548036
3.886549172198051
4.237354085603107
3.4926629536379816
4.305053279418103
3.363419038172971
4.292744335088111
3.1233946237379517
4.692785025813162
3.1726304010579467
4.8528013021031935
2.9818417639429216
4.298898807253093
3.658833702093023
4.526614277358149
3.652679229928013
4.114264642303079
3.8988581165280416
3.9727117825080476
4.077337809313075
3.504971897968001
4.292744335088111
3.3203377330179586
4.612776887668146
3.141858040232953
4.797411052618189
3.308028788687967
4.655858192823159
3.191093817552948
4.5943134711731455
3.4311182319879947
4.434297194883113
3.6465247577630033
4.1942727804480935
4.089646753643067
3.8126955062180454
4.151191475293081
3.658833702093023
4.489687444368147
3.400345871162974
4.618931359833156
3.289565372192965
4.7912565804531795
3.092622262912931
4.754329747463175
3.221866178377941
4.563541110348153
3.578825563948007
4.9389639124131905
4.040410976323072
4.12657358663307
3.9111670608580615
3.855776811373057
4.298898807253093
3.5665166196180156
4.514305333028129
3.381882454667973
4.668167137153151
3.1972482897179573
4.686630553648152
3.1972482897179573
4.711248442308165
2.8402889041478923
4.237354085603107
3.406500343327984
4.421988250553122
3.800386561888025
3.9850207268380675
4.021947559828071
3.800386561888025
4.8528013021031935
4.785102108288171
4.655858192823159
3.092622262912931
3.0680043742529195
2.680272627857888
4.711248442308165
3.117240151572942
4.7297118588031655
3.258793011367972
4.489687444368147
3.554207675287996
4.348134584573115
3.732687368073029
3.9234760051880535
4.0465654484880815
3.75115078456803
4.255817502098108
3.486508481473
4.538923221688139
3.7265328959080186
4.945118384578201
3.215711706212959
4.735866330968175
3.0864677907479487
4.711248442308165
3.308028788687967
4.458915083543125
3.560362147453006
4.218890669108104
3.7696142010630322
3.9111670608580615
4.077337809313075
3.7142239515780275
3.8988581165280416
2.994150708272913
4.458915083543125
3.271101955697964
4.686630553648152
3.1357035680679433
4.686630553648152
3.234175122707961
4.7297118588031655
4.1758093639530935
4.0465654484880815
3.1049312072429505
4.261971974263091
3.9173215330230438
4.37890694539811
4.5943134711731455
3.7942320897230433
4.563541110348153
3.4434271763179867
4.575850054678144
3.357264566007961
4.748175275298167
3.166475928892937
4.81587446911319
3.308028788687967
4.8651102464331855
3.271101955697964
4.40352483405812
3.1357035680679433
3.554207675287996
3.4988174258029914
4.188118308283084
4.145037003128072
3.732687368073029
4.280435390758092
3.332646677347978
4.526614277358149
3.2403295948729705
4.723557386638155
3.055695429922928
4.6435492484931675
3.215711706212959
4.686630553648152
3.3141832608529764
4.280435390758092
3.48035400930799
4.077337809313075
3.7757686732280415
3.720378423743037
5.05589888354821
4.298898807253093
4.360443528903107
3.35111009384298
4.5327687495231315
3.092622262912931
4.618931359833156
3.117240151572942
3.437272704152977
1.8863457185727683
4.415833778388112
3.277256427862973
4.3173622237481215
3.5849800361130173
4.058874392818074
3.8680857557030492
3.8619312835380395
3.9973296711680604
3.541898730958004
4.366598001068117
3.3203377330179586
4.686630553648152
3.264947483532954
4.698939497978172
3.221866178377941
4.655858192823159
3.2526385392029624
4.662012664988168
3.3880369268329824
4.341980112408105
3.6896060629180156
4.1942727804480935
4.052719920653064
3.7080694794130173
4.200427252613103
3.6649881742580046
4.40967930622313
3.258793011367972
4.67432160931816
3.825004450548036
6.065232318608365
3.48035400930799
4.705093970143154
3.3203377330179586
4.662012664988168
3.504971897968001
4.360443528903107
3.7080694794130173
2.6925815721878803
3.424963759822985
4.40352483405812
4.3727524732331275
3.591134508277999
4.551232166018132
3.35111009384298
4.785102108288171
3.35111009384298
4.772793163958178
3.264947483532954
4.7912565804531795
3.3695735103379807
4.6435492484931675
3.548053203123014
4.237354085603107
3.1972482897179573
3.874240227868059
4.065028864983084
3.788077617558033
4.298898807253093
3.6034434526080172
4.557386638183142
3.375727982502963
4.7420208031331565
3.1295490959029335
4.748175275298167
3.166475928892937
4.655858192823159
3.357264566007961
4.711248442308165
3.541898730958004
4.255817502098108
3.732687368073029
3.9604028381780574
4.095801225808078
3.7080694794130173
4.249663029933098
3.4741995371429804
4.569695582513134
3.2526385392029624
4.538923221688139
3.1295490959029335
4.797411052618189
3.1295490959029335
4.551232166018132
3.2403295948729705
4.557386638183142
3.560362147453006
4.12657358663307
3.788077617558033
3.9542483660130467
4.009638615498079
3.6034434526080172
4.261971974263091
3.2464840670379527
4.797411052618189
3.289565372192965
4.6435492484931675
3.0680043742529195
4.723557386638155
3.178784873222956
4.6004679433381535
3.381882454667973
4.495841916533128
3.541898730958004
4.169654891788083
3.8126955062180454
3.9296304773530633
4.145037003128072
3.609597924773
4.298898807253093
3.572671091782997
4.538923221688139
3.0249230690979347
4.7297118588031655
3.141858040232953
4.711248442308165
3.1110856794079322
4.54507769385315
3.3880369268329824
4.458915083543125
3.5849800361130173
4.065028864983084
3.8988581165280416
3.948093893848065
4.711248442308165
3.9727117825080476
4.280435390758092
3.363419038172971
4.520459805193139
3.1357035680679433
4.631240304163148
3.080313318582939
4.668167137153151
3.2034027618829395
4.341980112408105
3.221866178377941
4.3727524732331275
3.5172808422979926
3.4741995371429804
3.437272704152977
3.75730525673304
4.1327280587980795
3.424963759822985
4.348134584573115
3.308028788687967
4.5327687495231315
3.1110856794079322
4.655858192823159
3.154166984562945
4.828183413443182
3.074158846417929
5.166679382518219
5.228224104168233
4.0711833371480655
3.609597924773
4.108110170138069
3.9542483660130467
2.858752320642893
3.0126141247679152
3.394191398997992
4.360443528903107
3.357264566007961
4.606622415503137
3.166475928892937
4.748175275298167
3.264947483532954
5.092825716538213
3.6649881742580046
4.662012664988168
3.4557361206479786
4.428142722718132
3.738841840238039
4.083492281478085
4.040410976323072
3.831158922713046
4.237354085603107
3.4988174258029914
4.477378500038126
3.4126548154929934
4.723557386638155
2.8033620711578893
4.348134584573115
3.043386485592936
4.7297118588031655
3.2280206505429514
4.5327687495231315
3.437272704152977
4.366598001068117
3.781923145393024
4.089646753643067
3.855776811373057
3.8434678670430373
4.243508557768089
3.548053203123014
4.6435492484931675
3.4557361206479786
4.692785025813162
3.2280206505429514
4.637394776328158
3.160321456727955
4.723557386638155
3.264947483532954
4.508150860863147
3.5234353144630024
4.335825640243124
3.75730525673304
3.9296304773530633
4.065028864983084
3.9788662546730578
4.520459805193139
3.468045064977998
4.54507769385315
3.418809287657976
4.668167137153151
2.9633783474479203
4.465069555708134
3.4926629536379816
4.7912565804531795
3.2464840670379527
4.452760611378115
3.548053203123014
4.212736196943095
3.560362147453006
3.5972889804430093
3.9665573103430654
3.61575239693801
4.249663029933098
3.375727982502963
4.538923221688139
3.3141832608529764
4.520459805193139
3.1726304010579467
4.705093970143154
3.1295490959029335
4.649703720658149
3.277256427862973
4.637394776328158
3.7696142010630322
4.1758093639530935
3.7942320897230433
3.9296304773530633
4.151191475293081
3.720378423743037
4.329671168078114
3.4311182319879947
4.557386638183142
3.2095572340479492
4.68047608148317
3.1049312072429505
4.772793163958178
3.2280206505429514
4.501996388698137
3.2957198443579747
4.2865898629231
3.486508481473
4.261971974263091
3.831158922713046
3.8927036443630603
4.108110170138069
3.6465247577630033
4.446606139213133
3.418809287657976
4.54507769385315
3.191093817552948
4.760484219628157
3.074158846417929
4.6435492484931675
3.0987767350779407
4.54507769385315
3.271101955697964
4.3727524732331275
3.548053203123014
4.169654891788083
4.341980112408105
4.963581801073202
4.243508557768089
3.117240151572942
2.723353933012873
3.049540957757918
4.5327687495231315
3.166475928892937
4.698939497978172
3.0864677907479487
4.717402914473173
3.1726304010579467
4.68047608148317
3.381882454667973
4.3727524732331275
3.6834515907530063
4.145037003128072
3.8927036443630603
3.781923145393024
6.089850207268349
2.477175046412844
3.504971897968001
3.277256427862973
4.612776887668146
3.234175122707961
4.692785025813162
3.080313318582939
4.723557386638155
3.191093817552948
4.612776887668146
3.4311182319879947
4.280435390758092
3.695760535083026
4.120419114468088
4.138882530963089
4.606622415503137
4.828183413443182
3.8434678670430373
4.68047608148317
3.35111009384298
4.606622415503137
3.1972482897179573
4.67432160931816
2.1756059103278105
3.301874316522957
3.080313318582939
4.606622415503137
3.4988174258029914
4.785102108288171
3.8927036443630603
4.095801225808078
4.028102031993082
3.75730525673304
4.237354085603107
3.541898730958004
4.508150860863147
3.3141832608529764
4.692785025813162
3.1972482897179573
4.778947636123188
3.055695429922928
4.612776887668146
2.8464433763129016
4.27428091859311
3.418809287657976
4.200427252613103
3.6896060629180156
4.077337809313075
3.9604028381780574
3.6834515907530063
4.225045141273086
3.486508481473
4.458915083543125
3.308028788687967
4.520459805193139
3.2464840670379527
5.443630629943269
3.48035400930799
4.698939497978172
3.35111009384298
4.569695582513134
3.3880369268329824
4.292744335088111
3.8126955062180454
3.9173215330230438
4.040410976323072
3.6649881742580046
4.280435390758092
3.4557361206479786
4.526614277358149
2.6987360443528896
4.27428091859311
3.043386485592936
4.772793163958178
3.1295490959029335
4.649703720658149
3.289565372192965
4.551232166018132
3.4126548154929934
3.9788662546730578
4.028102031993082
3.9850207268380675
4.065028864983084
3.640370285598021
4.360443528903107
3.363419038172971
4.575850054678144
3.35111009384298
4.563541110348153
3.141858040232953
4.772793163958178
3.1726304010579467
4.631240304163148
3.2403295948729705
4.5943134711731455
3.609597924773
4.0465654484880815
3.800386561888025
4.114264642303079
4.114264642303079
3.5665166196180156
4.292744335088111
3.9234760051880535
5.868289209328331
3.560362147453006
4.7420208031331565
3.0987767350779407
4.7297118588031655
3.1480125123979352
4.588158999008135
3.1295490959029335
2.871061264972913
3.3695735103379807
4.501996388698137
3.8988581165280416
3.8927036443630603
4.120419114468088
3.5849800361130173
4.40967930622313
3.4557361206479786
4.557386638183142
3.191093817552948
4.67432160931816
3.1295490959029335
4.705093970143154
3.1357035680679433
4.305053279418103
2.766435238167886
4.243508557768089
3.6219068691030203
4.0711833371480655
3.855776811373057
3.8065410340530352
4.101955697973087
3.75730525673304
4.2681264464281
3.234175122707961
4.575850054678144
3.1726304010579467
4.655858192823159
3.264947483532954
4.883573662928187
3.215711706212959
4.538923221688139
3.357264566007961
4.360443528903107
3.652679229928013
4.052719920653064
3.9357849495180455
3.837313394878028
4.1942727804480935
3.4988174258029914
4.37890694539811
3.400345871162974
4.945118384578201
3.6896060629180156
4.760484219628157
3.160321456727955
4.705093970143154
3.2464840670379527
4.508150860863147
3.4126548154929934
4.366598001068117
3.720378423743037
4.021947559828071
3.8434678670430373
5.375931436128245
3.48035400930799
2.471020574247862
3.7696142010630322
3.2403295948729705
4.569695582513134
3.1049312072429505
4.563541110348153
3.271101955697964
4.698939497978172
3.2403295948729705
4.575850054678144
3.3880369268329824
4.3112077515831135
3.6834515907530063
3.9542483660130467
4.095801225808078
3.4434271763179867
4.0711833371480655
3.4926629536379816
4.458915083543125
3.357264566007961
4.68047608148317
3.154166984562945
4.809719996948181
3.080313318582939
4.686630553648152
3.271101955697964
4.520459805193139
3.468045064977998
4.40967930622313
3.9850207268380675
4.120419114468088
3.9419394216830552
3.7080694794130173
4.261971974263091
3.4741995371429804
4.471224027873144
3.3203377330179586
4.655858192823159
3.2034027618829395
4.686630553648152
3.1110856794079322
4.668167137153151
3.271101955697964
4.483532972203136
3.511126370132983
4.1942727804480935
3.9973296711680604
3.831158922713046
3.9911751990030497
3.738841840238039
4.341980112408105
3.486508481473
4.501996388698137
3.271101955697964
4.8651102464331855
3.0680043742529195
5.382085908293255
4.637394776328158
4.858955774268176
3.3695735103379807
4.465069555708134
3.572671091782997
3.1295490959029335
2.8095165433228986
3.886549172198051
4.114264642303079
3.7080694794130173
4.440451667048122
3.4126548154929934
4.563541110348153
3.394191398997992
4.797411052618189
3.2464840670379527
4.748175275298167
3.1972482897179573
4.705093970143154
3.400345871162974
4.452760611378115
3.652679229928013
4.151191475293081
3.8680857557030492
3.9111670608580615
4.157345947458091
3.671142646423015
4.446606139213133
3.0864677907479487
4.514305333028129
3.234175122707961
4.717402914473173
3.1110856794079322
4.686630553648152
3.1849393453879378
4.668167137153151
3.357264566007961
4.514305333028129
3.541898730958004
4.181963836118102
3.8988581165280416
3.8126955062180454
4.163500419623101
3.652679229928013
4.40352483405812
3.4126548154929934
4.477378500038126
3.221866178377941
4.686630553648152
3.0987767350779407
4.668167137153151
3.1849393453879378
4.67432160931816
3.461890592812989
4.243508557768089
3.61575239693801
3.9542483660130467
3.763459728898022
3.8126955062180454
4.145037003128072
3.609597924773
4.501996388698137
3.160321456727955
4.2865898629231
3.4988174258029914
4.846646829938185
3.1049312072429505
4.692785025813162
3.178784873222956
4.778947636123188
3.7757686732280415
4.489687444368147
3.658833702093023
4.145037003128072
3.9850207268380675
3.800386561888025
4.2865898629231
3.5849800361130173
4.354289056738125
3.3449556216779697
4.6435492484931675
3.2095572340479492
4.711248442308165
3.1480125123979352
4.692785025813162
3.0680043742529195
4.495841916533128
3.468045064977998
4.305053279418103
3.652679229928013
4.083492281478085
3.9419394216830552
3.800386561888025
4.1942727804480935
3.541898730958004
4.458915083543125
3.2526385392029624
4.67432160931816
3.277256427862973
4.809719996948181
3.117240151572942
4.735866330968175
3.191093817552948
4.557386638183142
3.449581648482997
4.261971974263091
3.7080694794130173
4.009638615498079
4.618931359833156
5.480557462933272
3.9727117825080476
3.4434271763179867
4.440451667048122
3.215711706212959
4.612776887668146
3.178784873222956
4.101955697973087
1.683248137127724
4.489687444368147
3.2957198443579747
4.501996388698137
4.1758093639530935
5.899061570153325
3.461890592812989
3.234175122707961
2.5694921288878514
3.4741995371429804
4.052719920653064
3.4557361206479786
4.520459805193139
3.191093817552948
4.631240304163148
3.258793011367972
4.698939497978172
3.0680043742529195
4.631240304163148
3.308028788687967
4.520459805193139
3.449581648482997
4.163500419623101
4.015793087663061
3.9296304773530633
3.9665573103430654
3.652679229928013
4.292744335088111
3.4557361206479786
4.637394776328158
3.1357035680679433
4.766638691793168
3.0618499020879373
4.711248442308165
3.1480125123979352
4.6435492484931675
3.258793011367972
4.526614277358149
3.5972889804430093
4.212736196943095
3.6896060629180156
3.9296304773530633
4.151191475293081
3.6219068691030203
4.391215889728128
3.4557361206479786
4.569695582513134
3.357264566007961
4.606622415503137
3.1480125123979352
4.778947636123188
3.2034027618829395
4.5327687495231315
3.264947483532954
4.397370361893111
3.677297118588024
4.083492281478085
3.7942320897230433
3.8927036443630603
4.138882530963089
3.6034434526080172
4.341980112408105
3.4311182319879947
4.637394776328158
3.0987767350779407
4.7420208031331565
3.35111009384298
4.662012664988168
2.8649067928079033
4.858955774268176
3.418809287657976
4.415833778388112
3.634215813433012
4.120419114468088
3.8619312835380395
3.8619312835380395
4.188118308283084
3.61575239693801
4.40352483405812
3.48035400930799
4.5820045268431535
3.1972482897179573
4.692785025813162
3.160321456727955
4.785102108288171
3.234175122707961
4.67432160931816
3.4126548154929934
4.298898807253093
3.6465247577630033
4.0465654484880815
3.9419394216830552
3.8065410340530352
4.218890669108104
3.48035400930799
4.2865898629231
3.2403295948729705
4.588158999008135
3.154166984562945
4.686630553648152
3.1726304010579467
4.754329747463175
3.191093817552948
4.5943134711731455
3.357264566007961
4.37890694539811
3.701915007248036
4.095801225808078
3.9911751990030497
3.825004450548036
4.323516695913104
3.48035400930799
4.514305333028129
3.375727982502963
4.686630553648152
3.215711706212959
4.772793163958178
3.1726304010579467
4.686630553648152
3.215711706212959
4.440451667048122
3.4926629536379816
4.975890745403193
3.9357849495180455
4.0465654484880815
3.9973296711680604
4.151191475293081
5.412858269118276
3.8927036443630603
4.606622415503137
3.381882454667973
4.68047608148317
3.221866178377941
4.809719996948181
2.8525978484779113
3.154166984562945
2.323313242287822
4.169654891788083
3.468045064977998
4.329671168078114
3.6896060629180156
4.003484143333068
4.12657358663307
3.8065410340530352
4.243508557768089
3.4988174258029914
4.483532972203136
3.332646677347978
4.748175275298167
3.1726304010579467
4.846646829938185
3.049540957757918
4.7297118588031655
3.2526385392029624
4.446606139213133
3.504971897968001
4.27428091859311
3.75115078456803
3.9111670608580615
4.138882530963089
3.7080694794130173
4.3112077515831135
3.400345871162974
4.508150860863147
3.732687368073029
4.91434602375318
3.117240151572942
4.748175275298167
3.1480125123979352
4.686630553648152
3.2957198443579747
4.477378500038126
3.504971897968001
4.2065817247780855
3.9111670608580615
3.8065410340530352
4.0465654484880815
3.7080694794130173
3.8988581165280416
3.018768596932925
4.428142722718132
3.2403295948729705
4.809719996948181
3.1110856794079322
4.631240304163148
3.166475928892937
4.6435492484931675
3.264947483532954
4.366598001068117
3.48035400930799
3.9665573103430654
3.9665573103430654
4.569695582513134
4.495841916533128
3.732687368073029
4.421988250553122
3.418809287657976
4.557386638183142
3.3695735103379807
4.748175275298167
3.1357035680679433
4.686630553648152
3.234175122707961
4.668167137153151
3.3203377330179586
4.428142722718132
3.1726304010579467
3.7696142010630322
3.7696142010630322
3.8065410340530352
4.1327280587980795
3.61575239693801
4.3727524732331275
3.3449556216779697
4.618931359833156
3.074158846417929
4.7297118588031655
3.074158846417929
4.655858192823159
3.178784873222956
4.569695582513134
3.277256427862973
4.391215889728128
3.486508481473
4.065028864983084
3.8434678670430373
3.800386561888025
4.108110170138069
3.5234353144630024
4.421988250553122
3.4126548154929934
4.415833778388112
3.2280206505429514
4.778947636123188
3.264947483532954
4.840492357773174
3.2280206505429514
4.612776887668146
3.449581648482997
4.225045141273086
3.6219068691030203
4.1327280587980795
3.9234760051880535
3.763459728898022
4.1942727804480935
3.5972889804430093
4.557386638183142
3.1972482897179573
5.203606215508222
4.766638691793168
4.434297194883113
3.080313318582939
4.662012664988168
3.1726304010579467
3.141858040232953
2.624882378372884
4.231199613438097
3.658833702093023
4.021947559828071
3.9419394216830552
3.7080694794130173
4.225045141273086
3.7449963124030208
4.5820045268431535
3.308028788687967
4.631240304163148
3.2403295948729705
4.760484219628157
3.1295490959029335
4.692785025813162
3.277256427862973
4.428142722718132
3.554207675287996
4.2681264464281
3.788077617558033
3.9665573103430654
3.855776811373057
3.468045064977998
4.218890669108104
3.418809287657976
4.483532972203136
3.271101955697964
4.569695582513134
3.1726304010579467
4.735866330968175
3.1726304010579467
4.705093970143154
3.1972482897179573
4.575850054678144
3.3695735103379807
4.249663029933098
3.886549172198051
3.948093893848065
4.0711833371480655
3.628061341268002
4.237354085603107
3.4988174258029914
4.465069555708134
3.2526385392029624
4.662012664988168
3.1295490959029335
4.809719996948181
3.1110856794079322
4.551232166018132
3.449581648482997
4.889728135093197
3.541898730958004
4.27428091859311
3.7757686732280415
4.366598001068117
5.142061493858235
3.738841840238039
4.735866330968175
3.4988174258029914
4.569695582513134
3.2280206505429514
4.717402914473173
2.680272627857888
3.055695429922928
2.6433457948678853
4.5820045268431535
3.301874316522957
4.471224027873144
3.5357442587929944
4.114264642303079
3.732687368073029
3.9050125886930522
4.040410976323072
3.628061341268002
4.280435390758092
3.461890592812989
4.483532972203136
3.221866178377941
5.080516772208221
3.3141832608529764
4.803565524783171
3.092622262912931
4.538923221688139
3.258793011367972
4.415833778388112
3.5172808422979926
4.145037003128072
3.781923145393024
3.8680857557030492
4.095801225808078
3.6034434526080172
4.292744335088111
2.680272627857888
4.261971974263091
3.1357035680679433
4.588158999008135
3.191093817552948
4.711248442308165
3.141858040232953
4.5327687495231315
3.363419038172971
4.385061417563119
3.7142239515780275
3.948093893848065
3.837313394878028
3.831158922713046
4.218890669108104
3.548053203123014
4.37890694539811
3.375727982502963
4.618931359833156
3.080313318582939
4.662012664988168
3.1110856794079322
4.717402914473173
3.874240227868059
6.2683299000533825
3.049540957757918
3.418809287657976
2.4894839907428636
4.631240304163148
4.2065817247780855
3.8680857557030492
4.181963836118102
3.591134508277999
4.458915083543125
3.4557361206479786
4.569695582513134
3.178784873222956
4.778947636123188
3.2095572340479492
4.760484219628157
3.2526385392029624
4.501996388698137
2.871061264972913
4.065028864983084
3.6465247577630033
4.009638615498079
3.9604028381780574
3.8126955062180454
4.243508557768089
3.548053203123014
4.588158999008135
3.271101955697964
4.625085831998166
3.1480125123979352
4.797411052618189
3.166475928892937
4.908191551588198
3.394191398997992
4.692785025813162
3.4926629536379816
4.329671168078114
3.738841840238039
4.009638615498079
4.003484143333068
3.8126955062180454
4.323516695913104
3.541898730958004
4.37890694539811
3.3264922051829684
4.692785025813162
3.166475928892937
4.692785025813162
3.1972482897179573
4.760484219628157
3.3880369268329824
4.415833778388112
3.529589786627985
4.329671168078114
3.7757686732280415
4.021947559828071
3.9911751990030497
3.8927036443630603
4.335825640243124
3.406500343327984
4.421988250553122
3.2464840670379527
4.625085831998166
2.907988097962916
5.068207827878203
3.258793011367972
4.803565524783171
3.2403295948729705
4.477378500038126
3.6219068691030203
4.280435390758092
3.800386561888025
3.9604028381780574
4.1327280587980795
3.8065410340530352
4.212736196943095
3.381882454667973
4.520459805193139
3.301874316522957
4.717402914473173
3.1480125123979352
4.809719996948181
3.160321456727955
4.67432160931816
3.363419038172971
4.54507769385315
3.591134508277999
4.280435390758092
3.9788662546730578
4.089646753643067
4.120419114468088
3.652679229928013
4.305053279418103
3.449581648482997
4.471224027873144
3.406500343327984
4.692785025813162
3.2464840670379527
4.705093970143154
3.0987767350779407
4.618931359833156
3.2957198443579747
4.686630553648152
4.0465654484880815
4.225045141273086
3.9050125886930522
3.9234760051880535
4.015793087663061
3.6834515907530063
4.391215889728128
3.406500343327984
4.569695582513134
3.264947483532954
4.834337885608192
3.074158846417929
4.662012664988168
2.975687291777912
4.243508557768089
3.264947483532954
4.348134584573115
3.6219068691030203
4.397370361893111
5.19745174334324
4.27428091859311
4.151191475293081
3.6649881742580046
4.421988250553122
3.3695735103379807
4.631240304163148
2.729508405177883
3.35111009384298
2.9387604587879093
4.698939497978172
3.141858040232953
4.6435492484931675
3.4311182319879947
4.335825640243124
5.474402990768262
3.154166984562945
3.0618499020879373
3.7696142010630322
4.1327280587980795
3.640370285598021
4.465069555708134
3.3695735103379807
4.538923221688139
3.1480125123979352
4.692785025813162
3.074158846417929
4.692785025813162
3.221866178377941
4.5943134711731455
3.437272704152977
4.391215889728128
3.572671091782997
4.028102031993082
3.9296304773530633
3.732687368073029
4.231199613438097
3.4126548154929934
4.298898807253093
3.4126548154929934
4.526614277358149
3.1480125123979352
4.705093970143154
3.1295490959029335
4.67432160931816
3.2403295948729705
4.5820045268431535
3.511126370132983
4.237354085603107
3.695760535083026
4.1327280587980795
3.948093893848065
3.788077617558033
4.169654891788083
3.529589786627985
4.6004679433381535
3.2095572340479492
4.6004679433381535
3.160321456727955
4.7420208031331565
3.1110856794079322
4.68047608148317
3.1726304010579467
4.335825640243124
3.7696142010630322
4.902037079423188
3.886549172198051
4.089646753643067
4.015793087663061
3.75730525673304
4.255817502098108
3.6649881742580046
4.385061417563119
3.2464840670379527
4.67432160931816
3.154166984562945
4.7912565804531795
3.1972482897179573
4.6435492484931675
2.9818417639429216
4.329671168078114
3.4741995371429804
4.280435390758092
3.788077617558033
4.040410976323072
4.0711833371480655
3.7142239515780275
4.366598001068117
3.406500343327984
4.483532972203136
3.3141832608529764
4.5943134711731455
3.301874316522957
4.840492357773174
3.1357035680679433
4.7420208031331565
3.271101955697964
4.477378500038126
3.511126370132983
4.212736196943095
3.800386561888025
3.9973296711680604
4.114264642303079
3.7265328959080186
4.231199613438097
3.486508481473
4.563541110348153
3.2034027618829395
4.68047608148317
3.117240151572942
4.754329747463175
3.215711706212959
4.588158999008135
3.289565372192965
4.489687444368147
3.572671091782997
4.169654891788083
3.8988581165280416
4.003484143333068
4.212736196943095
3.634215813433012
5.2220696320032225
5.148215966023217
4.298898807253093
3.301874316522957
4.723557386638155
2.975687291777912
3.2526385392029624
2.587955545382853
4.618931359833156
3.332646677347978
4.3727524732331275
3.677297118588024
4.1758093639530935
4.2065817247780855
5.84367132066832
3.7696142010630322
3.8988581165280416
4.415833778388112
3.4434271763179867
4.668167137153151
3.289565372192965
4.440451667048122
1.6709391927977324
4.3112077515831135
3.1972482897179573
4.67432160931816
3.424963759822985
4.440451667048122
3.6834515907530063
4.255817502098108
3.8619312835380395
3.8434678670430373
4.225045141273086
3.634215813433012
4.40967930622313
3.406500343327984
4.637394776328158
3.2464840670379527
4.772793163958178
3.141858040232953
4.822028941278172
3.2034027618829395
4.951272856743211
3.8126955062180454
4.428142722718132
3.720378423743037
4.108110170138069
3.8803947000330408
3.831158922713046
4.2865898629231
3.48035400930799
4.551232166018132
3.4557361206479786
4.698939497978172
3.160321456727955
4.7297118588031655
2.8218254876528905
4.261971974263091
3.1480125123979352
4.538923221688139
3.461890592812989
4.341980112408105
3.658833702093023
4.0465654484880815
3.948093893848065
3.825004450548036
4.200427252613103
3.468045064977998
4.40967930622313
3.400345871162974
4.7912565804531795
3.264947483532954
4.735866330968175
3.166475928892937
4.748175275298167
3.2526385392029624
4.465069555708134
3.191093817552948
4.538923221688139
3.8188499783830263
3.9788662546730578
3.9973296711680604
3.8434678670430373
4.2865898629231
3.48035400930799
4.40967930622313
3.234175122707961
4.606622415503137
3.0680043742529195
4.760484219628157
3.2280206505429514
4.705093970143154
3.215711706212959
4.612776887668146
3.418809287657976
4.2065817247780855
3.75730525673304
3.9850207268380675
4.040410976323072
3.720378423743037
4.298898807253093
3.609597924773
4.40352483405812
3.2957198443579747
4.717402914473173
3.1849393453879378
4.723557386638155
3.191093817552948
4.698939497978172
3.332646677347978
4.428142722718132
3.5234353144630024
4.348134584573115
3.75115078456803
3.9357849495180455
4.0465654484880815
3.7265328959080186
4.434297194883113
3.3388011495129604
4.538923221688139
3.308028788687967
4.7297118588031655
3.8188499783830263
6.379110399023446
2.871061264972913
3.4557361206479786
2.323313242287822
4.483532972203136
3.4741995371429804
4.280435390758092
3.874240227868059
3.9050125886930522
4.120419114468088
3.781923145393024
4.261971974263091
3.4126548154929934
4.557386638183142
3.264947483532954
4.7420208031331565
3.1295490959029335
4.748175275298167
3.234175122707961
4.54507769385315
3.283410900027955
4.428142722718132
3.5357442587929944
4.181963836118102
3.831158922713046
3.8680857557030492
4.169654891788083
3.554207675287996
4.298898807253093
3.4126548154929934
4.551232166018132
3.277256427862973
4.7297118588031655
3.080313318582939
4.7912565804531795
3.1049312072429505
4.612776887668146
3.332646677347978
4.397370361893111
3.61575239693801
4.163500419623101
3.8680857557030492
3.9111670608580615
3.9727117825080476
3.732687368073029
4.335825640243124
3.418809287657976
4.538923221688139
3.178784873222956
4.748175275298167
3.1110856794079322
4.606622415503137
3.154166984562945
4.563541110348153
3.301874316522957
4.341980112408105
3.6219068691030203
4.169654891788083
3.9296304773530633
3.7080694794130173
3.9665573103430654
3.486508481473
4.231199613438097
3.0003051804379233
4.858955774268176
3.277256427862973
4.711248442308165
3.0126141247679152
4.662012664988168
3.160321456727955
4.54507769385315
3.400345871162974
4.280435390758092
3.7265328959080186
4.255817502098108
3.837313394878028
3.781923145393024
4.225045141273086
3.541898730958004
4.489687444368147
3.3203377330179586
4.557386638183142
3.3695735103379807
4.81587446911319
3.160321456727955
4.692785025813162
3.2095572340479492
4.662012664988168
3.3695735103379807
4.2065817247780855
3.7142239515780275
3.9973296711680604
3.9973296711680604
3.732687368073029
4.181963836118102
3.554207675287996
4.434297194883113
3.283410900027955
4.655858192823159
3.1972482897179573
4.748175275298167
3.160321456727955
5.012817578393197
3.375727982502963
4.618931359833156
3.381882454667973
4.2065817247780855
3.732687368073029
4.089646753643067
4.015793087663061
3.7696142010630322
4.305053279418103
3.572671091782997
5.345159075303252
2.883370209302905
4.3112077515831135
3.591134508277999
5.068207827878203
3.191093817552948
4.612776887668146
3.2464840670379527
5.271305409323245
4.649703720658149
4.421988250553122
3.7757686732280415
4.040410976323072
4.101955697973087
3.7449963124030208
4.305053279418103
2.760280766002876
2.747971821672884
2.6987360443528896
4.588158999008135
3.1295490959029335
4.711248442308165
3.1726304010579467
4.649703720658149
3.3141832608529764
4.446606139213133
3.511126370132983
4.138882530963089
3.7942320897230433
3.9727117825080476
4.021947559828071
3.75730525673304
4.440451667048122
3.35111009384298
4.563541110348153
3.178784873222956
4.67432160931816
3.178784873222956
4.7420208031331565
3.191093817552948
4.686630553648152
3.277256427862973
4.458915083543125
3.504971897968001
4.151191475293081
3.763459728898022
3.9542483660130467
4.089646753643067
3.6465247577630033
4.225045141273086
3.449581648482997
4.5327687495231315
3.141858040232953
4.686630553648152
3.141858040232953
4.7420208031331565
3.191093817552948
4.446606139213133
3.332646677347978
4.778947636123188
4.052719920653064
4.2065817247780855
3.8680857557030492
3.9604028381780574
4.218890669108104
3.468045064977998
4.37890694539811
3.5172808422979926
4.588158999008135
3.1726304010579467
4.67432160931816
3.117240151572942
4.563541110348153
3.1357035680679433
4.065028864983084
3.2957198443579747
4.40352483405812
3.560362147453006
4.095801225808078
3.948093893848065
3.9419394216830552
4.089646753643067
3.5234353144630024
4.415833778388112
3.3449556216779697
4.785102108288171
3.1726304010579467
4.772793163958178
3.2403295948729705
4.68047608148317
3.1726304010579467
4.569695582513134
3.406500343327984
4.40352483405812
3.640370285598021
4.261971974263091
5.412858269118276
4.114264642303079
4.3112077515831135
3.572671091782997
4.415833778388112
3.4311182319879947
4.5327687495231315
3.018768596932925
3.2280206505429514
2.581801073217871
4.711248442308165
3.2034027618829395
4.563541110348153
3.48035400930799
4.385061417563119
3.6219068691030203
4.003484143333068
3.8496223392080475
3.8496223392080475
4.3112077515831135
3.511126370132983
4.329671168078114
3.3449556216779697
4.67432160931816
3.1480125123979352
4.668167137153151
3.154166984562945
4.5943134711731455
3.3388011495129604
4.557386638183142
3.406500343327984
4.366598001068117
3.738841840238039
3.9788662546730578
4.68047608148317
5.425167213448267
3.9604028381780574
3.4988174258029914
4.483532972203136
2.9879962361079313
3.055695429922928
2.754126293837894
4.717402914473173
3.178784873222956
4.7297118588031655
3.258793011367972
4.526614277358149
3.4988174258029914
4.188118308283084
3.677297118588024
4.003484143333068
4.052719920653064
3.763459728898022
4.292744335088111
3.529589786627985
4.563541110348153
3.3141832608529764
4.649703720658149
3.1049312072429505
4.717402914473173
3.1726304010579467
4.785102108288171
3.381882454667973
4.458915083543125
3.6034434526080172
4.2865898629231
3.7942320897230433
3.9296304773530633
4.212736196943095
3.6834515907530063
4.335825640243124
3.406500343327984
4.575850054678144
3.3141832608529764
4.748175275298167
3.1295490959029335
4.7420208031331565
3.2034027618829395
4.711248442308165
3.381882454667973
4.440451667048122
3.5172808422979926
4.249663029933098
3.837313394878028
3.9173215330230438
4.0465654484880815
3.781923145393024
4.501996388698137
3.424963759822985
4.67432160931816
4.003484143333068
5.06205335571322
3.271101955697964
4.785102108288171
3.2280206505429514
4.8651102464331855
3.3141832608529764
4.335825640243124
3.3695735103379807
4.489687444368147
3.948093893848065
3.948093893848065
4.120419114468088
3.720378423743037
3.701915007248036
3.0003051804379233
4.458915083543125
3.301874316522957
4.735866330968175
3.074158846417929
4.717402914473173
3.2464840670379527
4.563541110348153
3.357264566007961
4.40967930622313
3.6034434526080172
4.151191475293081
3.9419394216830552
4.575850054678144
4.575850054678144
3.560362147453006
4.415833778388112
3.418809287657976
4.563541110348153
3.2464840670379527
4.778947636123188
3.1233946237379517
4.754329747463175
3.191093817552948
4.612776887668146
3.400345871162974
4.329671168078114
3.1480125123979352
3.7449963124030208
3.825004450548036
3.8496223392080475
4.058874392818074
3.548053203123014
4.397370361893111
3.2957198443579747
4.631240304163148
3.1972482897179573
4.723557386638155
3.1849393453879378
4.631240304163148
3.1357035680679433
4.858955774268176
3.2403295948729705
4.305053279418103
3.61575239693801
4.101955697973087
4.040410976323072
3.658833702093023
4.157345947458091
3.560362147453006
4.446606139213133
3.948093893848065
6.194476234073376
2.778744182497905
3.332646677347978
2.778744182497905
5.000508634063205
3.264947483532954
4.5943134711731455
3.461890592812989
4.298898807253093
3.7265328959080186
4.151191475293081
3.9727117825080476
3.732687368073029
4.188118308283084
3.5972889804430093
4.489687444368147
3.2957198443579747
4.298898807253093
2.6925815721878803
4.67432160931816
3.1049312072429505
4.67432160931816
3.2464840670379527
4.54507769385315
3.437272704152977
4.298898807253093
3.8065410340530352
3.9788662546730578
3.886549172198051
3.800386561888025
4.2065817247780855
3.788077617558033
4.797411052618189
3.3880369268329824
4.7420208031331565
3.1849393453879378
4.766638691793168
3.1049312072429505
4.668167137153151
3.283410900027955
4.5327687495231315
3.572671091782997
4.2681264464281
3.763459728898022
4.0465654484880815
3.7757686732280415
3.3388011495129604
4.280435390758092
3.504971897968001
4.495841916533128
3.215711706212959
4.668167137153151
3.1972482897179573
4.686630553648152
3.1726304010579467
4.711248442308165
3.301874316522957
4.631240304163148
3.609597924773
4.323516695913104
3.8434678670430373
4.009638615498079
4.021947559828071
3.394191398997992
4.606622415503137
3.6034434526080172
4.501996388698137
3.1726304010579467
4.6004679433381535
3.258793011367972
4.7420208031331565
3.178784873222956
4.68047608148317
3.418809287657976
4.526614277358149
3.548053203123014
4.169654891788083
3.8126955062180454
3.9234760051880535
4.089646753643067
3.640370285598021
4.3727524732331275
3.5234353144630024
4.563541110348153
3.271101955697964
4.778947636123188
3.234175122707961
4.9266549680832
3.424963759822985
4.81587446911319
3.424963759822985
4.508150860863147
3.634215813433012
4.188118308283084
3.8680857557030492
3.9234760051880535
4.151191475293081
3.7696142010630322
4.341980112408105
3.375727982502963
4.612776887668146
3.166475928892937
4.3727524732331275
3.0987767350779407
4.717402914473173
3.308028788687967
4.655858192823159
3.3880369268329824
4.446606139213133
3.6649881742580046
4.120419114468088
3.9111670608580615
3.886549172198051
4.305053279418103
3.48035400930799
4.452760611378115
3.4557361206479786
4.588158999008135
3.178784873222956
4.754329747463175
3.215711706212959
5.425167213448267
4.397370361893111
4.7912565804531795
3.48035400930799
4.446606139213133
3.6649881742580046
4.083492281478085
3.9234760051880535
2.895679153632896
3.1049312072429505
3.4557361206479786
4.421988250553122
3.424963759822985
4.618931359833156
3.166475928892937
4.754329747463175
3.1849393453879378
4.68047608148317
3.264947483532954
4.575850054678144
3.406500343327984
4.397370361893111
3.75730525673304
4.065028864983084
4.083492281478085
3.701915007248036
4.37890694539811
3.5357442587929944
4.465069555708134
3.424963759822985
4.631240304163148
3.221866178377941
4.822028941278172
3.0987767350779407
4.778947636123188
3.2280206505429514
4.538923221688139
3.5357442587929944
4.305053279418103
3.75115078456803
5.819053432008309
4.188118308283084
4.021947559828071
4.391215889728128
3.5172808422979926
4.508150860863147
3.381882454667973
4.649703720658149
1.7447928587777384
3.8680857557030492
3.1972482897179573
5.406703796953265
3.468045064977998
4.538923221688139
3.511126370132983
4.360443528903107
3.8434678670430373
3.9111670608580615
4.034256504158063
3.8126955062180454
4.3112077515831135
3.486508481473
4.5820045268431535
3.394191398997992
4.538923221688139
2.723353933012873
4.421988250553122
3.141858040232953
4.668167137153151
3.1972482897179573
4.471224027873144
3.5172808422979926
4.2681264464281
3.6896060629180156
3.8988581165280416
4.052719920653064
3.7265328959080186
4.3112077515831135
3.424963759822985
5.043589939218219
3.5849800361130173
4.637394776328158
3.1110856794079322
4.772793163958178
3.234175122707961
4.723557386638155
3.3388011495129604
4.508150860863147
3.5357442587929944
4.2065817247780855
3.8188499783830263
3.9111670608580615
4.052719920653064
3.2095572340479492
3.7757686732280415
3.3203377330179586
4.514305333028129
3.2095572340479492
4.668167137153151
3.1357035680679433
4.692785025813162
3.1972482897179573
4.662012664988168
2.8156710154879088
4.5820045268431535
3.8126955062180454
4.188118308283084
3.874240227868059
3.837313394878028
4.0711833371480655
3.671142646423015
4.40352483405812
3.461890592812989
4.5943134711731455
3.221866178377941
4.711248442308165
3.160321456727955
4.67432160931816
3.2034027618829395
4.67432160931816
3.357264566007961
4.452760611378115
4.1327280587980795
5.499020879428274
4.077337809313075
3.8680857557030492
4.157345947458091
3.092622262912931
2.8464433763129016
3.1110856794079322
4.54507769385315
3.221866178377941
4.723557386638155
3.092622262912931
4.754329747463175
4.163500419623101
4.218890669108104
3.006459652602933
4.2865898629231
3.5972889804430093
4.089646753643067
3.8927036443630603
3.763459728898022
3.9542483660130467
3.677297118588024
4.440451667048122
3.3141832608529764
4.538923221688139
3.2403295948729705
5.043589939218219
3.529589786627985
4.803565524783171
3.141858040232953
4.649703720658149
3.449581648482997
4.360443528903107
3.6896060629180156
4.169654891788083
3.9542483660130467
3.855776811373057
4.114264642303079
3.61575239693801
4.489687444368147
3.1110856794079322
4.12657358663307
3.154166984562945
4.7912565804531795
3.234175122707961
4.692785025813162
3.2464840670379527
4.606622415503137
3.4557361206479786
4.3112077515831135
3.7142239515780275
4.108110170138069
3.9911751990030497
3.652679229928013
4.2865898629231
3.486508481473
4.428142722718132
3.3264922051829684
4.514305333028129
3.363419038172971
4.877419190763177
3.043386485592936
4.6004679433381535
3.018768596932925
4.877419190763177
3.529589786627985
4.261971974263091
3.781923145393024
4.280435390758092
4.083492281478085
3.7142239515780275
4.27428091859311
3.628061341268002
4.588158999008135
3.3141832608529764
4.7420208031331565
3.283410900027955
4.717402914473173
3.215711706212959
4.7420208031331565
3.332646677347978
4.54507769385315
3.6834515907530063
4.67432160931816
3.8927036443630603
3.9173215330230438
4.101955697973087
3.7757686732280415
4.27428091859311
3.541898730958004
4.526614277358149
3.3388011495129604
4.717402914473173
3.1110856794079322
4.760484219628157
3.1849393453879378
4.655858192823159
2.9202970422929075
4.341980112408105
3.4126548154929934
3.9911751990030497
3.5357442587929944
3.9727117825080476
4.095801225808078
3.5665166196180156
4.2865898629231
3.504971897968001
4.588158999008135
3.308028788687967
4.588158999008135
3.1972482897179573
4.772793163958178
3.1233946237379517
4.649703720658149
3.301874316522957
4.557386638183142
3.560362147453006
4.108110170138069
3.8126955062180454
3.9419394216830552
4.120419114468088
4.200427252613103
5.566720073243298
3.4557361206479786
3.258793011367972
3.4988174258029914
4.9389639124131905
3.2095572340479492
4.840492357773174
3.2403295948729705
4.717402914473173
3.486508481473
4.6004679433381535
3.5972889804430093
4.212736196943095
3.9665573103430654
4.040410976323072
4.225045141273086
3.5357442587929944
3.855776811373057
3.215711706212959
4.569695582513134
3.215711706212959
4.7420208031331565
3.166475928892937
4.797411052618189
3.258793011367972
4.760484219628157
3.375727982502963
4.440451667048122
3.701915007248036
4.2065817247780855
3.948093893848065
4.089646753643067
4.231199613438097
3.652679229928013
4.465069555708134
3.4311182319879947
4.668167137153151
3.277256427862973
4.698939497978172
3.1233946237379517
4.7912565804531795
3.277256427862973
4.551232166018132
3.3449556216779697
4.471224027873144
3.6649881742580046
4.0465654484880815
3.8927036443630603
3.8680857557030492
4.1942727804480935
3.4926629536379816
4.415833778388112
3.4126548154929934
4.637394776328158
3.1972482897179573
4.668167137153151
3.332646677347978
4.698939497978172
3.289565372192965
4.5943134711731455
3.4126548154929934
4.366598001068117
3.6034434526080172
3.825004450548036
4.3112077515831135
3.9604028381780574
4.249663029933098
3.529589786627985
4.458915083543125
3.424963759822985
4.662012664988168
3.191093817552948
4.8528013021031935
3.560362147453006
4.834337885608192
3.2464840670379527
4.6004679433381535
3.511126370132983
4.458915083543125
3.7757686732280415
4.021947559828071
4.200427252613103
3.788077617558033
4.261971974263091
3.578825563948007
4.557386638183142
3.4311182319879947
4.692785025813162
3.092622262912931
4.871264718598195
3.1233946237379517
4.7420208031331565
3.3449556216779697
4.54507769385315
3.578825563948007
4.360443528903107
3.825004450548036
4.120419114468088
3.9665573103430654
3.8496223392080475
4.37890694539811
3.4434271763179867
4.40967930622313
3.394191398997992
4.803565524783171
3.357264566007961
4.711248442308165
3.178784873222956
4.748175275298167
3.3264922051829684
4.501996388698137
3.5357442587929944
4.305053279418103
4.717402914473173
4.902037079423188
4.766638691793168
4.3173622237481215
4.40967930622313
3.529589786627985
4.557386638183142
3.3695735103379807
4.188118308283084
3.8065410340530352
4.421988250553122
3.1849393453879378
4.717402914473173
3.363419038172971
4.514305333028129
3.560362147453006
2.735662877342893
2.391012436102846
3.7942320897230433
3.9973296711680604
3.7942320897230433
4.3173622237481215
3.424963759822985
4.588158999008135
3.357264566007961
4.68047608148317
3.117240151572942
4.7912565804531795
3.264947483532954
4.785102108288171
3.504971897968001
4.655858192823159
3.658833702093023
4.280435390758092
3.8803947000330408
3.8988581165280416
4.12657358663307
3.732687368073029
4.428142722718132
3.5234353144630024
4.637394776328158
3.2464840670379527
4.858955774268176
3.141858040232953
4.7420208031331565
3.043386485592936
4.625085831998166
3.424963759822985
4.489687444368147
3.560362147453006
4.27428091859311
3.9050125886930522
3.8803947000330408
4.169654891788083
3.701915007248036
4.434297194883113
3.4434271763179867
4.551232166018132
3.381882454667973
4.5327687495231315
3.1480125123979352
4.717402914473173
3.258793011367972
4.748175275298167
3.449581648482997
4.391215889728128
3.677297118588024
4.2065817247780855
3.9911751990030497
3.886549172198051
4.2065817247780855
3.609597924773
4.280435390758092
3.732687368073029
4.68047608148317
3.2403295948729705
4.803565524783171
3.1849393453879378
4.7297118588031655
3.3203377330179586
4.717402914473173
3.381882454667973
4.3727524732331275
3.7142239515780275
4.1758093639530935
4.009638615498079
4.028102031993082
5.031280994888199
3.800386561888025
4.458915083543125
3.363419038172971
4.698939497978172
3.2526385392029624
4.834337885608192
3.2403295948729705
4.883573662928187
3.3695735103379807
4.662012664988168
3.48035400930799
4.471224027873144
3.7265328959080186
3.591134508277999
3.8619312835380395
3.7942320897230433
4.231199613438097
3.6219068691030203
4.520459805193139
3.357264566007961
4.717402914473173
3.258793011367972
4.840492357773174
3.2034027618829395
4.834337885608192
3.3880369268329824
4.6435492484931675
3.5665166196180156
4.341980112408105
3.8065410340530352
4.114264642303079
5.111289133033214
3.271101955697964
3.8619312835380395
3.554207675287996
4.551232166018132
3.3264922051829684
4.735866330968175
3.234175122707961
4.9266549680832
3.215711706212959
4.994354161898196
4.0465654484880815
5.917524986648326
3.7942320897230433
4.329671168078114
3.7757686732280415
3.264947483532954
2.680272627857888
3.548053203123014
4.27428091859311
3.609597924773
4.606622415503137
3.289565372192965
4.686630553648152
2.907988097962916
4.5943134711731455
3.141858040232953
4.723557386638155
3.2957198443579747
4.495841916533128
3.5357442587929944
4.212736196943095
3.9850207268380675
4.003484143333068
4.114264642303079
3.6896060629180156
4.329671168078114
3.61575239693801
5.320541186643241
3.628061341268002
4.797411052618189
3.166475928892937
4.81587446911319
3.221866178377941
4.7297118588031655
3.4311182319879947
4.54507769385315
3.634215813433012
4.397370361893111
3.8803947000330408
4.065028864983084
4.138882530963089
3.0618499020879373
3.9234760051880535
3.406500343327984
4.588158999008135
3.381882454667973
4.67432160931816
3.1295490959029335
4.822028941278172
3.1849393453879378
4.625085831998166
3.35111009384298
4.526614277358149
3.6896060629180156
4.095801225808078
4.089646753643067
3.9850207268380675
4.1758093639530935
3.652679229928013
4.477378500038126
3.4557361206479786
4.711248442308165
3.166475928892937
4.698939497978172
2.9510694031179288
5.135907021693225
3.308028788687967
4.625085831998166
3.560362147453006
4.489687444368147
3.468045064977998
4.145037003128072
3.9973296711680604
3.9850207268380675
4.2681264464281
3.6896060629180156
4.557386638183142
3.529589786627985
4.6004679433381535
3.2403295948729705
4.877419190763177
3.234175122707961
4.797411052618189
3.468045064977998
4.766638691793168
3.554207675287996
4.421988250553122
3.738841840238039
3.9973296711680604
4.003484143333068
3.9050125886930522
4.2065817247780855
3.6649881742580046
4.495841916533128
3.3449556216779697
4.711248442308165
3.2280206505429514
5.018972050558207
3.572671091782997
4.7912565804531795
3.271101955697964
4.612776887668146
3.424963759822985
4.421988250553122
3.7080694794130173
4.034256504158063
3.9788662546730578
3.8927036443630603
4.323516695913104
3.578825563948007
4.428142722718132
3.1295490959029335
4.188118308283084
3.141858040232953
4.754329747463175
3.271101955697964
4.834337885608192
3.289565372192965
4.588158999008135
3.548053203123014
4.360443528903107
3.75115078456803
4.655858192823159
5.265150937158236
3.720378423743037
2.8279799598179
3.0249230690979347
4.563541110348153
3.3264922051829684
4.655858192823159
3.191093817552948
4.7912565804531795
3.2403295948729705
4.717402914473173
3.283410900027955
4.5820045268431535
3.529589786627985
4.335825640243124
3.837313394878028
4.138882530963089
4.120419114468088
3.7942320897230433
4.2865898629231
3.5172808422979926
4.569695582513134
3.3449556216779697
4.797411052618189
3.234175122707961
4.797411052618189
3.2403295948729705
4.828183413443182
3.3264922051829684
4.588158999008135
3.695760535083026
4.2681264464281
3.8126955062180454
4.015793087663061
4.218890669108104
3.837313394878028
4.385061417563119
3.4926629536379816
4.625085831998166
3.3695735103379807
4.7912565804531795
3.271101955697964
4.723557386638155
3.1972482897179573
4.834337885608192
3.418809287657976
4.495841916533128
3.6034434526080172
4.3112077515831135
3.9850207268380675
3.9296304773530633
4.138882530963089
3.8065410340530352
4.434297194883113
3.461890592812989
4.569695582513134
3.406500343327984
4.945118384578201
3.141858040232953
4.871264718598195
3.2403295948729705
4.778947636123188
3.2464840670379527
4.231199613438097
3.9419394216830552
5.382085908293255
5.2220696320032225
3.658833702093023
4.151191475293081
3.7757686732280415
4.471224027873144
3.4926629536379816
4.711248442308165
2.446402685587851
3.572671091782997
3.074158846417929
4.772793163958178
3.258793011367972
4.735866330968175
3.468045064977998
4.501996388698137
3.837313394878028
4.218890669108104
3.9665573103430654
4.0465654484880815
4.255817502098108
3.7696142010630322
4.501996388698137
3.4557361206479786
4.692785025813162
3.289565372192965
4.797411052618189
3.166475928892937
4.760484219628157
3.283410900027955
4.68047608148317
3.437272704152977
4.501996388698137
3.61575239693801
4.225045141273086
4.089646753643067
4.341980112408105
4.385061417563119
3.7265328959080186
4.54507769385315
3.5172808422979926
4.618931359833156
3.3449556216779697
4.889728135093197
3.2280206505429514
4.785102108288171
3.35111009384298
4.748175275298167
3.554207675287996
4.335825640243124
3.2526385392029624
3.9111670608580615
4.009638615498079
3.831158922713046
4.249663029933098
3.701915007248036
4.822028941278172
4.305053279418103
5.320541186643241
3.375727982502963
4.889728135093197
3.1972482897179573
4.760484219628157
3.271101955697964
3.234175122707961
2.747971821672884
4.298898807253093
3.75115078456803
4.108110170138069
4.021947559828071
3.800386561888025
4.354289056738125
3.6219068691030203
4.495841916533128
3.3449556216779697
4.7420208031331565
3.2957198443579747
4.858955774268176
3.1049312072429505
4.631240304163148
3.406500343327984
4.6004679433381535
3.468045064977998
4.341980112408105
3.825004450548036
4.095801225808078
4.065028864983084
3.8680857557030492
4.323516695913104
3.486508481473
4.5943134711731455
3.375727982502963
4.9266549680832
3.375727982502963
4.858955774268176
3.2464840670379527
4.785102108288171
3.271101955697964
4.772793163958178
3.529589786627985
4.280435390758092
3.831158922713046
4.108110170138069
4.145037003128072
3.677297118588024
4.3173622237481215
3.8988581165280416
4.8528013021031935
3.3880369268329824
4.748175275298167
3.264947483532954
4.932809440248209
3.308028788687967
4.6435492484931675
3.406500343327984
4.612776887668146
3.6219068691030203
4.305053279418103
3.9357849495180455
4.089646753643067
3.825004450548036
3.9727117825080476
4.557386638183142
3.548053203123014
4.625085831998166
3.3388011495129604
4.81587446911319
3.2403295948729705
4.858955774268176
3.2526385392029624
4.7297118588031655
3.511126370132983
4.6004679433381535
3.6465247577630033
4.065028864983084
3.554207675287996
4.101955697973087
4.1758093639530935
3.781923145393024
4.40967930622313
3.560362147453006
4.698939497978172
3.3264922051829684
5.640573739223304
2.8218254876528905
4.501996388698137
3.289565372192965
4.7420208031331565
3.874240227868059
5.203606215508222
3.788077617558033
4.360443528903107
3.9788662546730578
3.9911751990030497
4.237354085603107
3.738841840238039
4.495841916533128
3.5234353144630024
4.705093970143154
3.437272704152977
4.766638691793168
3.234175122707961
4.538923221688139
2.6433457948678853
4.575850054678144
3.437272704152977
4.5327687495231315
3.825004450548036
4.095801225808078
3.9542483660130467
3.9665573103430654
4.280435390758092
3.640370285598021
4.440451667048122
3.504971897968001
4.748175275298167
3.375727982502963
4.735866330968175
3.75115078456803
6.059077846443356
3.4311182319879947
4.705093970143154
3.48035400930799
3.449581648482997
2.4894839907428636
4.034256504158063
3.9911751990030497
3.8496223392080475
4.27428091859311
3.6219068691030203
4.612776887668146
3.504971897968001
4.6435492484931675
3.264947483532954
4.754329747463175
3.2403295948729705
4.785102108288171
3.271101955697964
4.637394776328158
3.5357442587929944
4.2681264464281
3.695760535083026
4.083492281478085
4.003484143333068
4.065028864983084
4.889728135093197
3.701915007248036
4.526614277358149
3.3695735103379807
4.735866330968175
3.2034027618829395
4.766638691793168
3.3141832608529764
4.877419190763177
3.2095572340479492
4.686630553648152
3.5357442587929944
4.366598001068117
3.6034434526080172
3.461890592812989
3.8496223392080475
3.788077617558033
4.3173622237481215
3.529589786627985
4.421988250553122
3.394191398997992
4.705093970143154
3.221866178377941
4.809719996948181
3.2280206505429514
4.803565524783171
3.3695735103379807
4.618931359833156
3.9234760051880535
4.452760611378115
3.8126955062180454
4.015793087663061
4.0711833371480655
3.8434678670430373
4.341980112408105
3.461890592812989
4.483532972203136
3.1049312072429505
5.092825716538213
3.3141832608529764
4.668167137153151
3.178784873222956
4.662012664988168
3.2464840670379527
4.514305333028129
3.560362147453006
4.305053279418103
3.8126955062180454
3.9419394216830552
4.249663029933098
3.781923145393024
4.280435390758092
3.541898730958004
4.612776887668146
3.308028788687967
4.705093970143154
2.9818417639429216
4.7297118588031655
3.308028788687967
4.68047608148317
3.3141832608529764
4.495841916533128
3.6465247577630033
4.3112077515831135
3.837313394878028
4.009638615498079
4.157345947458091
3.701915007248036
4.37890694539811
3.461890592812989
4.655858192823159
3.2403295948729705
4.7912565804531795
3.2034027618829395
4.7420208031331565
3.1849393453879378
4.754329747463175
3.3880369268329824
4.440451667048122
3.652679229928013
4.280435390758092
3.9665573103430654
3.874240227868059
4.151191475293081
4.034256504158063
4.618931359833156
3.35111009384298
4.67432160931816
3.2957198443579747
4.797411052618189
3.166475928892937
4.735866330968175
3.2095572340479492
4.692785025813162
3.4557361206479786
5.135907021693225
5.375931436128245
3.400345871162974
2.3171587701228398
3.609597924773
4.145037003128072
3.671142646423015
4.483532972203136
3.437272704152977
4.649703720658149
3.289565372192965
4.889728135093197
3.2095572340479492
4.778947636123188
3.301874316522957
4.7420208031331565
3.48035400930799
4.2065817247780855
4.212736196943095
5.437476157778259
3.763459728898022
4.138882530963089
4.200427252613103
3.6834515907530063
4.526614277358149
3.449581648482997
3.9357849495180455
1.8186465247577446
4.606622415503137
3.141858040232953
4.711248442308165
3.9296304773530633
5.129752549528216
3.461890592812989
4.538923221688139
3.6834515907530063
4.12657358663307
4.040410976323072
3.855776811373057
4.280435390758092
3.640370285598021
4.569695582513134
3.486508481473
4.668167137153151
3.308028788687967
4.348134584573115
2.6987360443528896
4.735866330968175
3.3264922051829684
4.631240304163148
3.591134508277999
4.298898807253093
3.75730525673304
4.138882530963089
4.083492281478085
3.7942320897230433
4.348134584573115
3.6034434526080172
4.711248442308165
3.3203377330179586
4.68047608148317
3.2280206505429514
4.846646829938185
3.178784873222956
4.81587446911319
3.394191398997992
4.723557386638155
3.4311182319879947
4.3173622237481215
3.788077617558033
4.052719920653064
4.108110170138069
3.701915007248036
4.766638691793168
4.2681264464281
4.551232166018132
3.301874316522957
4.748175275298167
3.2526385392029624
4.834337885608192
3.2526385392029624
4.662012664988168
3.221866178377941
4.92050049591819
3.591134508277999
4.354289056738125
3.837313394878028
3.825004450548036
3.5665166196180156
3.6834515907530063
4.458915083543125
3.468045064977998
4.54507769385315
3.3141832608529764
4.692785025813162
3.1972482897179573
4.7912565804531795
3.191093817552948
4.686630553648152
3.3141832608529764
4.5943134711731455
3.5972889804430093
4.2681264464281
3.831158922713046
4.028102031993082
4.188118308283084
3.781923145393024
4.27428091859311
3.548053203123014
4.501996388698137
3.363419038172971
4.735866330968175
3.2095572340479492
4.846646829938185
3.2280206505429514
4.686630553648152
3.301874316522957
4.489687444368147
3.560362147453006
4.218890669108104
3.8803947000330408
4.034256504158063
4.840492357773174
5.277459881488256
4.0711833371480655
3.5357442587929944
4.612776887668146
3.258793011367972
4.760484219628157
3.0249230690979347
3.055695429922928
2.6371913227028756
4.625085831998166
3.4434271763179867
4.415833778388112
3.640370285598021
4.145037003128072
3.9788662546730578
3.8680857557030492
4.101955697973087
3.640370285598021
4.385061417563119
3.449581648482997
4.809719996948181
3.8496223392080475
4.9266549680832
3.264947483532954
4.766638691793168
3.2957198443579747
4.67432160931816
3.486508481473
4.526614277358149
3.61575239693801
4.212736196943095
3.9973296711680604
3.9173215330230438
4.231199613438097
3.6034434526080172
4.101955697973087
3.3449556216779697
4.67432160931816
3.3141832608529764
4.766638691793168
3.191093817552948
4.803565524783171
3.2957198443579747
4.6435492484931675
3.486508481473
4.520459805193139
3.7080694794130173
4.108110170138069
4.114264642303079
4.520459805193139
4.434297194883113
3.6834515907530063
4.458915083543125
3.48035400930799
4.67432160931816
3.283410900027955
4.748175275298167
3.1726304010579467
4.803565524783171
3.301874316522957
4.606622415503137
3.5172808422979926
4.458915083543125
4.028102031993082
4.526614277358149
3.9050125886930522
4.101955697973087
4.157345947458091
2.4587116299178424
4.028102031993082
3.486508481473
4.655858192823159
3.178784873222956
4.7420208031331565
3.215711706212959
4.717402914473173
3.3203377330179586
5.06205335571322
3.8126955062180454
4.3112077515831135
3.75115078456803
4.052719920653064
4.0465654484880815
3.800386561888025
4.298898807253093
3.5234353144630024
4.6004679433381535
3.277256427862973
4.68047608148317
3.191093817552948
4.711248442308165
2.7171994608478913
4.3727524732331275
3.221866178377941
4.631240304163148
3.400345871162974
4.298898807253093
3.800386561888025
3.9788662546730578
4.040410976323072
3.8065410340530352
4.323516695913104
3.61575239693801
4.385061417563119
3.418809287657976
5.511329823758264
4.1758093639530935
4.785102108288171
3.0987767350779407
4.7420208031331565
2.754126293837894
3.5172808422979926
3.4311182319879947
4.2865898629231
3.781923145393024
4.015793087663061
4.157345947458091
3.695760535083026
4.477378500038126
3.9050125886930522
4.957427328908192
3.9357849495180455
6.034459957783345
3.3388011495129604
4.834337885608192
3.234175122707961
3.486508481473
2.403321380432838
4.40967930622313
3.5234353144630024
4.2681264464281
3.9050125886930522
3.9296304773530633
3.7265328959080186
3.35111009384298
4.231199613438097
3.4311182319879947
4.557386638183142
3.283410900027955
4.760484219628157
3.154166984562945
4.766638691793168
3.418809287657976
4.588158999008135
3.406500343327984
4.477378500038126
3.677297118588024
4.305053279418103
3.8680857557030492
3.9542483660130467
4.218890669108104
3.6465247577630033
4.40352483405812
3.48035400930799
4.6004679433381535
3.2464840670379527
4.809719996948181
3.234175122707961
4.772793163958178
3.166475928892937
4.68047608148317
3.75115078456803
5.018972050558207
3.75730525673304
4.255817502098108
3.9727117825080476
4.009638615498079
4.101955697973087
3.738841840238039
4.446606139213133
3.4311182319879947
4.612776887668146
3.234175122707961
4.81587446911319
3.2034027618829395
4.477378500038126
2.680272627857888
4.557386638183142
3.375727982502963
4.40352483405812
3.652679229928013
4.2065817247780855
3.9604028381780574
3.7942320897230433
4.065028864983084
3.3449556216779697
4.711248442308165
3.424963759822985
4.631240304163148
3.357264566007961
4.778947636123188
3.0987767350779407
4.7912565804531795
3.308028788687967
4.68047608148317
3.400345871162974
4.3112077515831135
3.732687368073029
4.145037003128072
3.9234760051880535
3.7757686732280415
4.218890669108104
3.6219068691030203
4.5327687495231315
3.160321456727955
4.5820045268431535
3.258793011367972
4.760484219628157
3.141858040232953
4.711248442308165
3.289565372192965
4.668167137153151
3.4741995371429804
4.785102108288171
5.111289133033214
4.335825640243124
4.0465654484880815
3.9604028381780574
4.354289056738125
3.5357442587929944
4.526614277358149
2.8033620711578893
3.215711706212959
2.8895246814679143
4.822028941278172
3.117240151572942
4.698939497978172
3.3388011495129604
4.655858192823159
4.237354085603107
3.8803947000330408
3.628061341268002
4.772793163958178
4.237354085603107
3.7757686732280415
4.341980112408105
3.609597924773
4.67432160931816
3.2464840670379527
4.686630553648152
3.234175122707961
4.834337885608192
3.277256427862973
5.406703796953265
5.05589888354821
3.548053203123014
1.2401261412476885
3.8126955062180454
3.7757686732280415
4.040410976323072
4.138882530963089
3.701915007248036
4.348134584573115
3.6465247577630033
4.495841916533128
3.234175122707961
4.723557386638155
3.215711706212959
4.785102108288171
3.2280206505429514
4.9266549680832
3.554207675287996
4.551232166018132
3.529589786627985
4.27428091859311
3.8619312835380395
3.9911751990030497
4.1327280587980795
3.7265328959080186
4.526614277358149
3.504971897968001
4.6435492484931675
3.283410900027955
4.846646829938185
3.9173215330230438
5.105134660868233
3.3141832608529764
4.803565524783171
3.357264566007961
4.526614277358149
3.677297118588024
4.280435390758092
3.874240227868059
4.003484143333068
4.200427252613103
3.7449963124030208
4.348134584573115
3.4741995371429804
4.1327280587980795
2.895679153632896
4.67432160931816
3.2034027618829395
4.846646829938185
3.3695735103379807
4.612776887668146
3.418809287657976
4.538923221688139
3.671142646423015
4.108110170138069
3.9173215330230438
4.021947559828071
4.261971974263091
3.375727982502963
4.452760611378115
3.449581648482997
4.612776887668146
3.1357035680679433
4.471224027873144
3.5172808422979926
4.963581801073202
3.117240151572942
4.588158999008135
3.381882454667973
4.465069555708134
3.720378423743037
4.120419114468088
4.015793087663061
3.9234760051880535
4.058874392818074
3.541898730958004
4.37890694539811
3.3141832608529764
4.606622415503137
3.1849393453879378
4.748175275298167
3.234175122707961
4.67432160931816
3.215711706212959
4.6004679433381535
3.394191398997992
4.452760611378115
3.6834515907530063
4.114264642303079
4.040410976323072
3.8126955062180454
4.218890669108104
3.554207675287996
4.391215889728128
3.363419038172971
4.662012664988168
3.2095572340479492
4.785102108288171
3.018768596932925
4.846646829938185
3.0003051804379233
4.237354085603107
3.394191398997992
4.3727524732331275
3.75115078456803
4.077337809313075
3.8619312835380395
3.788077617558033
4.255817502098108
3.511126370132983
4.440451667048122
3.400345871162974
4.686630553648152
3.117240151572942
4.975890745403193
3.394191398997992
4.6435492484931675
3.277256427862973
4.563541110348153
3.4988174258029914
4.452760611378115
4.446606139213133
5.646728211388286
3.720378423743037
3.837313394878028
4.341980112408105
3.560362147453006
4.538923221688139
2.871061264972913
2.9572238752829105
2.8402889041478923
4.766638691793168
3.1972482897179573
4.7912565804531795
3.2957198443579747
4.557386638183142
3.628061341268002
4.329671168078114
3.7080694794130173
4.101955697973087
3.9788662546730578
3.75730525673304
4.563541110348153
3.720378423743037
4.5327687495231315
3.3695735103379807
4.766638691793168
3.178784873222956
4.766638691793168
3.283410900027955
4.735866330968175
3.277256427862973
4.440451667048122
3.628061341268002
4.3727524732331275
3.825004450548036
4.021947559828071
4.095801225808078
3.732687368073029
4.421988250553122
3.548053203123014
4.54507769385315
3.357264566007961
4.772793163958178
3.2280206505429514
4.772793163958178
3.2280206505429514
4.760484219628157
3.4557361206479786
4.477378500038126
3.5665166196180156
4.12657358663307
3.874240227868059
3.9604028381780574
4.12657358663307
3.75115078456803
4.7297118588031655
3.1110856794079322
4.612776887668146
3.3141832608529764
4.760484219628157
3.178784873222956
4.754329747463175
3.2526385392029624
4.754329747463175
3.0003051804379233
4.705093970143154
3.732687368073029
4.237354085603107
3.9111670608580615
3.9911751990030497
4.231199613438097
3.720378423743037
4.3112077515831135
3.400345871162974
4.606622415503137
3.301874316522957
4.809719996948181
3.221866178377941
4.840492357773174
3.363419038172971
4.698939497978172
3.424963759822985
4.477378500038126
3.6896060629180156
4.298898807253093
3.9788662546730578
4.009638615498079
4.3112077515831135
3.6219068691030203
4.458915083543125
3.406500343327984
4.668167137153151
3.221866178377941
4.760484219628157
3.271101955697964
5.006663106228215
2.9387604587879093
4.618931359833156
3.424963759822985
4.385061417563119
3.671142646423015
4.1758093639530935
3.9911751990030497
3.9050125886930522
4.12657358663307
3.7265328959080186
4.538923221688139
3.3203377330179586
4.655858192823159
3.277256427862973
4.828183413443182
3.3264922051829684
4.717402914473173
3.283410900027955
4.618931359833156
3.4311182319879947
4.37890694539811
3.7142239515780275
4.151191475293081
4.083492281478085
3.7942320897230433
4.237354085603107
4.298898807253093
6.163703873248383
3.0864677907479487
4.637394776328158
3.191093817552948
3.4434271763179867
2.477175046412844
4.7420208031331565
3.277256427862973
4.637394776328158
3.48035400930799
4.354289056738125
3.781923145393024
4.280435390758092
3.831158922713046
3.75115078456803
4.2681264464281
3.5665166196180156
4.520459805193139
3.381882454667973
4.705093970143154
3.301874316522957
4.711248442308165
3.160321456727955
4.637394776328158
3.35111009384298
5.283614353653238
3.8680857557030492
4.37890694539811
3.800386561888025
4.040410976323072
4.151191475293081
3.7942320897230433
4.305053279418103
3.591134508277999
4.5943134711731455
3.394191398997992
4.649703720658149
3.215711706212959
4.7912565804531795
2.618727906207874
4.255817502098108
3.277256427862973
4.6004679433381535
3.837313394878028
5.289768825818246
4.015793087663061
4.54507769385315
4.163500419623101
3.732687368073029
4.348134584573115
3.560362147453006
4.218890669108104
1.6709391927977324
4.520459805193139
3.1726304010579467
4.735866330968175
3.1480125123979352
4.705093970143154
3.308028788687967
4.649703720658149
3.504971897968001
4.1327280587980795
3.800386561888025
3.9727117825080476
4.0711833371480655
3.671142646423015
4.391215889728128
3.658833702093023
4.6004679433381535
3.191093817552948
4.717402914473173
3.1849393453879378
4.778947636123188
3.154166984562945
4.686630553648152
3.3141832608529764
4.588158999008135
3.6034434526080172
4.169654891788083
3.8988581165280416
3.9542483660130467
3.9665573103430654
3.437272704152977
6.200630706238385
2.526410823732866
3.7449963124030208
3.1849393453879378
4.711248442308165
3.2403295948729705
4.7912565804531795
3.2280206505429514
4.538923221688139
3.4434271763179867
4.452760611378115
3.5972889804430093
4.698939497978172
4.618931359833156
4.058874392818074
4.212736196943095
3.7757686732280415
4.305053279418103
3.449581648482997
4.692785025813162
3.271101955697964
4.834337885608192
3.2403295948729705
4.711248442308165
3.006459652602933
4.840492357773174
3.1726304010579467
3.825004450548036
3.5972889804430093
4.12657358663307
3.9296304773530633
3.8988581165280416
4.329671168078114
3.529589786627985
4.37890694539811
3.394191398997992
4.5820045268431535
3.1849393453879378
5.308232242313249
4.465069555708134
4.0711833371480655
1.89865466290276
4.434297194883113
3.400345871162974
4.397370361893111
3.701915007248036
4.1327280587980795
3.8496223392080475
3.9234760051880535
4.077337809313075
3.541898730958004
4.354289056738125
3.35111009384298
4.606622415503137
3.2403295948729705
4.686630553648152
3.2280206505429514
4.655858192823159
3.234175122707961
4.569695582513134
3.486508481473
4.415833778388112
3.701915007248036
4.095801225808078
4.015793087663061
3.800386561888025
4.249663029933098
3.4988174258029914
4.569695582513134
3.4126548154929934
4.618931359833156
3.1972482897179573
4.772793163958178
3.049540957757918
4.705093970143154
3.221866178377941
4.54507769385315
3.4557361206479786
4.3173622237481215
3.781923145393024
4.0711833371480655
3.8988581165280416
3.781923145393024
4.108110170138069
3.437272704152977
4.452760611378115
3.4434271763179867
4.698939497978172
3.178784873222956
4.662012664988168
3.154166984562945
4.754329747463175
3.258793011367972
4.526614277358149
3.5172808422979926
4.385061417563119
3.9296304773530633
4.354289056738125
4.157345947458091
3.8434678670430373
4.298898807253093
3.4557361206479786
4.335825640243124
3.695760535083026
4.889728135093197
3.117240151572942
4.772793163958178
3.215711706212959
4.7420208031331565
3.3264922051829684
4.471224027873144
3.277256427862973
4.169654891788083
3.800386561888025
3.9665573103430654
4.052719920653064
3.763459728898022
4.348134584573115
3.461890592812989
4.6004679433381535
3.3449556216779697
4.698939497978172
3.2034027618829395
4.81587446911319
3.215711706212959
4.766638691793168
3.4311182319879947
4.520459805193139
3.5972889804430093
4.200427252613103
3.831158922713046
3.9419394216830552
4.145037003128072
3.75115078456803
4.40352483405812
3.511126370132983
4.520459805193139
3.2526385392029624
4.840492357773174
3.3880369268329824
4.828183413443182
3.258793011367972
4.723557386638155
3.418809287657976
4.452760611378115
3.548053203123014
4.261971974263091
3.9111670608580615
3.8988581165280416
4.145037003128072
3.7449963124030208
4.458915083543125
3.3695735103379807
4.348134584573115
3.092622262912931
4.717402914473173
3.160321456727955
4.717402914473173
3.258793011367972
4.631240304163148
4.015793087663061
6.009842069123361
3.3203377330179586
4.108110170138069
3.9542483660130467
3.837313394878028
4.114264642303079
2.975687291777912
2.8033620711578893
3.1357035680679433
4.520459805193139
3.2464840670379527
4.760484219628157
3.1357035680679433
4.68047608148317
3.2957198443579747
4.655858192823159
3.394191398997992
4.360443528903107
3.732687368073029
4.1942727804480935
4.225045141273086
3.9727117825080476
4.305053279418103
3.5849800361130173
4.415833778388112
3.363419038172971
4.668167137153151
3.264947483532954
4.871264718598195
3.160321456727955
4.889728135093197
3.258793011367972
4.6435492484931675
3.4926629536379816
4.778947636123188
4.138882530963089
4.231199613438097
4.034256504158063
3.9173215330230438
4.305053279418103
3.572671091782997
4.495841916533128
3.449581648482997
4.686630553648152
3.271101955697964
4.772793163958178
3.283410900027955
4.68047608148317
2.8156710154879088
4.108110170138069
3.418809287657976
4.3112077515831135
3.6834515907530063
4.151191475293081
4.108110170138069
3.7142239515780275
4.231199613438097
3.578825563948007
4.538923221688139
3.357264566007961
4.686630553648152
3.308028788687967
4.686630553648152
2.6371913227028756
4.945118384578201
3.363419038172971
4.5943134711731455
3.4741995371429804
4.27428091859311
3.8126955062180454
4.138882530963089
3.9542483660130467
3.738841840238039
4.298898807253093
3.5357442587929944
4.538923221688139
3.511126370132983
4.932809440248209
3.363419038172971
4.735866330968175
3.2464840670379527
4.668167137153151
3.3695735103379807
4.563541110348153
3.5172808422979926
4.298898807253093
3.9419394216830552
3.9727117825080476
4.169654891788083
3.720378423743037
4.5820045268431535
3.9419394216830552
4.649703720658149
3.381882454667973
4.840492357773174
3.1726304010579467
4.8528013021031935
3.2464840670379527
4.705093970143154
3.394191398997992
4.588158999008135
3.6034434526080172
4.298898807253093
3.837313394878028
3.948093893848065
3.9850207268380675
3.720378423743037
4.3173622237481215
3.511126370132983
4.717402914473173
3.4126548154929934
4.67432160931816
3.1849393453879378
4.828183413443182
3.271101955697964
4.705093970143154
3.418809287657976
4.68047608148317
4.772793163958178
4.606622415503137
4.065028864983084
4.27428091859311
3.8988581165280416
3.3695735103379807
4.415833778388112
3.277256427862973
3.0310775412629165
2.667963683527869
4.692785025813162
3.221866178377941
4.822028941278172
3.221866178377941
4.766638691793168
3.732687368073029
4.588158999008135
3.609597924773
4.212736196943095
3.9665573103430654
4.003484143333068
4.231199613438097
3.671142646423015
4.489687444368147
3.578825563948007
4.5820045268431535
3.2403295948729705
4.723557386638155
3.1972482897179573
4.551232166018132
3.154166984562945
4.7912565804531795
3.4926629536379816
4.397370361893111
3.677297118588024
4.181963836118102
3.9357849495180455
3.9111670608580615
4.2681264464281
3.4557361206479786
4.434297194883113
3.357264566007961
4.649703720658149
3.234175122707961
4.748175275298167
3.1295490959029335
4.772793163958178
3.1849393453879378
4.588158999008135
3.449581648482997
4.477378500038126
3.701915007248036
4.12657358663307
3.9911751990030497
3.9173215330230438
4.2681264464281
3.677297118588024
4.471224027873144
3.3695735103379807
4.711248442308165
3.234175122707961
4.822028941278172
3.215711706212959
5.535947712418277
2.8218254876528905
4.255817502098108
3.3695735103379807
4.157345947458091
4.015793087663061
4.138882530963089
4.0711833371480655
4.003484143333068
4.225045141273086
3.572671091782997
4.508150860863147
3.4126548154929934
4.705093970143154
3.2403295948729705
4.785102108288171
3.0864677907479487
4.871264718598195
3.35111009384298
4.612776887668146
3.48035400930799
4.391215889728128
3.781923145393024
4.034256504158063
4.181963836118102
3.825004450548036
4.335825640243124
3.5849800361130173
4.5820045268431535
3.406500343327984
4.7420208031331565
3.2464840670379527
4.908191551588198
3.1357035680679433
4.7297118588031655
3.35111009384298
4.7297118588031655
3.554207675287996
4.37890694539811
3.8496223392080475
4.1758093639530935
4.040410976323072
3.8803947000330408
4.397370361893111
3.554207675287996
4.5820045268431535
3.381882454667973
4.828183413443182
3.381882454667973
4.711248442308165
3.308028788687967
4.754329747463175
3.3695735103379807
4.538923221688139
3.634215813433012
4.305053279418103
4.015793087663061
3.9111670608580615
4.083492281478085
3.8188499783830263
4.40352483405812
3.48035400930799
5.2220696320032225
5.025126522723218
3.560362147453006
2.471020574247862
4.766638691793168
3.264947483532954
4.698939497978172
3.2957198443579747
4.54507769385315
3.6465247577630033
4.3727524732331275
3.7942320897230433
3.9111670608580615
4.157345947458091
3.7449963124030208
4.440451667048122
3.289565372192965
4.3727524732331275
3.4311182319879947
4.705093970143154
3.1726304010579467
4.803565524783171
3.277256427862973
4.766638691793168
3.424963759822985
4.520459805193139
3.720378423743037
4.27428091859311
3.9357849495180455
3.948093893848065
4.145037003128072
3.6649881742580046
4.452760611378115
3.3695735103379807
4.772793163958178
3.3141832608529764
4.7912565804531795
3.2280206505429514
4.766638691793168
3.277256427862973
4.785102108288171
3.48035400930799
4.495841916533128
3.6034434526080172
4.7297118588031655
4.483532972203136
4.021947559828071
4.218890669108104
3.720378423743037
4.563541110348153
3.4988174258029914
4.637394776328158
3.332646677347978
4.785102108288171
3.117240151572942
4.797411052618189
3.258793011367972
4.7297118588031655
3.264947483532954
3.7942320897230433
3.61575239693801
4.181963836118102
3.9850207268380675
3.7757686732280415
3.9973296711680604
4.021947559828071
4.625085831998166
3.3695735103379807
4.723557386638155
3.3203377330179586
4.8651102464331855
3.234175122707961
4.81587446911319
3.504971897968001
4.7297118588031655
3.4557361206479786
4.428142722718132
3.7757686732280415
4.157345947458091
4.015793087663061
3.8803947000330408
4.428142722718132
3.7142239515780275
4.526614277358149
3.4311182319879947
4.7912565804531795
3.271101955697964
4.655858192823159
3.154166984562945
4.834337885608192
3.3203377330179586
4.637394776328158
3.48035400930799
4.415833778388112
3.781923145393024
4.2065817247780855
4.052719920653064
3.75115078456803
4.2681264464281
3.5972889804430093
4.612776887668146
3.4126548154929934
4.686630553648152
3.234175122707961
4.834337885608192
3.2095572340479492
4.797411052618189
3.3449556216779697
4.612776887668146
3.541898730958004
4.323516695913104
3.75115078456803
4.163500419623101
4.145037003128072
3.763459728898022
4.2865898629231
3.6219068691030203
4.588158999008135
3.301874316522957
4.618931359833156
3.2464840670379527
4.92050049591819
3.6219068691030203
5.8805981536583225
3.4988174258029914
4.5943134711731455
3.541898730958004
4.2865898629231
3.8188499783830263
3.258793011367972
2.680272627857888
3.548053203123014
4.27428091859311
3.5234353144630024
4.612776887668146
3.332646677347978
4.7297118588031655
3.308028788687967
4.705093970143154
3.1233946237379517
4.67432160931816
3.375727982502963
4.54507769385315
3.363419038172971
4.163500419623101
3.948093893848065
3.8988581165280416
4.040410976323072
3.652679229928013
4.360443528903107
3.4926629536379816
4.520459805193139
3.363419038172971
4.871264718598195
3.1049312072429505
4.717402914473173
3.258793011367972
5.05589888354821
3.449581648482997
4.5327687495231315
3.652679229928013
4.354289056738125
3.8126955062180454
3.9419394216830552
4.169654891788083
3.6649881742580046
4.354289056738125
3.5234353144630024
4.637394776328158
3.363419038172971
4.711248442308165
3.1726304010579467
4.686630553648152
3.1726304010579467
4.631240304163148
3.406500343327984
4.483532972203136
3.7696142010630322
4.101955697973087
3.8988581165280416
3.9604028381780574
4.163500419623101
3.6219068691030203
4.440451667048122
3.554207675287996
4.951272856743211
3.049540957757918
5.006663106228215
3.271101955697964
4.797411052618189
3.2464840670379527
4.6004679433381535
3.554207675287996
6.059077846443356
4.145037003128072
4.2681264464281
3.9604028381780574
3.9542483660130467
4.237354085603107
3.394191398997992
4.12657358663307
1.9848172732127856
3.9111670608580615
3.191093817552948
4.698939497978172
3.1849393453879378
4.797411052618189
3.215711706212959
4.637394776328158
3.4557361206479786
4.391215889728128
3.695760535083026
4.101955697973087
4.009638615498079
3.874240227868059
4.261971974263091
3.6649881742580046
4.477378500038126
3.301874316522957
4.618931359833156
3.141858040232953
4.754329747463175
3.1849393453879378
4.754329747463175
3.3203377330179586
4.7297118588031655
3.406500343327984
4.292744335088111
3.541898730958004
4.028102031993082
3.9973296711680604
3.9542483660130467
4.323516695913104
3.6465247577630033
4.452760611378115
3.357264566007961
4.698939497978172
3.234175122707961
4.7912565804531795
3.154166984562945
4.8528013021031935
3.8988581165280416
4.91434602375318
3.5357442587929944
5.105134660868233
5.486711935098282
3.831158922713046
4.028102031993082
3.4926629536379816
2.7910531268278973
3.178784873222956
4.538923221688139
3.308028788687967
4.692785025813162
3.215711706212959
4.5820045268431535
2.883370209302905
4.7420208031331565
3.283410900027955
4.569695582513134
3.5665166196180156
4.341980112408105
3.7696142010630322
4.015793087663061
4.065028864983084
3.75115078456803
4.2681264464281
3.4926629536379816
4.575850054678144
3.3203377330179586
4.483532972203136
3.1295490959029335
4.772793163958178
