4.12657358663307
4.12657358663307
4.12657358663307
4.12657358663307
4.12657358663307
4.1327280587980795
4.138882530963089
4.12657358663307
4.120419114468088
4.12657358663307
4.138882530963089
4.145037003128072
4.151191475293081
4.145037003128072
4.157345947458091
4.151191475293081
4.138882530963089
4.151191475293081
4.145037003128072
4.151191475293081
4.151191475293081
4.138882530963089
4.145037003128072
4.145037003128072
4.12657358663307
4.1327280587980795
4.138882530963089
4.138882530963089
4.138882530963089
4.1327280587980795
4.12657358663307
4.12657358663307
4.108110170138069
4.12657358663307
4.12657358663307
4.12657358663307
4.1327280587980795
4.12657358663307
4.120419114468088
4.114264642303079
4.114264642303079
4.12657358663307
4.12657358663307
4.12657358663307
4.108110170138069
4.108110170138069
4.108110170138069
4.101955697973087
4.12657358663307
4.188118308283084
4.261971974263091
4.348134584573115
4.415833778388112
4.3727524732331275
4.255817502098108
4.114264642303079
4.058874392818074
4.052719920653064
4.052719920653064
4.077337809313075
4.083492281478085
4.095801225808079
4.101955697973087
4.083492281478085
4.095801225808079
4.095801225808079
4.095801225808079
4.089646753643067
4.095801225808079
4.108110170138069
4.108110170138069
4.095801225808079
4.095801225808079
4.101955697973087
4.108110170138069
4.101955697973087
4.114264642303079
4.114264642303079
4.108110170138069
4.095801225808079
4.101955697973087
4.108110170138069
4.114264642303079
4.114264642303079
4.114264642303079
4.114264642303079
4.101955697973087
4.089646753643067
4.101955697973087
4.108110170138069
4.114264642303079
4.108110170138069
4.108110170138069
4.108110170138069
4.108110170138069
4.101955697973087
4.101955697973087
4.108110170138069
4.108110170138069
4.058874392818074
3.9296304773530633
4.101955697973087
4.108110170138069
4.083492281478085
4.095801225808079
4.101955697973087
4.089646753643067
4.089646753643067
4.095801225808079
4.101955697973087
4.089646753643067
4.095801225808079
4.095801225808079
4.108110170138069
4.108110170138069
4.108110170138069
4.108110170138069
4.108110170138069
4.101955697973087
4.108110170138069
4.12657358663307
4.12657358663307
4.12657358663307
4.12657358663307
4.12657358663307
4.138882530963089
4.120419114468088
4.1327280587980795
4.145037003128072
4.138882530963089
4.12657358663307
4.12657358663307
4.12657358663307
4.12657358663307
4.108110170138069
4.108110170138069
4.101955697973087
4.108110170138069
4.120419114468088
4.120419114468088
4.114264642303079
4.114264642303079
4.101955697973087
4.114264642303079
4.114264642303079
4.114264642303079
4.114264642303079
4.108110170138069
4.101955697973087
4.101955697973087
4.095801225808079
4.101955697973087
4.101955697973087
4.101955697973087
4.101955697973087
4.108110170138069
4.101955697973087
4.089646753643067
4.083492281478085
4.108110170138069
4.108110170138069
4.108110170138069
4.108110170138069
4.095801225808079
4.101955697973087
4.034256504158063
3.9111670608580615
4.095801225808079
4.108110170138069
4.114264642303079
4.108110170138069
4.114264642303079
4.114264642303079
4.077337809313075
4.077337809313075
4.089646753643067
4.095801225808079
4.101955697973087
4.095801225808079
4.101955697973087
4.095801225808079
4.083492281478085
4.101955697973087
4.101955697973087
4.101955697973087
4.095801225808079
4.108110170138069
4.101955697973087
4.101955697973087
4.089646753643067
4.101955697973087
4.101955697973087
4.101955697973087
4.095801225808079
4.101955697973087
4.089646753643067
4.083492281478085
4.083492281478085
4.101955697973087
4.095801225808079
4.101955697973087
4.095801225808079
4.089646753643067
4.095801225808079
4.089646753643067
4.083492281478085
4.089646753643067
4.101955697973087
4.095801225808079
4.101955697973087
4.101955697973087
4.095801225808079
4.089646753643067
4.089646753643067
4.101955697973087
4.108110170138069
4.108110170138069
4.101955697973087
4.101955697973087
4.095801225808079
4.083492281478085
4.040410976323072
3.905012588693053
4.095801225808079
4.114264642303079
4.108110170138069
4.101955697973087
4.101955697973087
4.0711833371480655
4.0711833371480655
4.089646753643067
4.101955697973087
4.114264642303079
4.114264642303079
4.114264642303079
4.120419114468088
4.108110170138069
4.108110170138069
4.120419114468088
4.108110170138069
4.108110170138069
4.101955697973087
4.108110170138069
4.101955697973087
4.077337809313075
4.101955697973087
4.095801225808079
4.101955697973087
4.108110170138069
4.101955697973087
4.095801225808079
4.095801225808079
4.089646753643067
4.101955697973087
4.095801225808079
4.101955697973087
4.095801225808079
4.095801225808079
4.095801225808079
4.095801225808079
4.083492281478085
4.095801225808079
4.101955697973087
4.095801225808079
4.095801225808079
4.095801225808079
4.083492281478085
4.089646753643067
4.089646753643067
4.1327280587980795
4.212736196943095
4.2865898629231
4.366598001068117
4.366598001068117
4.261971974263091
4.120419114468088
4.058874392818074
4.021947559828071
4.015793087663061
4.034256504158063
4.052719920653064
4.0711833371480655
4.0711833371480655
4.0711833371480655
4.077337809313075
4.0711833371480655
4.083492281478085
4.089646753643067
4.089646753643067
4.089646753643067
4.089646753643067
4.0711833371480655
4.089646753643067
4.083492281478085
4.083492281478085
4.095801225808079
4.095801225808079
4.089646753643067
4.089646753643067
4.077337809313075
4.089646753643067
4.089646753643067
4.095801225808079
4.095801225808079
4.101955697973087
4.089646753643067
4.095801225808079
4.083492281478085
4.095801225808079
4.095801225808079
4.101955697973087
4.095801225808079
4.083492281478085
4.095801225808079
4.083492281478085
4.089646753643067
4.101955697973087
4.095801225808079
4.095801225808079
4.095801225808079
4.095801225808079
4.089646753643067
4.083492281478085
4.083492281478085
4.101955697973087
4.095801225808079
4.089646753643067
4.089646753643067
4.089646753643067
4.095801225808079
4.083492281478085
4.089646753643067
4.089646753643067
4.101955697973087
4.101955697973087
4.101955697973087
4.095801225808079
4.108110170138069
4.089646753643067
4.101955697973087
4.108110170138069
4.108110170138069
4.108110170138069
4.065028864983084
3.9419394216830552
4.114264642303079
4.108110170138069
4.114264642303079
4.114264642303079
4.120419114468088
4.120419114468088
4.114264642303079
4.114264642303079
4.108110170138069
4.089646753643067
4.101955697973087
4.089646753643067
4.095801225808079
4.089646753643067
4.089646753643067
4.089646753643067
4.083492281478085
4.0711833371480655
4.089646753643067
4.083492281478085
4.083492281478085
4.077337809313075
4.077337809313075
4.0711833371480655
4.065028864983084
4.058874392818074
4.083492281478085
4.077337809313075
4.077337809313075
4.0711833371480655
4.077337809313075
4.0711833371480655
4.065028864983084
4.0711833371480655
4.077337809313075
4.083492281478085
4.083492281478085
4.077337809313075
4.083492281478085
4.083492281478085
4.065028864983084
4.0711833371480655
4.083492281478085
4.077337809313075
4.077337809313075
4.083492281478085
4.077337809313075
4.083492281478085
4.065028864983084
4.077337809313075
4.0711833371480655
4.083492281478085
4.077337809313075
4.077337809313075
4.083492281478085
4.0711833371480655
4.0711833371480655
4.077337809313075
4.077337809313075
4.089646753643067
4.083492281478085
4.077337809313075
4.083492281478085
4.089646753643067
4.0711833371480655
4.077337809313075
4.083492281478085
4.077337809313075
4.077337809313075
4.083492281478085
4.089646753643067
4.077337809313075
4.0711833371480655
4.077337809313075
4.083492281478085
4.089646753643067
4.089646753643067
4.089646753643067
4.083492281478085
4.077337809313075
4.0711833371480655
4.083492281478085
4.089646753643067
4.089646753643067
4.089646753643067
4.089646753643067
4.089646753643067
4.0711833371480655
4.0711833371480655
4.083492281478085
4.089646753643067
4.089646753643067
4.083492281478085
4.083492281478085
4.077337809313075
4.0711833371480655
4.077337809313075
4.089646753643067
4.089646753643067
4.095801225808079
4.095801225808079
4.089646753643067
4.083492281478085
4.083492281478085
4.101955697973087
4.108110170138069
4.108110170138069
4.114264642303079
4.108110170138069
4.101955697973087
4.101955697973087
4.089646753643067
4.101955697973087
4.101955697973087
4.101955697973087
4.089646753643067
4.089646753643067
4.095801225808079
4.083492281478085
4.077337809313075
4.052719920653064
3.9173215330230438
4.089646753643067
4.101955697973087
4.108110170138069
4.101955697973087
4.083492281478085
4.0465654484880815
4.065028864983084
4.077337809313075
4.077337809313075
4.077337809313075
4.083492281478085
4.083492281478085
4.0465654484880815
3.874240227868059
4.077337809313075
4.101955697973087
4.077337809313075
4.083492281478085
4.083492281478085
4.095801225808079
4.108110170138069
4.157345947458091
4.2681264464281
4.341980112408105
4.348134584573115
4.249663029933098
4.1327280587980795
4.065028864983084
4.009638615498079
4.015793087663061
4.034256504158063
4.052719920653064
4.058874392818074
4.0711833371480655
4.0711833371480655
4.0711833371480655
4.058874392818074
4.0711833371480655
4.083492281478085
4.077337809313075
4.083492281478085
4.083492281478085
4.083492281478085
4.083492281478085
4.065028864983084
4.077337809313075
4.089646753643067
4.095801225808079
4.089646753643067
4.095801225808079
4.089646753643067
4.083492281478085
4.077337809313075
4.089646753643067
4.089646753643067
4.089646753643067
4.095801225808079
4.089646753643067
4.089646753643067
4.089646753643067
4.089646753643067
4.089646753643067
4.101955697973087
4.101955697973087
4.101955697973087
4.089646753643067
4.089646753643067
4.077337809313075
4.089646753643067
4.095801225808079
4.095801225808079
4.095801225808079
4.095801225808079
4.089646753643067
4.095801225808079
4.083492281478085
4.077337809313075
4.101955697973087
4.101955697973087
4.095801225808079
4.089646753643067
4.095801225808079
4.095801225808079
4.077337809313075
4.095801225808079
4.095801225808079
4.101955697973087
4.095801225808079
4.101955697973087
4.114264642303079
4.114264642303079
4.089646753643067
4.095801225808079
4.114264642303079
4.120419114468088
4.120419114468088
4.12657358663307
4.1327280587980795
4.12657358663307
4.114264642303079
4.12657358663307
4.120419114468088
4.120419114468088
4.120419114468088
4.114264642303079
4.114264642303079
4.095801225808079
4.095801225808079
4.101955697973087
4.095801225808079
4.101955697973087
4.095801225808079
4.095801225808079
4.101955697973087
4.095801225808079
4.089646753643067
4.108110170138069
4.101955697973087
4.108110170138069
4.108110170138069
4.058874392818074
3.9234760051880535
4.0711833371480655
4.0711833371480655
4.089646753643067
4.095801225808079
4.089646753643067
4.101955697973087
4.101955697973087
4.095801225808079
4.077337809313075
4.083492281478085
4.095801225808079
4.089646753643067
4.089646753643067
4.089646753643067
4.089646753643067
4.089646753643067
4.083492281478085
4.095801225808079
4.095801225808079
4.101955697973087
4.101955697973087
4.095801225808079
4.101955697973087
4.101955697973087
4.089646753643067
4.108110170138069
4.101955697973087
4.101955697973087
4.108110170138069
4.095801225808079
4.095801225808079
4.101955697973087
4.083492281478085
4.101955697973087
4.095801225808079
4.101955697973087
4.101955697973087
4.101955697973087
4.095801225808079
4.095801225808079
4.089646753643067
4.095801225808079
4.101955697973087
4.101955697973087
4.095801225808079
4.101955697973087
4.095801225808079
4.095801225808079
4.095801225808079
4.095801225808079
4.101955697973087
4.095801225808079
4.108110170138069
4.101955697973087
4.108110170138069
4.089646753643067
4.089646753643067
4.108110170138069
4.101955697973087
4.095801225808079
4.101955697973087
4.095801225808079
4.101955697973087
4.089646753643067
4.095801225808079
4.101955697973087
4.095801225808079
4.101955697973087
4.089646753643067
4.095801225808079
4.101955697973087
4.089646753643067
4.095801225808079
4.095801225808079
4.108110170138069
4.101955697973087
4.101955697973087
4.101955697973087
4.095801225808079
4.089646753643067
4.114264642303079
4.1327280587980795
4.12657358663307
4.1327280587980795
4.120419114468088
4.12657358663307
4.120419114468088
4.108110170138069
4.120419114468088
4.120419114468088
4.108110170138069
4.114264642303079
4.114264642303079
4.114264642303079
4.101955697973087
4.095801225808079
4.108110170138069
4.114264642303079
4.114264642303079
4.108110170138069
4.101955697973087
4.114264642303079
4.095801225808079
4.095801225808079
4.108110170138069
4.108110170138069
4.108110170138069
4.101955697973087
4.108110170138069
4.101955697973087
4.095801225808079
4.095801225808079
4.101955697973087
4.101955697973087
4.089646753643067
4.083492281478085
4.095801225808079
4.120419114468088
4.157345947458091
4.243508557768089
4.292744335088111
4.218890669108104
4.366598001068117
4.255817502098108
4.12657358663307
4.0711833371480655
4.021947559828071
4.021947559828071
4.052719920653064
4.065028864983084
4.077337809313075
4.077337809313075
4.0711833371480655
4.077337809313075
4.058874392818074
4.0711833371480655
4.083492281478085
4.083492281478085
4.083492281478085
4.089646753643067
4.083492281478085
4.083492281478085
4.083492281478085
4.095801225808079
4.089646753643067
4.089646753643067
4.095801225808079
4.089646753643067
4.083492281478085
4.089646753643067
4.083492281478085
4.095801225808079
4.083492281478085
4.095801225808079
4.095801225808079
4.089646753643067
4.089646753643067
4.089646753643067
4.077337809313075
4.101955697973087
4.095801225808079
4.101955697973087
4.095801225808079
4.095801225808079
4.101955697973087
4.083492281478085
4.089646753643067
4.101955697973087
4.095801225808079
4.101955697973087
4.101955697973087
4.095801225808079
4.095801225808079
4.089646753643067
4.089646753643067
4.089646753643067
4.089646753643067
4.089646753643067
4.089646753643067
4.083492281478085
4.095801225808079
4.077337809313075
4.089646753643067
4.095801225808079
4.095801225808079
4.108110170138069
4.108110170138069
4.108110170138069
4.108110170138069
4.108110170138069
4.114264642303079
4.12657358663307
4.1327280587980795
4.12657358663307
4.12657358663307
4.1327280587980795
4.1327280587980795
4.120419114468088
4.1327280587980795
4.1327280587980795
4.12657358663307
4.12657358663307
4.120419114468088
4.120419114468088
4.083492281478085
3.9234760051880535
4.095801225808079
4.12657358663307
4.120419114468088
4.120419114468088
4.120419114468088
4.120419114468088
4.095801225808079
4.077337809313075
4.095801225808079
4.101955697973087
4.095801225808079
4.108110170138069
4.101955697973087
4.101955697973087
4.095801225808079
4.101955697973087
4.101955697973087
4.101955697973087
4.095801225808079
4.095801225808079
4.095801225808079
4.101955697973087
4.095801225808079
4.101955697973087
4.108110170138069
4.114264642303079
4.114264642303079
4.108110170138069
4.101955697973087
4.108110170138069
4.089646753643067
4.101955697973087
4.108110170138069
4.101955697973087
4.095801225808079
4.095801225808079
4.058874392818074
3.9296304773530633
4.052719920653064
4.095801225808079
4.095801225808079
4.101955697973087
4.108110170138069
4.101955697973087
4.101955697973087
4.101955697973087
4.089646753643067
4.101955697973087
4.101955697973087
4.101955697973087
4.101955697973087
4.114264642303079
4.114264642303079
4.095801225808079
4.089646753643067
4.101955697973087
4.101955697973087
4.101955697973087
4.114264642303079
4.114264642303079
4.101955697973087
4.095801225808079
4.095801225808079
4.108110170138069
4.108110170138069
4.108110170138069
4.108110170138069
4.114264642303079
4.108110170138069
4.101955697973087
4.108110170138069
4.114264642303079
4.108110170138069
4.114264642303079
4.108110170138069
4.114264642303079
4.114264642303079
4.095801225808079
4.108110170138069
4.101955697973087
4.108110170138069
4.108110170138069
4.101955697973087
4.101955697973087
4.095801225808079
4.083492281478085
4.095801225808079
4.101955697973087
4.108110170138069
4.108110170138069
4.095801225808079
4.101955697973087
4.095801225808079
4.089646753643067
4.120419114468088
4.1327280587980795
4.1327280587980795
4.120419114468088
4.120419114468088
4.120419114468088
4.114264642303079
4.108110170138069
4.114264642303079
4.108110170138069
4.114264642303079
4.114264642303079
4.101955697973087
4.101955697973087
4.089646753643067
4.089646753643067
4.108110170138069
4.101955697973087
4.101955697973087
4.101955697973087
4.095801225808079
4.101955697973087
4.089646753643067
4.089646753643067
4.089646753643067
4.095801225808079
4.089646753643067
4.095801225808079
4.095801225808079
4.101955697973087
4.083492281478085
4.083492281478085
4.083492281478085
4.077337809313075
4.0711833371480655
4.077337809313075
4.083492281478085
4.114264642303079
4.1758093639530935
4.2681264464281
4.348134584573115
4.366598001068117
4.261971974263091
4.138882530963089
4.065028864983084
4.015793087663061
3.9973296711680604
4.021947559828071
4.040410976323072
4.058874392818074
4.065028864983084
4.0711833371480655
4.0711833371480655
4.065028864983084
4.052719920653064
4.0711833371480655
4.0711833371480655
4.083492281478085
4.077337809313075
4.083492281478085
4.083492281478085
4.083492281478085
4.0711833371480655
4.089646753643067
4.040410976323072
3.905012588693053
4.089646753643067
4.101955697973087
4.101955697973087
4.083492281478085
4.052719920653064
4.0711833371480655
4.083492281478085
4.089646753643067
4.089646753643067
4.083492281478085
4.089646753643067
4.077337809313075
4.083492281478085
4.083492281478085
4.083492281478085
4.089646753643067
4.089646753643067
4.095801225808079
4.095801225808079
4.077337809313075
4.089646753643067
4.089646753643067
4.083492281478085
4.083492281478085
4.089646753643067
4.095801225808079
4.089646753643067
4.083492281478085
4.083492281478085
4.095801225808079
4.089646753643067
4.089646753643067
4.095801225808079
4.095801225808079
4.089646753643067
4.077337809313075
4.095801225808079
4.095801225808079
4.095801225808079
4.095801225808079
4.101955697973087
4.108110170138069
4.108110170138069
4.095801225808079
4.108110170138069
4.114264642303079
4.114264642303079
4.114264642303079
4.12657358663307
4.120419114468088
4.108110170138069
4.101955697973087
4.114264642303079
4.114264642303079
4.108110170138069
4.101955697973087
4.095801225808079
4.089646753643067
4.089646753643067
4.083492281478085
4.083492281478085
4.083492281478085
4.077337809313075
4.089646753643067
4.077337809313075
4.077337809313075
4.065028864983084
4.0711833371480655
4.0711833371480655
4.077337809313075
4.077337809313075
4.0711833371480655
4.0711833371480655
4.0711833371480655
4.065028864983084
4.0711833371480655
4.077337809313075
4.0711833371480655
4.065028864983084
4.0711833371480655
4.0711833371480655
4.0711833371480655
4.058874392818074
4.058874392818074
4.0711833371480655
4.065028864983084
4.065028864983084
4.065028864983084
4.065028864983084
4.058874392818074
4.052719920653064
4.065028864983084
4.065028864983084
4.065028864983084
4.065028864983084
4.0711833371480655
4.065028864983084
4.058874392818074
4.0465654484880815
4.065028864983084
4.058874392818074
4.0711833371480655
4.0711833371480655
4.0711833371480655
4.058874392818074
4.052719920653064
4.052719920653064
4.065028864983084
4.0711833371480655
4.0711833371480655
4.0711833371480655
4.0711833371480655
4.0711833371480655
4.065028864983084
4.065028864983084
4.065028864983084
4.065028864983084
4.0711833371480655
4.065028864983084
4.0711833371480655
4.028102031993082
3.874240227868059
4.028102031993082
4.0711833371480655
4.065028864983084
4.0711833371480655
4.077337809313075
4.0711833371480655
4.077337809313075
4.058874392818074
4.077337809313075
4.0711833371480655
4.0711833371480655
4.077337809313075
4.0711833371480655
4.077337809313075
4.0711833371480655
4.058874392818074
4.0711833371480655
4.0711833371480655
4.077337809313075
4.0711833371480655
4.0711833371480655
4.077337809313075
4.077337809313075
4.065028864983084
4.095801225808079
4.095801225808079
4.095801225808079
4.095801225808079
4.089646753643067
4.089646753643067
4.0711833371480655
3.905012588693053
4.052719920653064
4.101955697973087
4.095801225808079
4.095801225808079
4.089646753643067
4.083492281478085
4.077337809313075
4.0465654484880815
4.065028864983084
4.0711833371480655
4.0711833371480655
4.065028864983084
4.065028864983084
4.0711833371480655
4.052719920653064
4.052719920653064
4.065028864983084
4.065028864983084
4.0711833371480655
4.065028864983084
4.0711833371480655
4.0711833371480655
4.065028864983084
4.065028864983084
4.058874392818074
4.0465654484880815
4.058874392818074
4.065028864983084
4.089646753643067
4.1327280587980795
4.1942727804480935
4.2865898629231
4.329671168078114
4.280435390758093
4.157345947458091
4.058874392818074
4.009638615498079
3.9850207268380675
3.9788662546730578
4.021947559828071
4.034256504158063
4.052719920653064
4.052719920653064
4.052719920653064
4.058874392818074
4.052719920653064
4.040410976323072
4.058874392818074
4.065028864983084
4.065028864983084
4.065028864983084
4.065028864983084
4.077337809313075
4.065028864983084
4.058874392818074
4.0711833371480655
4.0711833371480655
4.0711833371480655
4.083492281478085
4.083492281478085
4.077337809313075
4.065028864983084
4.058874392818074
4.077337809313075
4.083492281478085
4.083492281478085
4.083492281478085
4.077337809313075
4.0711833371480655
4.065028864983084
4.065028864983084
4.083492281478085
4.083492281478085
4.077337809313075
4.083492281478085
4.083492281478085
4.077337809313075
4.0711833371480655
4.083492281478085
4.083492281478085
4.083492281478085
4.083492281478085
4.077337809313075
4.077337809313075
4.077337809313075
4.0711833371480655
4.0711833371480655
4.077337809313075
4.040410976323072
3.9173215330230438
4.083492281478085
4.101955697973087
4.089646753643067
4.058874392818074
4.065028864983084
4.0711833371480655
4.077337809313075
4.083492281478085
4.083492281478085
4.095801225808079
4.089646753643067
4.077337809313075
4.095801225808079
4.095801225808079
4.101955697973087
4.108110170138069
4.101955697973087
4.101955697973087
4.089646753643067
4.089646753643067
4.095801225808079
4.108110170138069
4.101955697973087
4.095801225808079
4.101955697973087
4.108110170138069
4.083492281478085
4.0711833371480655
4.083492281478085
4.083492281478085
4.077337809313075
4.065028864983084
4.0711833371480655
4.083492281478085
4.0711833371480655
4.0711833371480655
4.083492281478085
4.095801225808079
4.108110170138069
4.101955697973087
4.089646753643067
4.0711833371480655
4.065028864983084
4.077337809313075
4.083492281478085
4.095801225808079
4.095801225808079
4.083492281478085
4.089646753643067
4.083492281478085
4.065028864983084
4.0711833371480655
4.077337809313075
4.077337809313075
4.077337809313075
4.083492281478085
4.083492281478085
4.083492281478085
4.065028864983084
4.0711833371480655
4.0711833371480655
4.0711833371480655
4.065028864983084
4.077337809313075
4.077337809313075
4.077337809313075
4.058874392818074
4.0711833371480655
4.083492281478085
4.077337809313075
4.083492281478085
4.083492281478085
4.083492281478085
4.058874392818074
4.052719920653064
4.077337809313075
4.083492281478085
4.077337809313075
4.083492281478085
4.083492281478085
4.083492281478085
4.083492281478085
4.0711833371480655
4.089646753643067
4.089646753643067
4.083492281478085
4.083492281478085
4.083492281478085
4.083492281478085
4.065028864983084
4.065028864983084
4.077337809313075
4.077337809313075
4.0711833371480655
4.077337809313075
4.0711833371480655
4.083492281478085
4.077337809313075
4.089646753643067
4.083492281478085
4.083492281478085
4.083492281478085
4.083492281478085
4.083492281478085
4.083492281478085
4.065028864983084
4.083492281478085
4.083492281478085
4.077337809313075
4.077337809313075
4.089646753643067
4.089646753643067
4.083492281478085
4.0711833371480655
4.077337809313075
4.083492281478085
4.095801225808079
4.114264642303079
4.108110170138069
4.114264642303079
4.065028864983084
3.905012588693053
4.095801225808079
4.108110170138069
4.101955697973087
4.101955697973087
4.101955697973087
4.114264642303079
4.101955697973087
4.065028864983084
4.077337809313075
4.083492281478085
4.089646753643067
4.089646753643067
4.083492281478085
4.083492281478085
4.083492281478085
4.083492281478085
4.083492281478085
4.077337809313075
4.083492281478085
4.077337809313075
4.083492281478085
4.089646753643067
4.0711833371480655
4.077337809313075
4.083492281478085
4.089646753643067
4.089646753643067
4.077337809313075
4.065028864983084
4.083492281478085
4.0711833371480655
4.089646753643067
4.145037003128072
4.225045141273086
4.305053279418103
4.37890694539811
4.335825640243124
4.225045141273086
4.089646753643067
4.052719920653064
4.028102031993082
4.028102031993082
4.052719920653064
4.065028864983084
4.065028864983084
4.0711833371480655
4.052719920653064
4.065028864983084
4.077337809313075
4.0711833371480655
4.0711833371480655
4.058874392818074
4.0711833371480655
4.0711833371480655
4.065028864983084
4.077337809313075
4.077337809313075
4.077337809313075
4.077337809313075
4.077337809313075
4.083492281478085
4.0711833371480655
4.0711833371480655
4.089646753643067
4.083492281478085
4.083492281478085
4.089646753643067
4.095801225808079
4.089646753643067
4.077337809313075
4.077337809313075
4.089646753643067
4.089646753643067
4.089646753643067
4.083492281478085
4.077337809313075
4.077337809313075
4.065028864983084
4.065028864983084
4.0711833371480655
4.0711833371480655
4.0711833371480655
4.089646753643067
4.089646753643067
4.083492281478085
4.058874392818074
4.0711833371480655
4.077337809313075
4.077337809313075
4.083492281478085
4.0711833371480655
4.065028864983084
4.0711833371480655
4.065028864983084
4.077337809313075
4.083492281478085
4.077337809313075
4.077337809313075
4.077337809313075
4.077337809313075
4.0711833371480655
3.8927036443630603
4.015793087663061
4.095801225808079
4.101955697973087
4.095801225808079
4.108110170138069
4.114264642303079
4.108110170138069
4.077337809313075
4.089646753643067
4.101955697973087
4.095801225808079
4.108110170138069
4.101955697973087
4.101955697973087
4.101955697973087
4.095801225808079
4.095801225808079
4.095801225808079
4.0465654484880815
3.905012588693053
4.083492281478085
4.095801225808079
4.0711833371480655
4.052719920653064
4.0711833371480655
4.0711833371480655
4.0711833371480655
4.0711833371480655
4.0711833371480655
4.0711833371480655
4.058874392818074
4.0711833371480655
4.077337809313075
4.0711833371480655
4.077337809313075
4.0711833371480655
4.0711833371480655
4.0711833371480655
4.058874392818074
4.065028864983084
4.083492281478085
4.077337809313075
4.0711833371480655
4.077337809313075
4.0711833371480655
4.0711833371480655
4.058874392818074
4.0711833371480655
4.0711833371480655
4.065028864983084
4.065028864983084
4.0711833371480655
4.077337809313075
4.065028864983084
4.058874392818074
4.0711833371480655
4.077337809313075
4.083492281478085
4.083492281478085
4.0711833371480655
4.0711833371480655
4.065028864983084
4.065028864983084
4.0711833371480655
4.077337809313075
4.0711833371480655
4.0711833371480655
4.0711833371480655
4.077337809313075
4.065028864983084
4.065028864983084
4.077337809313075
4.077337809313075
4.077337809313075
4.0711833371480655
4.0711833371480655
4.065028864983084
4.052719920653064
4.058874392818074
4.065028864983084
4.0711833371480655
4.058874392818074
4.058874392818074
4.065028864983084
4.058874392818074
4.052719920653064
4.058874392818074
4.058874392818074
4.058874392818074
4.058874392818074
4.058874392818074
4.058874392818074
4.052719920653064
4.0465654484880815
4.052719920653064
4.052719920653064
4.058874392818074
4.058874392818074
4.058874392818074
4.058874392818074
4.0465654484880815
4.040410976323072
4.052719920653064
4.065028864983084
4.077337809313075
4.083492281478085
4.077337809313075
4.077337809313075
4.0711833371480655
4.058874392818074
4.0711833371480655
4.065028864983084
4.0711833371480655
4.058874392818074
4.058874392818074
4.052719920653064
4.0465654484880815
4.034256504158063
4.058874392818074
4.058874392818074
4.058874392818074
4.058874392818074
4.0465654484880815
4.052719920653064
4.034256504158063
4.034256504158063
4.040410976323072
4.052719920653064
4.0465654484880815
4.052719920653064
4.0465654484880815
4.040410976323072
4.034256504158063
4.034256504158063
4.052719920653064
4.052719920653064
4.0465654484880815
4.028102031993082
4.021947559828071
4.034256504158063
3.9911751990030497
3.8927036443630603
4.157345947458091
4.255817502098108
4.323516695913104
4.3112077515831135
4.1942727804480935
4.065028864983084
3.9788662546730578
3.9419394216830552
3.948093893848065
3.9665573103430645
3.9911751990030497
4.003484143333068
4.009638615498079
4.021947559828071
4.009638615498079
4.015793087663061
4.021947559828071
4.028102031993082
4.028102031993082
4.028102031993082
4.021947559828071
4.021947559828071
4.015793087663061
4.034256504158063
4.034256504158063
4.040410976323072
4.028102031993082
4.034256504158063
4.040410976323072
4.028102031993082
4.028102031993082
4.040410976323072
4.034256504158063
4.040410976323072
4.034256504158063
4.040410976323072
4.040410976323072
4.034256504158063
4.028102031993082
4.040410976323072
4.040410976323072
4.040410976323072
4.0465654484880815
4.0465654484880815
4.052719920653064
4.034256504158063
4.0465654484880815
4.0465654484880815
4.0465654484880815
4.0465654484880815
4.040410976323072
4.0465654484880815
4.040410976323072
4.034256504158063
4.034256504158063
4.052719920653064
4.052719920653064
4.0465654484880815
4.0465654484880815
4.052719920653064
4.052719920653064
4.040410976323072
4.040410976323072
4.065028864983084
4.065028864983084
4.065028864983084
4.065028864983084
4.065028864983084
4.058874392818074
4.052719920653064
4.077337809313075
4.0711833371480655
4.0711833371480655
4.0711833371480655
4.077337809313075
4.083492281478085
4.089646753643067
4.077337809313075
4.095801225808079
4.083492281478085
4.083492281478085
4.083492281478085
4.0711833371480655
4.077337809313075
4.058874392818074
4.052719920653064
4.058874392818074
4.058874392818074
4.058874392818074
4.058874392818074
4.052719920653064
4.0465654484880815
4.058874392818074
4.040410976323072
4.034256504158063
4.0465654484880815
4.0465654484880815
4.0465654484880815
4.052719920653064
4.052719920653064
4.040410976323072
4.0465654484880815
4.052719920653064
4.0465654484880815
4.052719920653064
4.058874392818074
4.052719920653064
4.052719920653064
4.040410976323072
4.052719920653064
4.052719920653064
4.058874392818074
4.058874392818074
4.052719920653064
4.052719920653064
4.058874392818074
4.040410976323072
4.052719920653064
4.065028864983084
4.065028864983084
4.015793087663061
3.874240227868059
4.052719920653064
4.0711833371480655
4.028102031993082
4.0465654484880815
4.052719920653064
4.058874392818074
4.058874392818074
4.058874392818074
4.058874392818074
4.058874392818074
4.040410976323072
4.052719920653064
4.065028864983084
4.065028864983084
4.058874392818074
4.058874392818074
4.058874392818074
4.052719920653064
4.052719920653064
4.058874392818074
4.065028864983084
4.065028864983084
4.0711833371480655
4.0711833371480655
4.065028864983084
4.0465654484880815
4.058874392818074
4.065028864983084
4.058874392818074
4.058874392818074
4.058874392818074
4.065028864983084
4.0711833371480655
4.058874392818074
4.065028864983084
4.065028864983084
4.0711833371480655
4.0711833371480655
4.065028864983084
4.065028864983084
4.065028864983084
4.058874392818074
4.065028864983084
4.065028864983084
4.058874392818074
4.065028864983084
4.065028864983084
4.0711833371480655
4.083492281478085
3.9234760051880535
3.9911751990030497
4.095801225808079
4.089646753643067
4.083492281478085
4.083492281478085
4.077337809313075
4.065028864983084
4.028102031993082
4.040410976323072
4.052719920653064
4.052719920653064
4.058874392818074
4.052719920653064
4.058874392818074
4.058874392818074
4.0465654484880815
4.058874392818074
4.058874392818074
4.065028864983084
4.065028864983084
4.065028864983084
4.065028864983084
4.058874392818074
4.0465654484880815
4.058874392818074
4.058874392818074
4.065028864983084
4.065028864983084
4.065028864983084
4.052719920653064
4.034256504158063
4.028102031993082
4.040410976323072
4.058874392818074
4.095801225808079
4.151191475293081
4.237354085603107
4.305053279418103
4.298898807253093
4.212736196943095
4.095801225808079
4.028102031993082
3.9973296711680604
3.9788662546730578
3.9911751990030497
4.009638615498079
4.015793087663061
4.034256504158063
4.040410976323072
4.034256504158063
4.040410976323072
4.040410976323072
4.0465654484880815
4.052719920653064
4.040410976323072
4.0465654484880815
4.052719920653064
4.058874392818074
4.058874392818074
4.058874392818074
4.052719920653064
4.0465654484880815
4.034256504158063
4.052719920653064
4.065028864983084
4.065028864983084
4.058874392818074
4.058874392818074
4.065028864983084
4.058874392818074
4.009638615498079
3.886549172198051
4.052719920653064
4.0711833371480655
4.0711833371480655
4.077337809313075
4.065028864983084
4.052719920653064
4.028102031993082
4.052719920653064
4.058874392818074
4.058874392818074
4.058874392818074
4.065028864983084
4.0711833371480655
4.058874392818074
4.058874392818074
4.0711833371480655
4.065028864983084
4.065028864983084
4.077337809313075
4.0711833371480655
4.065028864983084
4.052719920653064
4.058874392818074
4.065028864983084
4.0711833371480655
4.065028864983084
4.065028864983084
4.077337809313075
4.077337809313075
4.058874392818074
4.077337809313075
4.077337809313075
4.083492281478085
4.083492281478085
4.089646753643067
4.089646753643067
4.089646753643067
4.083492281478085
4.101955697973087
4.108110170138069
4.108110170138069
4.114264642303079
4.101955697973087
4.101955697973087
4.089646753643067
4.083492281478085
4.095801225808079
4.095801225808079
4.095801225808079
4.095801225808079
4.095801225808079
4.095801225808079
4.089646753643067
4.077337809313075
4.089646753643067
4.083492281478085
4.089646753643067
4.077337809313075
4.083492281478085
4.089646753643067
4.0711833371480655
4.0711833371480655
4.077337809313075
4.089646753643067
4.083492281478085
4.083492281478085
4.083492281478085
4.083492281478085
4.0711833371480655
4.0711833371480655
4.083492281478085
4.083492281478085
4.077337809313075
4.083492281478085
4.083492281478085
4.089646753643067
4.077337809313075
4.077337809313075
4.089646753643067
4.089646753643067
4.089646753643067
4.089646753643067
4.083492281478085
4.089646753643067
4.0711833371480655
4.089646753643067
4.089646753643067
4.095801225808079
4.095801225808079
4.095801225808079
4.089646753643067
4.095801225808079
4.077337809313075
4.089646753643067
4.101955697973087
4.095801225808079
4.101955697973087
4.101955697973087
4.101955697973087
4.089646753643067
4.083492281478085
4.095801225808079
4.089646753643067
4.095801225808079
4.095801225808079
4.095801225808079
4.083492281478085
4.077337809313075
4.065028864983084
4.083492281478085
4.089646753643067
4.089646753643067
4.089646753643067
4.077337809313075
4.077337809313075
4.083492281478085
4.077337809313075
4.083492281478085
4.083492281478085
4.077337809313075
4.034256504158063
3.8988581165280416
4.077337809313075
4.0711833371480655
4.052719920653064
4.0711833371480655
4.083492281478085
4.083492281478085
4.083492281478085
4.077337809313075
4.0711833371480655
4.065028864983084
4.0711833371480655
4.077337809313075
4.077337809313075
4.077337809313075
4.083492281478085
4.101955697973087
4.101955697973087
4.083492281478085
4.089646753643067
4.089646753643067
4.089646753643067
4.089646753643067
4.089646753643067
4.095801225808079
4.077337809313075
4.065028864983084
4.077337809313075
4.0711833371480655
4.083492281478085
4.083492281478085
4.083492281478085
4.077337809313075
4.0711833371480655
4.058874392818074
4.0711833371480655
4.077337809313075
4.0711833371480655
4.0711833371480655
4.0711833371480655
4.0711833371480655
4.077337809313075
4.077337809313075
4.083492281478085
4.0711833371480655
4.065028864983084
4.0711833371480655
4.0711833371480655
4.0711833371480655
4.052719920653064
4.052719920653064
4.0711833371480655
4.095801225808079
4.1327280587980795
4.212736196943095
4.292744335088111
4.354289056738125
4.3173622237481215
4.200427252613103
4.083492281478085
4.028102031993082
4.009638615498079
4.015793087663061
4.034256504158063
4.052719920653064
4.0465654484880815
4.058874392818074
4.058874392818074
4.058874392818074
4.058874392818074
4.058874392818074
4.065028864983084
4.058874392818074
4.052719920653064
4.065028864983084
4.058874392818074
4.058874392818074
4.058874392818074
4.065028864983084
4.065028864983084
4.058874392818074
4.058874392818074
4.065028864983084
4.065028864983084
4.065028864983084
4.058874392818074
4.065028864983084
4.065028864983084
4.065028864983084
4.052719920653064
4.065028864983084
4.0711833371480655
4.0711833371480655
4.0711833371480655
4.065028864983084
4.065028864983084
4.058874392818074
4.0465654484880815
4.058874392818074
4.058874392818074
4.058874392818074
4.065028864983084
4.058874392818074
4.052719920653064
4.0465654484880815
4.0465654484880815
4.0465654484880815
4.0465654484880815
4.0465654484880815
4.0465654484880815
4.0465654484880815
4.052719920653064
4.040410976323072
4.0465654484880815
4.052719920653064
4.052719920653064
4.052719920653064
4.0465654484880815
4.058874392818074
4.058874392818074
3.9234760051880535
3.855776811373057
3.874240227868059
4.052719920653064
4.083492281478085
4.089646753643067
4.083492281478085
4.083492281478085
4.052719920653064
4.0711833371480655
4.077337809313075
4.083492281478085
4.083492281478085
4.089646753643067
4.083492281478085
4.083492281478085
4.065028864983084
4.077337809313075
4.083492281478085
4.0711833371480655
4.077337809313075
4.0711833371480655
4.077337809313075
4.0711833371480655
4.058874392818074
4.065028864983084
4.0711833371480655
4.0711833371480655
4.065028864983084
4.077337809313075
4.0711833371480655
4.058874392818074
4.065028864983084
4.0711833371480655
4.065028864983084
4.0711833371480655
4.065028864983084
4.0711833371480655
4.0711833371480655
4.058874392818074
4.065028864983084
4.0711833371480655
4.0711833371480655
4.0711833371480655
4.0711833371480655
4.065028864983084
4.0711833371480655
4.065028864983084
4.058874392818074
4.0711833371480655
4.0711833371480655
4.065028864983084
4.0711833371480655
4.0711833371480655
4.065028864983084
4.0465654484880815
4.065028864983084
4.077337809313075
4.0711833371480655
4.065028864983084
4.065028864983084
4.065028864983084
4.0711833371480655
4.0465654484880815
4.058874392818074
4.058874392818074
4.0711833371480655
4.077337809313075
4.077337809313075
4.0711833371480655
4.0711833371480655
4.058874392818074
4.0711833371480655
4.065028864983084
4.0711833371480655
4.058874392818074
4.065028864983084
4.065028864983084
4.0711833371480655
4.065028864983084
4.0711833371480655
4.065028864983084
4.0711833371480655
4.077337809313075
4.0711833371480655
4.0711833371480655
4.058874392818074
4.058874392818074
4.0711833371480655
4.0711833371480655
4.065028864983084
4.065028864983084
4.065028864983084
4.0711833371480655
4.058874392818074
4.052719920653064
4.0711833371480655
4.065028864983084
4.0711833371480655
4.0711833371480655
4.0711833371480655
4.0711833371480655
4.052719920653064
4.058874392818074
4.0711833371480655
4.065028864983084
4.0711833371480655
4.065028864983084
4.065028864983084
4.065028864983084
4.065028864983084
4.083492281478085
4.089646753643067
4.089646753643067
4.089646753643067
4.083492281478085
4.077337809313075
4.077337809313075
4.065028864983084
4.083492281478085
4.077337809313075
4.0711833371480655
4.065028864983084
4.028102031993082
3.8619312835380395
4.058874392818074
4.0465654484880815
4.058874392818074
4.065028864983084
4.058874392818074
4.058874392818074
4.058874392818074
4.065028864983084
4.058874392818074
4.040410976323072
4.052719920653064
4.058874392818074
4.052719920653064
4.058874392818074
4.052719920653064
4.052719920653064
4.052719920653064
4.052719920653064
4.065028864983084
4.0465654484880815
4.0465654484880815
4.0465654484880815
4.058874392818074
4.089646753643067
4.138882530963089
4.231199613438097
4.323516695913104
4.348134584573115
4.255817502098108
4.12657358663307
4.034256504158063
3.9973296711680604
3.9727117825080467
3.9973296711680604
4.021947559828071
4.034256504158063
4.040410976323072
4.034256504158063
4.034256504158063
4.040410976323072
4.028102031993082
4.034256504158063
4.040410976323072
4.0465654484880815
4.0465654484880815
4.040410976323072
4.0465654484880815
4.040410976323072
4.040410976323072
4.0465654484880815
4.052719920653064
4.052719920653064
4.0465654484880815
4.052719920653064
4.065028864983084
4.058874392818074
4.0465654484880815
4.058874392818074
4.058874392818074
4.065028864983084
4.058874392818074
4.065028864983084
4.052719920653064
4.058874392818074
4.0465654484880815
4.052719920653064
4.058874392818074
4.065028864983084
4.0711833371480655
4.065028864983084
4.0711833371480655
4.0711833371480655
4.0711833371480655
4.0711833371480655
4.0711833371480655
4.065028864983084
4.065028864983084
4.065028864983084
4.065028864983084
4.058874392818074
4.058874392818074
4.065028864983084
4.0711833371480655
4.0711833371480655
4.065028864983084
4.065028864983084
4.058874392818074
4.052719920653064
4.0711833371480655
4.077337809313075
4.077337809313075
4.083492281478085
4.089646753643067
4.089646753643067
4.095801225808079
4.077337809313075
4.089646753643067
4.101955697973087
4.101955697973087
4.114264642303079
4.101955697973087
4.108110170138069
4.101955697973087
4.089646753643067
4.095801225808079
4.101955697973087
4.095801225808079
4.089646753643067
4.083492281478085
4.089646753643067
4.083492281478085
4.0711833371480655
4.0711833371480655
4.0711833371480655
4.0711833371480655
4.077337809313075
4.065028864983084
4.065028864983084
4.058874392818074
4.058874392818074
4.021947559828071
3.8927036443630603
4.065028864983084
4.083492281478085
4.077337809313075
4.065028864983084
4.052719920653064
4.034256504158063
4.0465654484880815
4.058874392818074
4.052719920653064
4.065028864983084
4.065028864983084
4.058874392818074
4.052719920653064
4.0465654484880815
4.058874392818074
4.058874392818074
4.065028864983084
4.0711833371480655
4.0711833371480655
4.065028864983084
4.058874392818074
4.058874392818074
4.0711833371480655
4.0711833371480655
4.0711833371480655
4.065028864983084
4.0711833371480655
4.077337809313075
4.065028864983084
4.077337809313075
4.083492281478085
4.083492281478085
4.083492281478085
4.083492281478085
4.083492281478085
4.077337809313075
4.065028864983084
4.077337809313075
4.077337809313075
4.077337809313075
4.083492281478085
4.083492281478085
4.077337809313075
4.0711833371480655
4.0711833371480655
4.083492281478085
4.077337809313075
4.077337809313075
4.077337809313075
4.0711833371480655
4.0711833371480655
4.0711833371480655
4.0711833371480655
4.0711833371480655
4.077337809313075
4.083492281478085
4.077337809313075
4.083492281478085
4.077337809313075
4.0711833371480655
4.0711833371480655
4.077337809313075
4.0711833371480655
4.077337809313075
4.083492281478085
4.077337809313075
4.077337809313075
3.9911751990030497
3.8988581165280416
4.077337809313075
4.077337809313075
4.083492281478085
4.083492281478085
4.077337809313075
4.077337809313075
4.0465654484880815
4.040410976323072
4.0711833371480655
4.077337809313075
4.089646753643067
4.089646753643067
4.089646753643067
4.089646753643067
4.0711833371480655
4.083492281478085
4.083492281478085
4.077337809313075
4.077337809313075
4.0711833371480655
4.077337809313075
4.065028864983084
4.052719920653064
4.0711833371480655
4.077337809313075
4.077337809313075
4.0711833371480655
4.0711833371480655
4.0711833371480655
4.065028864983084
4.058874392818074
4.065028864983084
4.058874392818074
4.0711833371480655
4.065028864983084
4.065028864983084
4.065028864983084
4.058874392818074
4.0465654484880815
4.065028864983084
4.0711833371480655
4.0711833371480655
4.065028864983084
4.052719920653064
4.058874392818074
4.058874392818074
4.077337809313075
4.145037003128072
4.218890669108104
4.298898807253093
4.335825640243124
4.237354085603107
3.9788662546730578
4.0465654484880815
4.009638615498079
3.9911751990030497
3.9973296711680604
4.015793087663061
4.034256504158063
4.052719920653064
4.058874392818074
4.052719920653064
4.058874392818074
4.058874392818074
4.065028864983084
4.058874392818074
4.0711833371480655
4.065028864983084
4.065028864983084
4.052719920653064
4.065028864983084
4.0711833371480655
4.077337809313075
4.077337809313075
4.083492281478085
4.077337809313075
4.065028864983084
4.058874392818074
4.0711833371480655
4.083492281478085
4.0711833371480655
4.0711833371480655
4.077337809313075
4.083492281478085
4.077337809313075
4.058874392818074
4.065028864983084
4.0711833371480655
4.0711833371480655
4.0711833371480655
4.077337809313075
4.077337809313075
4.065028864983084
4.065028864983084
4.077337809313075
4.0711833371480655
4.0711833371480655
4.0711833371480655
4.0711833371480655
4.077337809313075
4.065028864983084
4.0711833371480655
4.0711833371480655
4.0711833371480655
4.077337809313075
4.077337809313075
4.0711833371480655
4.077337809313075
4.065028864983084
4.065028864983084
4.0711833371480655
4.077337809313075
4.083492281478085
4.077337809313075
4.083492281478085
4.083492281478085
4.077337809313075
4.089646753643067
4.101955697973087
4.101955697973087
4.101955697973087
4.101955697973087
4.108110170138069
4.101955697973087
4.089646753643067
4.095801225808079
4.101955697973087
4.108110170138069
4.101955697973087
4.089646753643067
4.089646753643067
4.083492281478085
4.0711833371480655
4.089646753643067
4.083492281478085
4.083492281478085
4.083492281478085
4.083492281478085
4.077337809313075
4.065028864983084
4.065028864983084
4.077337809313075
4.077337809313075
4.077337809313075
4.077337809313075
4.077337809313075
4.083492281478085
4.0711833371480655
4.058874392818074
4.0711833371480655
4.077337809313075
4.077337809313075
4.077337809313075
4.0711833371480655
4.0711833371480655
4.058874392818074
4.0711833371480655
4.0711833371480655
4.077337809313075
4.0711833371480655
4.0711833371480655
4.0711833371480655
4.0711833371480655
4.065028864983084
4.0711833371480655
4.083492281478085
4.083492281478085
4.077337809313075
4.083492281478085
4.095801225808079
4.083492281478085
4.0711833371480655
4.077337809313075
4.0465654484880815
3.905012588693053
4.077337809313075
4.095801225808079
4.089646753643067
4.095801225808079
4.058874392818074
4.065028864983084
4.077337809313075
4.0711833371480655
4.0711833371480655
4.083492281478085
4.083492281478085
4.083492281478085
4.0711833371480655
4.089646753643067
4.089646753643067
4.083492281478085
4.083492281478085
4.095801225808079
4.089646753643067
4.077337809313075
4.077337809313075
4.095801225808079
4.089646753643067
4.089646753643067
4.095801225808079
4.089646753643067
4.089646753643067
4.095801225808079
4.083492281478085
4.089646753643067
4.089646753643067
4.089646753643067
4.089646753643067
4.083492281478085
4.083492281478085
4.077337809313075
4.083492281478085
4.089646753643067
4.095801225808079
4.089646753643067
4.089646753643067
4.089646753643067
4.083492281478085
4.0711833371480655
4.077337809313075
4.089646753643067
4.089646753643067
4.089646753643067
4.089646753643067
4.095801225808079
4.089646753643067
4.077337809313075
4.101955697973087
4.108110170138069
4.108110170138069
4.114264642303079
4.114264642303079
4.101955697973087
4.101955697973087
4.095801225808079
4.095801225808079
4.101955697973087
4.083492281478085
4.089646753643067
4.083492281478085
4.089646753643067
4.077337809313075
4.0711833371480655
4.089646753643067
4.089646753643067
4.083492281478085
4.095801225808079
4.083492281478085
4.083492281478085
4.083492281478085
4.077337809313075
4.083492281478085
4.077337809313075
4.083492281478085
4.077337809313075
4.077337809313075
4.083492281478085
4.0711833371480655
4.065028864983084
4.0711833371480655
4.077337809313075
4.065028864983084
4.058874392818074
4.058874392818074
4.083492281478085
4.114264642303079
4.188118308283084
4.2865898629231
4.366598001068117
4.360443528903107
4.243508557768089
4.12657358663307
4.0465654484880815
4.003484143333068
4.009638615498079
4.034256504158063
4.052719920653064
4.058874392818074
4.058874392818074
4.058874392818074
4.058874392818074
4.052719920653064
4.0711833371480655
4.0711833371480655
4.065028864983084
4.065028864983084
4.077337809313075
4.077337809313075
4.0711833371480655
4.058874392818074
4.0711833371480655
4.077337809313075
4.077337809313075
4.077337809313075
4.077337809313075
4.034256504158063
3.886549172198051
4.040410976323072
4.0711833371480655
4.077337809313075
4.083492281478085
4.077337809313075
4.083492281478085
4.083492281478085
4.077337809313075
4.0711833371480655
4.077337809313075
4.083492281478085
4.077337809313075
4.077337809313075
4.077337809313075
4.077337809313075
4.028102031993082
3.886549172198051
4.077337809313075
4.101955697973087
4.089646753643067
4.089646753643067
4.083492281478085
4.095801225808079
4.058874392818074
4.052719920653064
4.065028864983084
4.077337809313075
4.077337809313075
4.077337809313075
4.077337809313075
4.0711833371480655
4.065028864983084
4.077337809313075
4.083492281478085
4.083492281478085
4.083492281478085
4.083492281478085
4.083492281478085
4.083492281478085
4.077337809313075
4.095801225808079
4.101955697973087
4.114264642303079
4.108110170138069
4.114264642303079
4.114264642303079
4.114264642303079
4.101955697973087
4.120419114468088
4.114264642303079
4.114264642303079
4.114264642303079
4.114264642303079
4.108110170138069
4.101955697973087
4.083492281478085
4.101955697973087
4.101955697973087
4.101955697973087
4.101955697973087
4.095801225808079
4.095801225808079
4.089646753643067
4.083492281478085
4.101955697973087
4.095801225808079
4.095801225808079
4.095801225808079
4.101955697973087
4.095801225808079
4.089646753643067
4.089646753643067
4.101955697973087
4.095801225808079
4.089646753643067
4.095801225808079
4.089646753643067
4.095801225808079
4.089646753643067
4.089646753643067
4.095801225808079
4.095801225808079
4.101955697973087
4.095801225808079
4.095801225808079
4.095801225808079
4.083492281478085
4.101955697973087
4.108110170138069
4.101955697973087
4.095801225808079
4.095801225808079
4.101955697973087
4.101955697973087
4.083492281478085
4.095801225808079
4.095801225808079
4.101955697973087
4.101955697973087
4.095801225808079
4.095801225808079
4.095801225808079
4.083492281478085
4.101955697973087
4.108110170138069
4.101955697973087
4.095801225808079
4.095801225808079
4.101955697973087
4.095801225808079
4.089646753643067
4.108110170138069
4.108110170138069
4.095801225808079
4.101955697973087
4.095801225808079
4.095801225808079
4.095801225808079
4.095801225808079
4.108110170138069
4.058874392818074
3.9296304773530633
4.101955697973087
4.12657358663307
4.114264642303079
4.089646753643067
4.077337809313075
4.095801225808079
4.095801225808079
4.095801225808079
4.101955697973087
4.108110170138069
4.108110170138069
4.095801225808079
4.095801225808079
4.095801225808079
4.095801225808079
4.101955697973087
4.108110170138069
4.114264642303079
4.101955697973087
4.089646753643067
4.095801225808079
4.108110170138069
4.101955697973087
4.101955697973087
4.101955697973087
4.095801225808079
4.101955697973087
4.083492281478085
4.095801225808079
4.095801225808079
4.101955697973087
4.101955697973087
4.108110170138069
4.108110170138069
4.120419114468088
4.114264642303079
4.12657358663307
4.12657358663307
4.120419114468088
4.120419114468088
4.120419114468088
4.120419114468088
4.108110170138069
4.101955697973087
4.108110170138069
4.101955697973087
4.101955697973087
4.108110170138069
4.108110170138069
4.108110170138069
4.095801225808079
4.089646753643067
4.101955697973087
4.101955697973087
4.101955697973087
4.101955697973087
4.108110170138069
4.101955697973087
4.095801225808079
4.095801225808079
4.108110170138069
4.101955697973087
4.095801225808079
4.101955697973087
4.108110170138069
4.108110170138069
4.095801225808079
4.089646753643067
4.095801225808079
4.095801225808079
4.114264642303079
4.163500419623101
4.237354085603107
4.335825640243124
4.391215889728128
4.366598001068117
4.243508557768089
4.120419114468088
4.065028864983084
4.0465654484880815
4.040410976323072
4.058874392818074
4.058874392818074
4.0711833371480655
4.077337809313075
4.0711833371480655
4.077337809313075
4.077337809313075
4.083492281478085
4.083492281478085
4.0711833371480655
4.083492281478085
4.095801225808079
4.095801225808079
4.095801225808079
4.095801225808079
4.095801225808079
4.089646753643067
4.083492281478085
4.095801225808079
4.089646753643067
4.089646753643067
4.089646753643067
4.101955697973087
4.101955697973087
4.101955697973087
4.083492281478085
4.083492281478085
4.089646753643067
4.089646753643067
4.101955697973087
4.101955697973087
4.101955697973087
4.095801225808079
4.089646753643067
4.095801225808079
4.095801225808079
4.101955697973087
4.101955697973087
4.095801225808079
4.058874392818074
3.905012588693053
4.089646753643067
4.108110170138069
4.108110170138069
4.108110170138069
4.101955697973087
4.101955697973087
4.095801225808079
4.058874392818074
4.065028864983084
4.083492281478085
4.083492281478085
4.083492281478085
4.089646753643067
4.089646753643067
4.089646753643067
4.077337809313075
4.089646753643067
4.101955697973087
4.101955697973087
4.114264642303079
4.108110170138069
4.120419114468088
4.114264642303079
4.114264642303079
4.12657358663307
4.138882530963089
4.138882530963089
4.138882530963089
4.138882530963089
4.1327280587980795
4.12657358663307
4.114264642303079
4.12657358663307
4.120419114468088
4.120419114468088
4.114264642303079
4.108110170138069
4.114264642303079
4.101955697973087
4.095801225808079
4.114264642303079
4.108110170138069
4.108110170138069
4.101955697973087
4.114264642303079
4.101955697973087
4.101955697973087
4.101955697973087
4.101955697973087
4.108110170138069
4.101955697973087
4.101955697973087
4.114264642303079
4.108110170138069
4.095801225808079
4.108110170138069
4.114264642303079
4.108110170138069
4.114264642303079
4.108110170138069
4.108110170138069
4.108110170138069
4.095801225808079
4.114264642303079
4.114264642303079
4.120419114468088
4.120419114468088
4.120419114468088
4.114264642303079
4.114264642303079
4.101955697973087
4.120419114468088
4.114264642303079
4.120419114468088
4.114264642303079
4.12657358663307
4.120419114468088
4.114264642303079
4.108110170138069
4.120419114468088
4.114264642303079
4.114264642303079
4.120419114468088
4.120419114468088
4.120419114468088
4.077337809313075
3.9234760051880535
4.108110170138069
4.12657358663307
4.1327280587980795
4.12657358663307
4.12657358663307
4.120419114468088
4.101955697973087
4.077337809313075
4.095801225808079
4.101955697973087
4.108110170138069
4.114264642303079
4.114264642303079
4.114264642303079
4.101955697973087
4.101955697973087
4.108110170138069
4.108110170138069
4.114264642303079
4.114264642303079
4.108110170138069
4.114264642303079
4.089646753643067
4.108110170138069
4.108110170138069
4.108110170138069
4.108110170138069
4.108110170138069
4.114264642303079
4.108110170138069
4.095801225808079
4.101955697973087
4.114264642303079
4.065028864983084
3.9357849495180455
4.095801225808079
4.114264642303079
4.108110170138069
4.083492281478085
4.083492281478085
4.101955697973087
4.095801225808079
4.095801225808079
4.101955697973087
4.108110170138069
4.108110170138069
4.101955697973087
4.120419114468088
4.120419114468088
4.120419114468088
4.114264642303079
4.114264642303079
4.114264642303079
4.101955697973087
4.095801225808079
4.101955697973087
4.108110170138069
4.095801225808079
4.101955697973087
4.095801225808079
4.089646753643067
4.089646753643067
4.089646753643067
4.095801225808079
4.089646753643067
4.089646753643067
4.083492281478085
4.077337809313075
4.077337809313075
4.0711833371480655
4.083492281478085
4.089646753643067
4.089646753643067
4.089646753643067
4.089646753643067
4.083492281478085
4.083492281478085
4.077337809313075
4.077337809313075
4.0711833371480655
4.0711833371480655
4.077337809313075
4.095801225808079
4.138882530963089
4.2065817247780855
4.2865898629231
4.354289056738125
4.323516695913104
4.200427252613103
4.089646753643067
4.034256504158063
4.009638615498079
3.9973296711680604
4.009638615498079
4.0465654484880815
4.065028864983084
4.065028864983084
4.0711833371480655
4.0711833371480655
4.065028864983084
4.065028864983084
4.065028864983084
4.077337809313075
4.077337809313075
4.0711833371480655
4.0711833371480655
4.077337809313075
4.077337809313075
4.065028864983084
4.0711833371480655
4.077337809313075
4.089646753643067
4.083492281478085
4.083492281478085
4.083492281478085
4.083492281478085
4.0711833371480655
4.083492281478085
4.089646753643067
4.095801225808079
4.089646753643067
4.089646753643067
4.089646753643067
4.089646753643067
4.077337809313075
4.089646753643067
4.095801225808079
4.095801225808079
4.083492281478085
4.083492281478085
4.089646753643067
4.089646753643067
4.077337809313075
4.083492281478085
4.089646753643067
4.083492281478085
4.083492281478085
4.089646753643067
4.089646753643067
4.083492281478085
4.0711833371480655
4.083492281478085
4.083492281478085
4.089646753643067
4.083492281478085
4.089646753643067
4.083492281478085
4.089646753643067
4.083492281478085
4.089646753643067
4.095801225808079
4.101955697973087
4.108110170138069
4.114264642303079
4.114264642303079
4.065028864983084
3.9111670608580615
4.108110170138069
4.1327280587980795
4.1327280587980795
4.12657358663307
4.12657358663307
4.120419114468088
4.101955697973087
4.077337809313075
4.089646753643067
4.089646753643067
4.089646753643067
4.089646753643067
4.089646753643067
4.089646753643067
4.0711833371480655
4.0711833371480655
4.089646753643067
4.083492281478085
4.089646753643067
4.083492281478085
4.083492281478085
4.083492281478085
4.0711833371480655
4.0711833371480655
4.083492281478085
4.083492281478085
4.083492281478085
4.089646753643067
4.089646753643067
4.089646753643067
4.083492281478085
4.083492281478085
4.089646753643067
4.089646753643067
4.083492281478085
4.083492281478085
4.089646753643067
4.089646753643067
4.0711833371480655
4.089646753643067
4.095801225808079
4.089646753643067
4.0711833371480655
4.083492281478085
4.077337809313075
4.083492281478085
4.065028864983084
4.083492281478085
4.089646753643067
4.083492281478085
4.089646753643067
4.089646753643067
4.083492281478085
4.077337809313075
4.077337809313075
4.089646753643067
4.083492281478085
4.083492281478085
4.083492281478085
4.089646753643067
4.083492281478085
4.077337809313075
4.0711833371480655
4.083492281478085
4.089646753643067
4.089646753643067
4.083492281478085
4.089646753643067
4.083492281478085
4.0711833371480655
4.0711833371480655
4.083492281478085
4.083492281478085
4.077337809313075
4.077337809313075
4.077337809313075
4.077337809313075
4.052719920653064
4.0711833371480655
4.0711833371480655
4.077337809313075
4.077337809313075
4.077337809313075
4.077337809313075
4.083492281478085
4.065028864983084
4.077337809313075
4.083492281478085
4.083492281478085
4.077337809313075
4.0711833371480655
4.0711833371480655
4.0711833371480655
4.0465654484880815
4.065028864983084
4.065028864983084
4.0711833371480655
4.0711833371480655
4.0711833371480655
4.0711833371480655
4.052719920653064
4.052719920653064
4.0711833371480655
4.077337809313075
4.095801225808079
4.089646753643067
4.083492281478085
4.089646753643067
4.077337809313075
4.065028864983084
4.083492281478085
4.083492281478085
4.077337809313075
4.077337809313075
4.077337809313075
4.0711833371480655
4.058874392818074
4.058874392818074
4.0711833371480655
4.065028864983084
4.028102031993082
3.886549172198051
4.065028864983084
4.077337809313075
4.052719920653064
4.0465654484880815
4.065028864983084
4.065028864983084
4.058874392818074
4.065028864983084
4.065028864983084
4.0711833371480655
4.058874392818074
4.065028864983084
4.077337809313075
4.0711833371480655
4.0711833371480655
4.058874392818074
4.052719920653064
4.058874392818074
4.0711833371480655
4.1327280587980795
4.212736196943095
4.298898807253093
4.354289056738125
4.3173622237481215
4.1942727804480935
4.083492281478085
4.028102031993082
4.003484143333068
4.009638615498079
4.034256504158063
4.0465654484880815
4.052719920653064
4.058874392818074
4.034256504158063
3.855776811373057
4.028102031993082
4.083492281478085
4.083492281478085
4.0711833371480655
4.0711833371480655
4.077337809313075
4.058874392818074
4.040410976323072
4.065028864983084
4.077337809313075
4.077337809313075
4.083492281478085
4.077337809313075
4.077337809313075
4.065028864983084
4.065028864983084
4.077337809313075
4.0711833371480655
4.077337809313075
4.077337809313075
4.0711833371480655
4.077337809313075
4.052719920653064
4.065028864983084
4.0711833371480655
4.0711833371480655
4.077337809313075
4.077337809313075
4.077337809313075
4.0711833371480655
4.058874392818074
4.065028864983084
4.0711833371480655
4.077337809313075
4.0711833371480655
4.077337809313075
4.083492281478085
4.0711833371480655
4.052719920653064
4.0711833371480655
4.0711833371480655
4.077337809313075
4.0711833371480655
4.065028864983084
4.0711833371480655
4.065028864983084
4.052719920653064
4.077337809313075
4.0711833371480655
4.0711833371480655
4.083492281478085
4.083492281478085
4.083492281478085
4.077337809313075
4.0711833371480655
4.089646753643067
4.089646753643067
4.095801225808079
4.101955697973087
4.114264642303079
4.114264642303079
4.101955697973087
4.089646753643067
4.114264642303079
4.120419114468088
4.108110170138069
4.114264642303079
4.108110170138069
4.101955697973087
4.089646753643067
4.095801225808079
4.101955697973087
4.095801225808079
4.095801225808079
4.083492281478085
4.089646753643067
4.095801225808079
4.065028864983084
4.0711833371480655
4.077337809313075
4.077337809313075
4.083492281478085
4.095801225808079
4.089646753643067
4.095801225808079
4.034256504158063
3.905012588693053
4.083492281478085
4.101955697973087
4.095801225808079
4.095801225808079
4.101955697973087
4.083492281478085
4.0465654484880815
4.058874392818074
4.065028864983084
4.077337809313075
4.077337809313075
4.0711833371480655
4.077337809313075
4.0711833371480655
4.065028864983084
4.077337809313075
4.083492281478085
4.089646753643067
4.083492281478085
4.083492281478085
4.083492281478085
4.077337809313075
4.077337809313075
4.089646753643067
4.089646753643067
4.089646753643067
4.095801225808079
4.089646753643067
4.089646753643067
4.089646753643067
4.077337809313075
4.089646753643067
4.095801225808079
4.095801225808079
4.095801225808079
4.089646753643067
4.095801225808079
4.089646753643067
4.083492281478085
4.095801225808079
4.089646753643067
4.089646753643067
4.089646753643067
4.089646753643067
4.083492281478085
4.077337809313075
4.089646753643067
4.095801225808079
4.095801225808079
4.089646753643067
4.083492281478085
4.083492281478085
4.089646753643067
4.0711833371480655
4.083492281478085
4.083492281478085
4.089646753643067
4.083492281478085
4.083492281478085
4.0711833371480655
4.077337809313075
4.058874392818074
4.065028864983084
4.077337809313075
4.0711833371480655
4.077337809313075
4.077337809313075
4.083492281478085
4.0711833371480655
4.065028864983084
4.077337809313075
4.077337809313075
4.077337809313075
4.077337809313075
4.077337809313075
4.077337809313075
4.065028864983084
4.052719920653064
4.077337809313075
4.077337809313075
4.083492281478085
4.095801225808079
4.089646753643067
4.095801225808079
4.089646753643067
4.083492281478085
4.089646753643067
4.089646753643067
4.095801225808079
4.083492281478085
4.083492281478085
4.077337809313075
4.058874392818074
4.065028864983084
4.0711833371480655
4.077337809313075
4.077337809313075
4.0711833371480655
4.077337809313075
4.0711833371480655
4.052719920653064
4.058874392818074
4.0711833371480655
4.0711833371480655
4.0711833371480655
4.058874392818074
4.065028864983084
4.058874392818074
4.058874392818074
4.065028864983084
4.077337809313075
4.0711833371480655
4.0711833371480655
4.065028864983084
4.052719920653064
4.052719920653064
4.0465654484880815
4.089646753643067
4.151191475293081
4.243508557768089
4.2865898629231
4.188118308283084
4.280435390758093
4.157345947458091
4.028102031993082
4.009638615498079
4.009638615498079
4.028102031993082
4.0465654484880815
4.058874392818074
4.052719920653064
4.052719920653064
4.040410976323072
4.0465654484880815
4.058874392818074
4.058874392818074
4.052719920653064
4.052719920653064
4.052719920653064
4.052719920653064
4.0465654484880815
4.052719920653064
4.052719920653064
4.058874392818074
4.065028864983084
4.058874392818074
4.058874392818074
4.040410976323072
4.052719920653064
4.058874392818074
4.065028864983084
4.058874392818074
4.065028864983084
4.065028864983084
4.0711833371480655
4.052719920653064
4.065028864983084
4.0711833371480655
4.0711833371480655
4.0711833371480655
4.0711833371480655
4.0711833371480655
4.065028864983084
4.058874392818074
4.0711833371480655
4.065028864983084
4.077337809313075
4.077337809313075
4.0711833371480655
4.0711833371480655
4.0711833371480655
4.058874392818074
4.0711833371480655
4.0711833371480655
4.0711833371480655
4.0711833371480655
4.0711833371480655
4.0711833371480655
4.065028864983084
4.0465654484880815
4.058874392818074
4.0711833371480655
4.065028864983084
4.065028864983084
4.0711833371480655
4.077337809313075
4.077337809313075
4.0711833371480655
4.083492281478085
4.083492281478085
4.089646753643067
4.095801225808079
4.095801225808079
4.101955697973087
4.101955697973087
4.095801225808079
4.108110170138069
4.108110170138069
4.101955697973087
4.108110170138069
4.108110170138069
4.108110170138069
4.089646753643067
4.083492281478085
4.089646753643067
4.089646753643067
4.089646753643067
4.089646753643067
4.083492281478085
4.089646753643067
4.065028864983084
4.0711833371480655
4.0711833371480655
4.077337809313075
4.077337809313075
4.0711833371480655
4.083492281478085
4.0711833371480655
4.065028864983084
4.077337809313075
4.077337809313075
4.077337809313075
4.0711833371480655
4.077337809313075
4.077337809313075
4.058874392818074
3.886549172198051
4.021947559828071
4.089646753643067
4.089646753643067
4.077337809313075
4.077337809313075
4.0711833371480655
4.058874392818074
4.028102031993082
4.058874392818074
4.058874392818074
4.077337809313075
4.077337809313075
4.0711833371480655
4.0711833371480655
4.065028864983084
4.015793087663061
3.8927036443630603
4.077337809313075
4.095801225808079
4.095801225808079
4.089646753643067
4.095801225808079
4.0711833371480655
4.0465654484880815
4.065028864983084
4.0711833371480655
4.0711833371480655
4.077337809313075
4.077337809313075
4.083492281478085
4.065028864983084
4.0711833371480655
4.077337809313075
4.083492281478085
4.083492281478085
4.083492281478085
4.077337809313075
4.077337809313075
4.058874392818074
4.077337809313075
4.077337809313075
4.077337809313075
4.0711833371480655
4.0711833371480655
4.077337809313075
4.077337809313075
4.058874392818074
4.077337809313075
4.077337809313075
4.077337809313075
4.0711833371480655
4.077337809313075
4.077337809313075
4.0711833371480655
4.065028864983084
4.077337809313075
4.0711833371480655
4.0711833371480655
4.077337809313075
4.077337809313075
4.077337809313075
4.0711833371480655
4.058874392818074
4.0711833371480655
4.0711833371480655
4.0711833371480655
4.0711833371480655
4.077337809313075
4.0711833371480655
4.0711833371480655
4.065028864983084
4.0711833371480655
4.0711833371480655
4.0711833371480655
4.077337809313075
4.089646753643067
4.089646753643067
4.089646753643067
4.089646753643067
4.089646753643067
4.095801225808079
4.089646753643067
4.083492281478085
4.089646753643067
4.077337809313075
4.0711833371480655
4.065028864983084
4.0711833371480655
4.065028864983084
4.0711833371480655
4.077337809313075
4.077337809313075
4.0711833371480655
4.058874392818074
4.065028864983084
4.065028864983084
4.065028864983084
4.065028864983084
4.065028864983084
4.065028864983084
4.058874392818074
4.0465654484880815
4.058874392818074
4.058874392818074
4.058874392818074
4.058874392818074
4.065028864983084
4.0711833371480655
4.052719920653064
4.040410976323072
4.0465654484880815
4.052719920653064
4.077337809313075
4.108110170138069
4.1758093639530935
4.261971974263091
4.3173622237481215
4.292744335088111
4.188118308283084
4.077337809313075
4.015793087663061
3.9788662546730578
3.9788662546730578
4.003484143333068
4.003484143333068
4.009638615498079
4.034256504158063
4.040410976323072
4.034256504158063
4.040410976323072
4.040410976323072
4.040410976323072
4.040410976323072
4.034256504158063
4.0465654484880815
4.052719920653064
4.052719920653064
4.009638615498079
3.874240227868059
4.040410976323072
4.034256504158063
4.015793087663061
4.040410976323072
4.040410976323072
4.052719920653064
4.0465654484880815
4.052719920653064
4.0465654484880815
4.034256504158063
4.040410976323072
4.0465654484880815
4.058874392818074
4.052719920653064
4.058874392818074
4.052719920653064
4.058874392818074
4.040410976323072
4.0465654484880815
4.052719920653064
4.058874392818074
4.052719920653064
4.058874392818074
4.058874392818074
4.058874392818074
4.040410976323072
4.065028864983084
4.065028864983084
4.065028864983084
4.065028864983084
4.065028864983084
4.065028864983084
4.052719920653064
4.040410976323072
4.052719920653064
4.058874392818074
4.065028864983084
4.058874392818074
4.065028864983084
4.0711833371480655
4.0711833371480655
4.065028864983084
4.0711833371480655
4.0711833371480655
4.077337809313075
4.077337809313075
4.077337809313075
4.077337809313075
4.077337809313075
4.077337809313075
4.089646753643067
4.083492281478085
4.089646753643067
4.089646753643067
4.089646753643067
4.077337809313075
4.065028864983084
4.0711833371480655
4.077337809313075
4.077337809313075
4.0711833371480655
4.065028864983084
4.058874392818074
4.065028864983084
4.0465654484880815
4.058874392818074
4.065028864983084
4.065028864983084
4.065028864983084
4.065028864983084
4.058874392818074
4.052719920653064
4.0465654484880815
4.052719920653064
4.065028864983084
4.058874392818074
4.058874392818074
4.0711833371480655
4.0711833371480655
4.058874392818074
4.052719920653064
4.058874392818074
4.058874392818074
4.058874392818074
4.052719920653064
4.058874392818074
4.058874392818074
4.058874392818074
4.052719920653064
4.065028864983084
4.065028864983084
4.052719920653064
4.058874392818074
4.065028864983084
4.065028864983084
4.058874392818074
4.052719920653064
4.077337809313075
4.077337809313075
4.077337809313075
4.077337809313075
4.065028864983084
4.065028864983084
4.065028864983084
4.058874392818074
4.065028864983084
4.058874392818074
4.052719920653064
4.052719920653064
4.0711833371480655
4.077337809313075
4.065028864983084
4.0711833371480655
4.0711833371480655
4.058874392818074
4.058874392818074
4.058874392818074
4.0711833371480655
4.0711833371480655
4.058874392818074
4.034256504158063
3.9111670608580615
4.0711833371480655
4.083492281478085
4.077337809313075
4.089646753643067
4.083492281478085
4.052719920653064
4.058874392818074
4.0711833371480655
4.083492281478085
4.083492281478085
4.083492281478085
4.083492281478085
4.0711833371480655
4.058874392818074
4.0711833371480655
4.040410976323072
4.028102031993082
4.052719920653064
4.0465654484880815
4.065028864983084
4.077337809313075
4.083492281478085
4.101955697973087
4.114264642303079
4.114264642303079
4.101955697973087
4.101955697973087
4.108110170138069
4.095801225808079
4.095801225808079
4.114264642303079
4.101955697973087
4.108110170138069
4.101955697973087
4.101955697973087
4.083492281478085
4.052719920653064
4.077337809313075
4.095801225808079
4.095801225808079
4.095801225808079
4.108110170138069
4.101955697973087
4.108110170138069
4.089646753643067
4.089646753643067
4.083492281478085
4.0711833371480655
4.083492281478085
4.101955697973087
4.108110170138069
4.089646753643067
3.9296304773530633
3.9973296711680604
4.101955697973087
4.095801225808079
4.101955697973087
4.101955697973087
4.108110170138069
4.095801225808079
4.058874392818074
4.058874392818074
4.058874392818074
4.065028864983084
4.095801225808079
4.138882530963089
4.218890669108104
4.292744335088111
4.360443528903107
4.348134584573115
4.231199613438097
4.101955697973087
4.034256504158063
4.015793087663061
4.028102031993082
4.040410976323072
4.052719920653064
4.0711833371480655
4.089646753643067
4.089646753643067
4.089646753643067
4.089646753643067
4.083492281478085
4.0711833371480655
4.077337809313075
4.083492281478085
4.089646753643067
4.095801225808079
4.089646753643067
4.089646753643067
4.077337809313075
4.065028864983084
4.089646753643067
4.101955697973087
4.101955697973087
4.101955697973087
4.095801225808079
4.095801225808079
4.101955697973087
4.083492281478085
4.089646753643067
4.095801225808079
4.108110170138069
4.108110170138069
4.101955697973087
4.108110170138069
4.083492281478085
4.077337809313075
4.095801225808079
4.089646753643067
4.089646753643067
4.095801225808079
4.101955697973087
4.095801225808079
4.089646753643067
4.0711833371480655
4.095801225808079
4.101955697973087
4.108110170138069
4.114264642303079
4.0711833371480655
3.9542483660130467
4.101955697973087
4.083492281478085
4.095801225808079
4.108110170138069
4.101955697973087
4.101955697973087
4.108110170138069
4.108110170138069
4.101955697973087
4.095801225808079
4.108110170138069
4.114264642303079
4.12657358663307
4.120419114468088
4.120419114468088
4.1327280587980795
4.120419114468088
4.1327280587980795
4.145037003128072
4.145037003128072
4.145037003128072
4.151191475293081
4.145037003128072
4.145037003128072
4.1327280587980795
4.1327280587980795
4.138882530963089
4.1327280587980795
4.1327280587980795
4.1327280587980795
4.12657358663307
4.120419114468088
4.101955697973087
4.120419114468088
4.1327280587980795
4.12657358663307
4.1327280587980795
4.1327280587980795
4.12657358663307
4.12657358663307
4.108110170138069
4.12657358663307
4.12657358663307
4.114264642303079
4.12657358663307
4.12657358663307
4.120419114468088
4.120419114468088
4.108110170138069
4.12657358663307
4.114264642303079
4.108110170138069
4.114264642303079
4.12657358663307
4.1327280587980795
4.12657358663307
4.114264642303079
4.120419114468088
4.120419114468088
4.1327280587980795
4.145037003128072
4.1327280587980795
4.12657358663307
4.120419114468088
4.120419114468088
4.120419114468088
4.114264642303079
4.120419114468088
4.108110170138069
4.108110170138069
4.108110170138069
4.095801225808079
4.101955697973087
4.12657358663307
4.138882530963089
4.1327280587980795
4.12657358663307
4.120419114468088
4.120419114468088
4.101955697973087
4.114264642303079
4.12657358663307
4.120419114468088
4.120419114468088
4.120419114468088
4.120419114468088
4.114264642303079
4.108110170138069
4.114264642303079
4.120419114468088
4.120419114468088
4.108110170138069
4.108110170138069
4.095801225808079
4.095801225808079
4.108110170138069
4.12657358663307
4.120419114468088
4.12657358663307
4.120419114468088
4.114264642303079
4.114264642303079
4.114264642303079
4.108110170138069
4.120419114468088
4.120419114468088
4.120419114468088
4.114264642303079
4.108110170138069
4.114264642303079
4.101955697973087
4.095801225808079
4.114264642303079
4.114264642303079
4.108110170138069
4.101955697973087
4.101955697973087
4.114264642303079
4.120419114468088
4.108110170138069
4.0711833371480655
3.9357849495180455
4.114264642303079
4.151191475293081
4.157345947458091
4.157345947458091
4.120419114468088
4.101955697973087
4.114264642303079
4.120419114468088
4.1327280587980795
4.1327280587980795
4.12657358663307
4.120419114468088
4.114264642303079
4.12657358663307
4.1327280587980795
4.120419114468088
4.120419114468088
4.12657358663307
4.114264642303079
4.108110170138069
4.101955697973087
4.101955697973087
4.101955697973087
4.095801225808079
4.108110170138069
4.114264642303079
4.108110170138069
4.101955697973087
4.101955697973087
4.114264642303079
4.114264642303079
4.101955697973087
4.114264642303079
4.101955697973087
4.101955697973087
4.089646753643067
4.077337809313075
4.095801225808079
4.120419114468088
4.1758093639530935
4.249663029933098
4.354289056738125
4.415833778388112
4.366598001068117
4.231199613438097
4.1327280587980795
4.077337809313075
4.0465654484880815
4.052719920653064
4.083492281478085
4.083492281478085
4.083492281478085
4.089646753643067
4.095801225808079
4.108110170138069
4.108110170138069
4.114264642303079
4.108110170138069
4.108110170138069
4.101955697973087
4.101955697973087
4.108110170138069
4.095801225808079
4.101955697973087
4.108110170138069
4.120419114468088
4.120419114468088
4.101955697973087
4.108110170138069
4.114264642303079
4.114264642303079
4.114264642303079
4.120419114468088
4.114264642303079
4.120419114468088
4.114264642303079
4.12657358663307
4.114264642303079
4.120419114468088
4.120419114468088
4.12657358663307
4.12657358663307
4.120419114468088
4.114264642303079
4.120419114468088
4.12657358663307
4.120419114468088
4.120419114468088
4.108110170138069
4.12657358663307
4.12657358663307
4.12657358663307
4.12657358663307
4.1327280587980795
4.120419114468088
4.120419114468088
4.114264642303079
4.120419114468088
4.120419114468088
4.108110170138069
4.120419114468088
4.114264642303079
4.120419114468088
4.120419114468088
4.12657358663307
4.12657358663307
4.108110170138069
4.114264642303079
4.138882530963089
4.1327280587980795
4.138882530963089
4.138882530963089
4.145037003128072
4.151191475293081
4.151191475293081
4.151191475293081
4.163500419623101
4.163500419623101
4.169654891788083
4.163500419623101
4.114264642303079
3.9788662546730578
4.009638615498079
3.9973296711680604
4.163500419623101
4.163500419623101
4.163500419623101
4.151191475293081
4.157345947458091
4.138882530963089
4.114264642303079
4.120419114468088
4.120419114468088
4.12657358663307
4.138882530963089
4.145037003128072
4.138882530963089
4.12657358663307
4.120419114468088
4.1327280587980795
4.1327280587980795
4.12657358663307
4.12657358663307
4.1327280587980795
4.1327280587980795
4.120419114468088
4.114264642303079
4.1327280587980795
4.1327280587980795
4.120419114468088
4.12657358663307
4.120419114468088
4.1327280587980795
4.12657358663307
4.114264642303079
4.12657358663307
4.1327280587980795
4.1327280587980795
4.120419114468088
4.12657358663307
4.12657358663307
4.114264642303079
4.120419114468088
4.12657358663307
4.12657358663307
4.1327280587980795
4.120419114468088
4.12657358663307
4.120419114468088
4.108110170138069
4.12657358663307
4.1327280587980795
4.12657358663307
4.12657358663307
4.1327280587980795
4.12657358663307
4.120419114468088
4.108110170138069
4.12657358663307
4.12657358663307
4.120419114468088
4.120419114468088
4.12657358663307
4.120419114468088
4.114264642303079
4.095801225808079
4.120419114468088
4.120419114468088
4.114264642303079
4.114264642303079
4.114264642303079
4.12657358663307
4.114264642303079
4.108110170138069
4.120419114468088
4.120419114468088
4.108110170138069
4.120419114468088
4.120419114468088
4.12657358663307
4.114264642303079
4.108110170138069
4.120419114468088
4.108110170138069
4.120419114468088
4.108110170138069
4.108110170138069
4.114264642303079
4.095801225808079
4.095801225808079
4.108110170138069
4.101955697973087
4.108110170138069
4.108110170138069
4.108110170138069
4.114264642303079
4.108110170138069
4.114264642303079
4.12657358663307
4.1327280587980795
4.1327280587980795
4.120419114468088
4.12657358663307
4.120419114468088
4.114264642303079
4.114264642303079
4.120419114468088
4.108110170138069
4.108110170138069
4.114264642303079
4.114264642303079
4.108110170138069
4.089646753643067
4.095801225808079
4.101955697973087
4.101955697973087
4.101955697973087
4.108110170138069
4.108110170138069
4.095801225808079
4.083492281478085
4.095801225808079
4.058874392818074
3.9419394216830552
4.095801225808079
4.114264642303079
4.114264642303079
4.101955697973087
4.0711833371480655
4.0711833371480655
4.077337809313075
4.0711833371480655
4.0711833371480655
4.083492281478085
4.101955697973087
4.145037003128072
4.225045141273086
4.323516695913104
4.37890694539811
4.329671168078114
4.1942727804480935
4.095801225808079
4.040410976323072
4.009638615498079
4.009638615498079
4.0465654484880815
4.065028864983084
4.0711833371480655
4.0711833371480655
4.077337809313075
4.077337809313075
4.058874392818074
4.058874392818074
4.0711833371480655
4.077337809313075
4.077337809313075
4.083492281478085
4.083492281478085
4.077337809313075
4.065028864983084
4.083492281478085
4.083492281478085
4.083492281478085
4.089646753643067
4.095801225808079
4.095801225808079
4.083492281478085
4.083492281478085
4.083492281478085
4.089646753643067
4.095801225808079
4.095801225808079
4.101955697973087
4.101955697973087
4.089646753643067
4.089646753643067
4.095801225808079
4.101955697973087
4.101955697973087
4.101955697973087
4.101955697973087
4.108110170138069
4.101955697973087
4.095801225808079
4.101955697973087
4.101955697973087
4.101955697973087
4.108110170138069
4.101955697973087
4.101955697973087
4.095801225808079
4.101955697973087
4.101955697973087
4.108110170138069
4.108110170138069
4.108110170138069
4.108110170138069
4.101955697973087
4.108110170138069
4.101955697973087
4.108110170138069
4.108110170138069
4.114264642303079
4.12657358663307
4.120419114468088
4.12657358663307
4.120419114468088
4.120419114468088
4.138882530963089
4.138882530963089
4.138882530963089
4.145037003128072
4.145037003128072
4.138882530963089
4.12657358663307
4.12657358663307
4.1327280587980795
4.1327280587980795
4.120419114468088
4.12657358663307
4.120419114468088
4.114264642303079
4.101955697973087
4.114264642303079
4.114264642303079
4.108110170138069
4.108110170138069
4.108110170138069
4.108110170138069
4.101955697973087
4.083492281478085
4.101955697973087
4.101955697973087
4.095801225808079
4.101955697973087
4.101955697973087
4.101955697973087
4.083492281478085
4.077337809313075
4.101955697973087
4.095801225808079
4.101955697973087
4.095801225808079
4.095801225808079
4.058874392818074
3.9234760051880535
4.052719920653064
4.083492281478085
4.095801225808079
4.095801225808079
4.095801225808079
4.095801225808079
4.089646753643067
4.077337809313075
4.077337809313075
4.089646753643067
4.083492281478085
4.083492281478085
4.095801225808079
4.089646753643067
4.095801225808079
4.077337809313075
4.089646753643067
4.095801225808079
4.089646753643067
4.089646753643067
4.095801225808079
4.108110170138069
4.108110170138069
4.089646753643067
4.095801225808079
4.101955697973087
4.101955697973087
4.108110170138069
4.101955697973087
4.108110170138069
4.101955697973087
4.089646753643067
4.095801225808079
4.095801225808079
4.101955697973087
4.101955697973087
4.101955697973087
4.101955697973087
4.101955697973087
4.083492281478085
4.095801225808079
4.095801225808079
4.095801225808079
4.101955697973087
4.095801225808079
4.108110170138069
4.095801225808079
4.095801225808079
4.101955697973087
4.108110170138069
4.101955697973087
4.101955697973087
4.101955697973087
4.101955697973087
4.095801225808079
4.095801225808079
4.101955697973087
4.108110170138069
4.108110170138069
4.095801225808079
4.095801225808079
4.095801225808079
4.083492281478085
4.101955697973087
4.120419114468088
4.120419114468088
4.120419114468088
4.114264642303079
4.120419114468088
4.108110170138069
4.021947559828071
3.9419394216830552
4.101955697973087
4.108110170138069
4.101955697973087
4.101955697973087
4.101955697973087
4.101955697973087
4.077337809313075
4.065028864983084
4.089646753643067
4.089646753643067
4.089646753643067
4.089646753643067
4.089646753643067
4.083492281478085
4.077337809313075
4.083492281478085
4.089646753643067
4.089646753643067
4.095801225808079
4.089646753643067
4.095801225808079
4.089646753643067
4.0711833371480655
4.095801225808079
4.089646753643067
4.083492281478085
4.089646753643067
4.101955697973087
4.12657358663307
4.169654891788083
4.237354085603107
4.323516695913104
4.3727524732331275
4.323516695913104
4.188118308283084
4.095801225808079
4.0465654484880815
4.021947559828071
4.015793087663061
4.0465654484880815
4.0711833371480655
4.083492281478085
4.089646753643067
4.083492281478085
4.089646753643067
4.0711833371480655
4.0711833371480655
4.089646753643067
4.0465654484880815
3.9173215330230438
4.077337809313075
4.089646753643067
4.101955697973087
4.077337809313075
4.0711833371480655
4.083492281478085
4.095801225808079
4.095801225808079
4.089646753643067
4.095801225808079
4.101955697973087
4.089646753643067
4.095801225808079
4.108110170138069
4.101955697973087
4.101955697973087
4.095801225808079
4.077337809313075
4.065028864983084
4.077337809313075
4.114264642303079
4.12657358663307
4.120419114468088
4.120419114468088
4.114264642303079
4.108110170138069
4.108110170138069
4.095801225808079
4.108110170138069
4.108110170138069
4.108110170138069
4.114264642303079
4.114264642303079
4.108110170138069
4.095801225808079
4.089646753643067
4.108110170138069
4.095801225808079
4.089646753643067
4.095801225808079
4.101955697973087
4.095801225808079
4.089646753643067
4.083492281478085
4.095801225808079
4.095801225808079
4.108110170138069
4.120419114468088
4.120419114468088
4.120419114468088
4.108110170138069
4.114264642303079
4.12657358663307
4.1327280587980795
4.138882530963089
4.1327280587980795
4.1327280587980795
4.12657358663307
4.101955697973087
4.108110170138069
4.108110170138069
4.101955697973087
4.101955697973087
4.095801225808079
4.089646753643067
4.095801225808079
4.083492281478085
4.089646753643067
4.095801225808079
4.095801225808079
4.089646753643067
4.095801225808079
4.089646753643067
4.095801225808079
4.083492281478085
4.089646753643067
4.083492281478085
4.077337809313075
4.0711833371480655
4.089646753643067
4.089646753643067
4.083492281478085
4.058874392818074
4.077337809313075
4.089646753643067
4.083492281478085
4.083492281478085
4.077337809313075
4.077337809313075
4.077337809313075
4.0711833371480655
4.083492281478085
4.089646753643067
4.083492281478085
4.089646753643067
4.083492281478085
4.077337809313075
4.065028864983084
4.077337809313075
4.089646753643067
4.083492281478085
4.083492281478085
4.089646753643067
4.095801225808079
4.101955697973087
