-0.31695531649755804
-0.32310978866254003
-0.33541873299255964
-0.3415732051575415
-0.3538821494875609
-0.3415732051575415
-0.31695531649755804
-0.31695531649755804
-0.32310978866254003
-0.33541873299255964
-0.32310978866254003
-0.31695531649755804
-0.31695531649755804
-0.31695531649755804
-0.32310978866254003
-0.3292642608275498
-0.3292642608275498
-0.32310978866254003
-0.32310978866254003
-0.31695531649755804
-0.32310978866254003
-0.31695531649755804
-0.30464637216753854
-0.29233742783754685
-0.2800284835075273
-0.2800284835075273
-0.2738740113425453
-0.2800284835075273
-0.2738740113425453
-0.2738740113425453
-0.2800284835075273
-0.26771953917753555
-0.26771953917753555
-0.24925612268253405
-0.24925612268253405
-0.2431016505175243
-0.2369471783525424
-0.23079270618753256
-0.2246382340225228
-0.2369471783525424
-0.2431016505175243
-0.24925612268253405
-0.26771953917753555
-0.26156506701252585
-0.26156506701252585
-0.2431016505175243
-0.2246382340225228
-0.21848376185754081
-0.21232928969253104
-0.20002034536253932
-0.1938658731975296
-0.18155692886753785
-0.1692479845375183
-0.1692479845375183
-0.16309351237253633
-0.16309351237253633
-0.1384756237125251
-0.12001220721752358
-0.11385773505251384
-0.11385773505251384
-0.11385773505251384
-0.11385773505251384
-0.12001220721752358
-0.1261666793825056
-0.12001220721752358
-0.11385773505251384
-0.11385773505251384
-0.10770326288750408
-0.10770326288750408
-0.1015487907225221
-0.10770326288750408
-0.1015487907225221
-0.1015487907225221
-0.10770326288750408
-0.11385773505251384
-0.10770326288750408
-0.1015487907225221
-0.09539431855751236
-0.09539431855751236
-0.11385773505251384
-0.12001220721752358
-0.12001220721752358
-0.11385773505251384
-0.10770326288750408
-0.08923984639250257
-0.05231301340249961
-0.02154065257750637
-0.009231708247514623
0.003077236082504875
0.01538618041249662
-0.02154065257750637
-0.05231301340249961
-0.05846748556750937
-0.0707764298975011
-0.0707764298975011
-0.05231301340249961
-0.05231301340249961
-0.06462195773251911
-0.09539431855751236
-0.11385773505251384
-0.12001220721752358
-0.13232115154751534
-0.1261666793825056
-0.13232115154751534
-0.1261666793825056
-0.12001220721752358
-0.12001220721752358
-0.1384756237125251
-0.12001220721752358
-0.13232115154751534
-0.1384756237125251
-0.1384756237125251
-0.13232115154751534
-0.14463009587750708
-0.14463009587750708
-0.1692479845375183
-0.20617481752752131
-0.2369471783525424
-0.26771953917753555
-0.26771953917753555
-0.24925612268253405
-0.21848376185754081
-0.16309351237253633
-0.1261666793825056
-0.08923984639250257
-0.09539431855751236
-0.1384756237125251
-0.21848376185754081
-0.3415732051575415
-0.4523537041275505
-0.4831260649525715
-0.47697159278756174
-0.4892805371175811
-0.4831260649525715
-0.4892805371175811
-0.4892805371175811
-0.5015894814475731
-0.5077439536125827
-0.5200528979425745
-0.5323618422725662
-0.5508252587675677
-0.5631342030975872
-0.5815976195925888
-0.6000610360875902
-0.5939065639225805
-0.5939065639225805
-0.6123699804175822
-0.6185244525825918
-0.6185244525825918
-0.5939065639225805
-0.5815976195925888
-0.575443147427579
-0.575443147427579
-0.5631342030975872
-0.5631342030975872
-0.575443147427579
-0.5815976195925888
-0.5692886752625692
-0.5631342030975872
-0.5446707866025856
-0.538516314437576
-0.538516314437576
-0.5262073701075842
-0.5262073701075842
-0.5323618422725662
-0.5200528979425745
-0.5200528979425745
-0.5262073701075842
-0.5200528979425745
-0.5138984257775646
-0.5138984257775646
-0.5015894814475731
-0.5015894814475731
-0.5015894814475731
-0.5077439536125827
-0.49543500928256323
-0.4892805371175811
-0.4892805371175811
-0.47697159278756174
-0.46466264845757
-0.46466264845757
-0.4585081762925601
-0.44619923196256844
-0.433890287632549
-0.4400447597975588
-0.427735815467567
-0.4092723989725655
-0.4092723989725655
-0.4092723989725655
-0.40311792680755576
-0.396963454642546
-0.390808982477564
-0.3846545103125543
-0.3723455659825625
-0.3538821494875609
-0.360036621652543
-0.36619109381755277
-0.360036621652543
-0.36619109381755277
-0.390808982477564
-0.40311792680755576
-0.4092723989725655
-0.4092723989725655
-0.427735815467567
-0.4400447597975588
-0.4523537041275505
-0.4523537041275505
-0.433890287632549
-0.427735815467567
-0.427735815467567
-0.427735815467567
-0.433890287632549
-0.42158134330255725
-0.427735815467567
-0.42158134330255725
-0.427735815467567
-0.433890287632549
-0.42158134330255725
-0.42158134330255725
-0.4092723989725655
-0.42158134330255725
-0.427735815467567
-0.42158134330255725
-0.4092723989725655
-0.4092723989725655
-0.4154268711375475
-0.42158134330255725
-0.42158134330255725
-0.4154268711375475
-0.4154268711375475
-0.42158134330255725
-0.427735815467567
-0.427735815467567
-0.4154268711375475
-0.4092723989725655
-0.40311792680755576
-0.40311792680755576
-0.37850003814754446
-0.37850003814754446
-0.36619109381755277
-0.36619109381755277
-0.36619109381755277
-0.37850003814754446
-0.390808982477564
-0.4092723989725655
-0.396963454642546
-0.40311792680755576
-0.40311792680755576
-0.3846545103125543
-0.3723455659825625
-0.3723455659825625
-0.37850003814754446
-0.37850003814754446
-0.36619109381755277
-0.36619109381755277
-0.3723455659825625
-0.36619109381755277
-0.3723455659825625
-0.37850003814754446
-0.396963454642546
-0.3723455659825625
-0.33541873299255964
-0.33541873299255964
-0.3538821494875609
-0.3538821494875609
-0.360036621652543
-0.36619109381755277
-0.390808982477564
-0.37850003814754446
-0.360036621652543
-0.3538821494875609
-0.34772767732255133
-0.3538821494875609
-0.34772767732255133
-0.34772767732255133
-0.3723455659825625
-0.3846545103125543
-0.3723455659825625
-0.3723455659825625
-0.36619109381755277
-0.360036621652543
-0.37850003814754446
-0.3723455659825625
-0.37850003814754446
-0.36619109381755277
-0.3723455659825625
-0.36619109381755277
-0.36619109381755277
-0.36619109381755277
-0.3723455659825625
-0.3723455659825625
-0.3723455659825625
-0.37850003814754446
-0.360036621652543
-0.3415732051575415
-0.33541873299255964
-0.3415732051575415
-0.33541873299255964
-0.33541873299255964
-0.33541873299255964
-0.33541873299255964
-0.360036621652543
-0.3723455659825625
-0.36619109381755277
-0.36619109381755277
-0.3538821494875609
-0.3538821494875609
-0.34772767732255133
-0.34772767732255133
-0.34772767732255133
-0.3538821494875609
-0.360036621652543
-0.37850003814754446
-0.3723455659825625
-0.36619109381755277
-0.36619109381755277
-0.37850003814754446
-0.3846545103125543
-0.37850003814754446
-0.3723455659825625
-0.36619109381755277
-0.36619109381755277
-0.3846545103125543
-0.37850003814754446
-0.36619109381755277
-0.3723455659825625
-0.3538821494875609
-0.32310978866254003
-0.2800284835075273
-0.2431016505175243
-0.20617481752752131
-0.16309351237253633
-0.1384756237125251
-0.18771140103251985
-0.29233742783754685
-0.44619923196256844
-0.538516314437576
-0.5631342030975872
-0.538516314437576
-0.5138984257775646
-0.4831260649525715
-0.4400447597975588
-0.4154268711375475
-0.3846545103125543
-0.360036621652543
-0.34772767732255133
-0.34772767732255133
-0.3415732051575415
-0.3292642608275498
-0.33541873299255964
-0.33541873299255964
-0.33541873299255964
-0.3292642608275498
-0.31695531649755804
-0.33541873299255964
-0.33541873299255964
-0.31695531649755804
-0.31695531649755804
-0.30464637216753854
-0.28618295567253704
-0.2800284835075273
-0.29233742783754685
-0.29233742783754685
-0.32310978866254003
-0.3292642608275498
-0.32310978866254003
-0.32310978866254003
-0.32310978866254003
-0.31695531649755804
-0.32310978866254003
-0.31695531649755804
-0.31695531649755804
-0.3292642608275498
-0.3415732051575415
-0.32310978866254003
-0.3108008443325483
-0.2984919000025288
-0.3108008443325483
-0.3108008443325483
-0.32310978866254003
-0.2984919000025288
-0.28618295567253704
-0.2738740113425453
-0.2738740113425453
-0.2800284835075273
-0.2738740113425453
-0.26771953917753555
-0.26156506701252585
-0.26156506701252585
-0.2554105948475438
-0.2554105948475438
-0.24925612268253405
-0.2431016505175243
-0.2431016505175243
-0.21848376185754081
-0.2246382340225228
-0.24925612268253405
-0.23079270618753256
-0.21848376185754081
-0.2246382340225228
-0.23079270618753256
-0.23079270618753256
-0.20002034536253932
-0.20617481752752131
-0.2369471783525424
-0.2369471783525424
-0.2369471783525424
-0.2431016505175243
-0.2554105948475438
-0.26771953917753555
-0.2738740113425453
-0.2800284835075273
-0.29233742783754685
-0.2800284835075273
-0.28618295567253704
-0.30464637216753854
-0.30464637216753854
-0.2984919000025288
-0.3108008443325483
-0.30464637216753854
-0.30464637216753854
-0.3108008443325483
-0.28618295567253704
-0.2800284835075273
-0.28618295567253704
-0.2800284835075273
-0.2800284835075273
-0.28618295567253704
-0.2800284835075273
-0.2738740113425453
-0.28618295567253704
-0.28618295567253704
-0.29233742783754685
-0.29233742783754685
-0.29233742783754685
-0.29233742783754685
-0.3108008443325483
-0.3108008443325483
-0.31695531649755804
-0.3292642608275498
-0.3415732051575415
-0.3415732051575415
-0.3415732051575415
-0.3538821494875609
-0.360036621652543
-0.34772767732255133
-0.360036621652543
-0.360036621652543
-0.3538821494875609
-0.3538821494875609
-0.3538821494875609
-0.34772767732255133
-0.3415732051575415
-0.3415732051575415
-0.33541873299255964
-0.32310978866254003
-0.3108008443325483
-0.3108008443325483
-0.3108008443325483
-0.30464637216753854
-0.30464637216753854
-0.2984919000025288
-0.28618295567253704
-0.28618295567253704
-0.28618295567253704
-0.2800284835075273
-0.2800284835075273
-0.2738740113425453
-0.26156506701252585
-0.26771953917753555
-0.26156506701252585
-0.26156506701252585
-0.24925612268253405
-0.2246382340225228
-0.2246382340225228
-0.2246382340225228
-0.21848376185754081
-0.21848376185754081
-0.20617481752752131
-0.20002034536253932
-0.18771140103251985
-0.16309351237253633
-0.1692479845375183
-0.20002034536253932
-0.18155692886753785
-0.16309351237253633
-0.15693904020752658
-0.1692479845375183
-0.17540245670252808
-0.1692479845375183
-0.17540245670252808
-0.17540245670252808
-0.1692479845375183
-0.1692479845375183
-0.16309351237253633
-0.17540245670252808
-0.17540245670252808
-0.17540245670252808
-0.15693904020752658
-0.16309351237253633
-0.13232115154751534
-0.12001220721752358
-0.11385773505251384
-0.10770326288750408
-0.10770326288750408
-0.1015487907225221
-0.11385773505251384
-0.12001220721752358
-0.1261666793825056
-0.1384756237125251
-0.14463009587750708
-0.15693904020752658
-0.1261666793825056
-0.08923984639250257
-0.04615854123751762
0.009231708247514623
0.040004069072507864
0.05846748556750937
0.07693090206251085
0.1261666793825056
0.14463009587750708
0.15078456804251686
0.20617481752752131
0.2554105948475438
0.3292642608275498
0.2554105948475438
0.1692479845375183
0.08923984639250257
0.01538618041249662
-0.04615854123751762
-0.10770326288750408
-0.14463009587750708
-0.1938658731975296
-0.23079270618753256
-0.24925612268253405
-0.2554105948475438
-0.2800284835075273
-0.30464637216753854
-0.31695531649755804
-0.33541873299255964
-0.3415732051575415
-0.34772767732255133
-0.3538821494875609
-0.37850003814754446
-0.36619109381755277
-0.360036621652543
-0.3538821494875609
-0.34772767732255133
-0.3538821494875609
-0.34772767732255133
-0.3415732051575415
-0.30464637216753854
-0.2554105948475438
-0.20002034536253932
-0.18155692886753785
-0.1938658731975296
-0.26771953917753555
-0.3846545103125543
-0.5323618422725662
-0.6308333969125834
-0.6616057577376044
-0.6739147020675963
-0.6492968134075847
-0.6123699804175822
-0.5815976195925888
-0.5508252587675677
-0.538516314437576
-0.5262073701075842
-0.5200528979425745
-0.5138984257775646
-0.5200528979425745
-0.5138984257775646
-0.49543500928256323
-0.5077439536125827
-0.5200528979425745
-0.5262073701075842
-0.5077439536125827
-0.4585081762925601
-0.44619923196256844
-0.427735815467567
-0.4092723989725655
-0.433890287632549
-0.427735815467567
-0.433890287632549
-0.433890287632549
-0.4400447597975588
-0.46466264845757
-0.4708171206225797
-0.4585081762925601
-0.44619923196256844
-0.4523537041275505
-0.433890287632549
-0.42158134330255725
-0.396963454642546
-0.396963454642546
-0.4092723989725655
-0.4154268711375475
-0.4092723989725655
-0.37850003814754446
-0.3723455659825625
-0.3723455659825625
-0.396963454642546
-0.40311792680755576
-0.3846545103125543
-0.36619109381755277
-0.3723455659825625
-0.3723455659825625
-0.36619109381755277
-0.36619109381755277
-0.36619109381755277
-0.3538821494875609
-0.360036621652543
-0.3415732051575415
-0.34772767732255133
-0.37850003814754446
-0.36619109381755277
-0.3415732051575415
-0.3292642608275498
-0.31695531649755804
-0.30464637216753854
-0.3108008443325483
-0.32310978866254003
-0.3538821494875609
-0.360036621652543
-0.37850003814754446
-0.3846545103125543
-0.3723455659825625
-0.34772767732255133
-0.3292642608275498
-0.32310978866254003
-0.32310978866254003
-0.32310978866254003
-0.32310978866254003
-0.33541873299255964
-0.3415732051575415
-0.3538821494875609
-0.360036621652543
-0.3723455659825625
-0.37850003814754446
-0.3846545103125543
-0.3846545103125543
-0.3846545103125543
-0.3846545103125543
-0.37850003814754446
-0.360036621652543
-0.3538821494875609
-0.360036621652543
-0.3723455659825625
-0.36619109381755277
-0.36619109381755277
-0.3723455659825625
-0.36619109381755277
-0.36619109381755277
-0.360036621652543
-0.3538821494875609
-0.360036621652543
-0.36619109381755277
-0.36619109381755277
-0.36619109381755277
-0.3538821494875609
-0.36619109381755277
-0.360036621652543
-0.360036621652543
-0.3538821494875609
-0.3538821494875609
-0.36619109381755277
-0.360036621652543
-0.3538821494875609
-0.36619109381755277
-0.360036621652543
-0.34772767732255133
-0.34772767732255133
-0.3415732051575415
-0.3415732051575415
-0.34772767732255133
-0.34772767732255133
-0.3415732051575415
-0.3415732051575415
-0.3415732051575415
-0.3415732051575415
-0.3292642608275498
-0.3292642608275498
-0.3108008443325483
-0.30464637216753854
-0.30464637216753854
-0.3108008443325483
-0.3108008443325483
-0.3292642608275498
-0.3292642608275498
-0.3292642608275498
-0.31695531649755804
-0.3108008443325483
-0.32310978866254003
-0.32310978866254003
-0.31695531649755804
-0.31695531649755804
-0.32310978866254003
-0.31695531649755804
-0.31695531649755804
-0.3108008443325483
-0.3108008443325483
-0.3108008443325483
-0.2984919000025288
-0.2984919000025288
-0.29233742783754685
-0.28618295567253704
-0.2984919000025288
-0.2984919000025288
-0.2984919000025288
-0.2984919000025288
-0.29233742783754685
-0.28618295567253704
-0.29233742783754685
-0.2984919000025288
-0.2984919000025288
-0.29233742783754685
-0.29233742783754685
-0.29233742783754685
-0.2984919000025288
-0.30464637216753854
-0.2800284835075273
-0.26771953917753555
-0.26156506701252585
-0.2738740113425453
-0.28618295567253704
-0.28618295567253704
-0.28618295567253704
-0.29233742783754685
-0.29233742783754685
-0.30464637216753854
-0.33541873299255964
-0.34772767732255133
-0.34772767732255133
-0.3415732051575415
-0.3292642608275498
-0.32310978866254003
-0.3292642608275498
-0.32310978866254003
-0.3108008443325483
-0.2984919000025288
-0.2800284835075273
-0.2738740113425453
-0.28618295567253704
-0.29233742783754685
-0.28618295567253704
-0.2738740113425453
-0.26156506701252585
-0.2554105948475438
-0.2431016505175243
-0.24925612268253405
-0.2431016505175243
-0.2431016505175243
-0.24925612268253405
-0.26156506701252585
-0.26771953917753555
-0.26771953917753555
-0.26156506701252585
-0.26156506701252585
-0.2800284835075273
-0.28618295567253704
-0.2800284835075273
-0.2800284835075273
-0.29233742783754685
-0.29233742783754685
-0.28618295567253704
-0.29233742783754685
-0.29233742783754685
-0.2984919000025288
-0.3108008443325483
-0.30464637216753854
-0.29233742783754685
-0.28618295567253704
-0.2738740113425453
-0.2431016505175243
-0.1938658731975296
-0.15693904020752658
-0.11385773505251384
-0.0707764298975011
-0.0707764298975011
-0.1384756237125251
-0.26771953917753555
-0.42158134330255725
-0.47697159278756174
-0.4892805371175811
-0.4585081762925601
-0.427735815467567
-0.4154268711375475
-0.396963454642546
-0.360036621652543
-0.3292642608275498
-0.32310978866254003
-0.3292642608275498
-0.31695531649755804
-0.29233742783754685
-0.28618295567253704
-0.2984919000025288
-0.2984919000025288
-0.2984919000025288
-0.30464637216753854
-0.2984919000025288
-0.28618295567253704
-0.2800284835075273
-0.2800284835075273
-0.2738740113425453
-0.2738740113425453
-0.29233742783754685
-0.29233742783754685
-0.2984919000025288
-0.28618295567253704
-0.28618295567253704
-0.2800284835075273
-0.28618295567253704
-0.2984919000025288
-0.29233742783754685
-0.2800284835075273
-0.26156506701252585
-0.26156506701252585
-0.26771953917753555
-0.26771953917753555
-0.2738740113425453
-0.26156506701252585
-0.26771953917753555
-0.26771953917753555
-0.26156506701252585
-0.2738740113425453
-0.2738740113425453
-0.26771953917753555
-0.2554105948475438
-0.26156506701252585
-0.2431016505175243
-0.2369471783525424
-0.2431016505175243
-0.2554105948475438
-0.26771953917753555
-0.2738740113425453
-0.26156506701252585
-0.2554105948475438
-0.2369471783525424
-0.21848376185754081
-0.21232928969253104
-0.20002034536253932
-0.20002034536253932
-0.1938658731975296
-0.18155692886753785
-0.18771140103251985
-0.20617481752752131
-0.20002034536253932
-0.18771140103251985
-0.18771140103251985
-0.21232928969253104
-0.2369471783525424
-0.2431016505175243
-0.24925612268253405
-0.26156506701252585
-0.26156506701252585
-0.26156506701252585
-0.2554105948475438
-0.26156506701252585
-0.2800284835075273
-0.30464637216753854
-0.31695531649755804
-0.3108008443325483
-0.3108008443325483
-0.32310978866254003
-0.3292642608275498
-0.3292642608275498
-0.32310978866254003
-0.32310978866254003
-0.3292642608275498
-0.3292642608275498
-0.33541873299255964
-0.3292642608275498
-0.3415732051575415
-0.3538821494875609
-0.33541873299255964
-0.32310978866254003
-0.30464637216753854
-0.29233742783754685
-0.28618295567253704
-0.2800284835075273
-0.29233742783754685
-0.28618295567253704
-0.28618295567253704
-0.28618295567253704
-0.30464637216753854
-0.30464637216753854
-0.30464637216753854
-0.2800284835075273
-0.28618295567253704
-0.28618295567253704
-0.29233742783754685
-0.29233742783754685
-0.29233742783754685
-0.29233742783754685
-0.2984919000025288
-0.29233742783754685
-0.2984919000025288
-0.30464637216753854
-0.30464637216753854
-0.2800284835075273
-0.2800284835075273
-0.2984919000025288
-0.2984919000025288
-0.2984919000025288
-0.30464637216753854
-0.3108008443325483
-0.3292642608275498
-0.32310978866254003
-0.32310978866254003
-0.3108008443325483
-0.31695531649755804
-0.3292642608275498
-0.32310978866254003
-0.30464637216753854
-0.2984919000025288
-0.2984919000025288
-0.2984919000025288
-0.2984919000025288
-0.30464637216753854
-0.29233742783754685
-0.2984919000025288
-0.2984919000025288
-0.30464637216753854
-0.31695531649755804
-0.32310978866254003
-0.32310978866254003
-0.3292642608275498
-0.31695531649755804
-0.31695531649755804
-0.31695531649755804
-0.3108008443325483
-0.32310978866254003
-0.3292642608275498
-0.32310978866254003
-0.32310978866254003
-0.30464637216753854
-0.30464637216753854
-0.32310978866254003
-0.3292642608275498
-0.31695531649755804
-0.31695531649755804
-0.32310978866254003
-0.32310978866254003
-0.31695531649755804
-0.3108008443325483
-0.29233742783754685
-0.29233742783754685
-0.30464637216753854
-0.30464637216753854
-0.30464637216753854
-0.31695531649755804
-0.3108008443325483
-0.3108008443325483
-0.32310978866254003
-0.3292642608275498
-0.31695531649755804
-0.32310978866254003
-0.33541873299255964
-0.33541873299255964
-0.3415732051575415
-0.3415732051575415
-0.36619109381755277
-0.3538821494875609
-0.3415732051575415
-0.3292642608275498
-0.32310978866254003
-0.31695531649755804
-0.32310978866254003
-0.33541873299255964
-0.3415732051575415
-0.34772767732255133
-0.33541873299255964
-0.3292642608275498
-0.33541873299255964
-0.3292642608275498
-0.3292642608275498
-0.31695531649755804
-0.31695531649755804
-0.28618295567253704
-0.24925612268253405
-0.2246382340225228
-0.18155692886753785
-0.13232115154751534
-0.11385773505251384
-0.1692479845375183
-0.2800284835075273
-0.4154268711375475
-0.5015894814475731
-0.5262073701075842
-0.5262073701075842
-0.4892805371175811
-0.44619923196256844
-0.42158134330255725
-0.3846545103125543
-0.3723455659825625
-0.36619109381755277
-0.37850003814754446
-0.37850003814754446
-0.3723455659825625
-0.360036621652543
-0.360036621652543
-0.3538821494875609
-0.33541873299255964
-0.3292642608275498
-0.3292642608275498
-0.3415732051575415
-0.34772767732255133
-0.34772767732255133
-0.3538821494875609
-0.34772767732255133
-0.34772767732255133
-0.3538821494875609
-0.3538821494875609
-0.360036621652543
-0.360036621652543
-0.36619109381755277
-0.34772767732255133
-0.34772767732255133
-0.34772767732255133
-0.3538821494875609
-0.3538821494875609
-0.3415732051575415
-0.3415732051575415
-0.3292642608275498
-0.33541873299255964
-0.33541873299255964
-0.33541873299255964
-0.3415732051575415
-0.34772767732255133
-0.360036621652543
-0.3538821494875609
-0.34772767732255133
-0.31695531649755804
-0.29233742783754685
-0.30464637216753854
-0.30464637216753854
-0.2984919000025288
-0.2738740113425453
-0.2738740113425453
-0.2738740113425453
-0.26771953917753555
-0.26156506701252585
-0.26771953917753555
-0.2554105948475438
-0.24925612268253405
-0.24925612268253405
-0.2554105948475438
-0.26156506701252585
-0.26156506701252585
-0.26156506701252585
-0.26156506701252585
-0.2738740113425453
-0.26771953917753555
-0.26156506701252585
-0.26156506701252585
-0.26771953917753555
-0.26771953917753555
-0.28618295567253704
-0.2984919000025288
-0.32310978866254003
-0.3292642608275498
-0.33541873299255964
-0.3415732051575415
-0.33541873299255964
-0.3415732051575415
-0.3415732051575415
-0.3538821494875609
-0.36619109381755277
-0.37850003814754446
-0.3846545103125543
-0.37850003814754446
-0.37850003814754446
-0.390808982477564
-0.37850003814754446
-0.396963454642546
-0.396963454642546
-0.390808982477564
-0.390808982477564
-0.37850003814754446
-0.3723455659825625
-0.390808982477564
-0.40311792680755576
-0.4154268711375475
-0.433890287632549
-0.433890287632549
-0.427735815467567
-0.427735815467567
-0.433890287632549
-0.433890287632549
-0.4523537041275505
-0.4523537041275505
-0.4523537041275505
-0.4585081762925601
-0.46466264845757
-0.4585081762925601
-0.44619923196256844
-0.4400447597975588
-0.4523537041275505
-0.4708171206225797
-0.46466264845757
-0.4708171206225797
-0.4708171206225797
-0.4585081762925601
-0.4523537041275505
-0.4400447597975588
-0.433890287632549
-0.42158134330255725
-0.427735815467567
-0.427735815467567
-0.433890287632549
-0.4400447597975588
-0.433890287632549
-0.427735815467567
-0.427735815467567
-0.427735815467567
-0.4154268711375475
-0.4092723989725655
-0.427735815467567
-0.433890287632549
-0.4154268711375475
-0.40311792680755576
-0.40311792680755576
-0.390808982477564
-0.390808982477564
-0.40311792680755576
-0.390808982477564
-0.396963454642546
-0.390808982477564
-0.390808982477564
-0.390808982477564
-0.390808982477564
-0.3723455659825625
-0.37850003814754446
-0.37850003814754446
-0.37850003814754446
-0.360036621652543
-0.3846545103125543
-0.40311792680755576
-0.390808982477564
-0.36619109381755277
-0.360036621652543
-0.34772767732255133
-0.34772767732255133
-0.34772767732255133
-0.33541873299255964
-0.3415732051575415
-0.33541873299255964
-0.33541873299255964
-0.3292642608275498
-0.33541873299255964
-0.33541873299255964
-0.3108008443325483
-0.3108008443325483
-0.3292642608275498
-0.3415732051575415
-0.3538821494875609
-0.3723455659825625
-0.36619109381755277
-0.36619109381755277
-0.3723455659825625
-0.36619109381755277
-0.3846545103125543
-0.4154268711375475
-0.433890287632549
-0.4400447597975588
-0.4092723989725655
-0.36619109381755277
-0.36619109381755277
-0.3723455659825625
-0.36619109381755277
-0.36619109381755277
-0.360036621652543
-0.360036621652543
-0.3723455659825625
-0.37850003814754446
-0.3846545103125543
-0.396963454642546
-0.40311792680755576
-0.390808982477564
-0.37850003814754446
-0.360036621652543
-0.360036621652543
-0.36619109381755277
-0.37850003814754446
-0.360036621652543
-0.3538821494875609
-0.3538821494875609
-0.3723455659825625
-0.34772767732255133
-0.3415732051575415
-0.33541873299255964
-0.3415732051575415
-0.3415732051575415
-0.34772767732255133
-0.34772767732255133
-0.3538821494875609
-0.3538821494875609
-0.33541873299255964
-0.29233742783754685
-0.26156506701252585
-0.2246382340225228
-0.17540245670252808
-0.13232115154751534
-0.1384756237125251
-0.1938658731975296
-0.32310978866254003
-0.4585081762925601
-0.5138984257775646
-0.5323618422725662
-0.5200528979425745
-0.4892805371175811
-0.47697159278756174
-0.4400447597975588
-0.40311792680755576
-0.37850003814754446
-0.36619109381755277
-0.37850003814754446
-0.40311792680755576
-0.396963454642546
-0.3846545103125543
-0.36619109381755277
-0.3415732051575415
-0.3292642608275498
-0.3292642608275498
-0.34772767732255133
-0.36619109381755277
-0.3723455659825625
-0.3538821494875609
-0.34772767732255133
-0.34772767732255133
-0.3415732051575415
-0.33541873299255964
-0.33541873299255964
-0.3292642608275498
-0.3292642608275498
-0.32310978866254003
-0.32310978866254003
-0.3415732051575415
-0.3415732051575415
-0.3292642608275498
-0.3108008443325483
-0.3108008443325483
-0.31695531649755804
-0.30464637216753854
-0.29233742783754685
-0.2984919000025288
-0.2984919000025288
-0.29233742783754685
-0.26771953917753555
-0.2738740113425453
-0.26771953917753555
-0.26771953917753555
-0.2738740113425453
-0.2738740113425453
-0.26771953917753555
-0.24925612268253405
-0.23079270618753256
-0.21848376185754081
-0.23079270618753256
-0.21232928969253104
-0.20002034536253932
-0.21232928969253104
-0.21232928969253104
-0.21848376185754081
-0.2246382340225228
-0.2246382340225228
-0.20617481752752131
-0.20002034536253932
-0.18155692886753785
-0.17540245670252808
-0.18155692886753785
-0.1938658731975296
-0.20002034536253932
-0.20002034536253932
-0.1938658731975296
-0.18771140103251985
-0.1938658731975296
-0.21232928969253104
-0.2246382340225228
-0.23079270618753256
-0.26156506701252585
-0.26156506701252585
-0.2554105948475438
-0.26771953917753555
-0.2800284835075273
-0.29233742783754685
-0.28618295567253704
-0.28618295567253704
-0.29233742783754685
-0.26771953917753555
-0.26156506701252585
-0.26771953917753555
-0.2738740113425453
-0.29233742783754685
-0.29233742783754685
-0.2738740113425453
-0.2738740113425453
-0.26156506701252585
-0.26771953917753555
-0.26771953917753555
-0.26771953917753555
-0.2738740113425453
-0.28618295567253704
-0.28618295567253704
-0.28618295567253704
-0.28618295567253704
-0.29233742783754685
-0.29233742783754685
-0.28618295567253704
-0.29233742783754685
-0.29233742783754685
-0.2984919000025288
-0.30464637216753854
-0.31695531649755804
-0.30464637216753854
-0.31695531649755804
-0.31695531649755804
-0.33541873299255964
-0.33541873299255964
-0.3292642608275498
-0.3292642608275498
-0.3415732051575415
-0.3415732051575415
-0.3292642608275498
-0.2984919000025288
-0.28618295567253704
-0.29233742783754685
-0.2984919000025288
-0.2984919000025288
-0.2984919000025288
-0.31695531649755804
-0.32310978866254003
-0.32310978866254003
-0.32310978866254003
-0.3415732051575415
-0.31695531649755804
-0.31695531649755804
-0.3538821494875609
-0.3538821494875609
-0.3415732051575415
-0.33541873299255964
-0.3292642608275498
-0.33541873299255964
-0.3292642608275498
-0.3415732051575415
-0.33541873299255964
-0.33541873299255964
-0.33541873299255964
-0.31695531649755804
-0.30464637216753854
-0.29233742783754685
-0.29233742783754685
-0.29233742783754685
-0.29233742783754685
-0.30464637216753854
-0.3108008443325483
-0.30464637216753854
-0.29233742783754685
-0.29233742783754685
-0.30464637216753854
-0.3108008443325483
-0.30464637216753854
-0.2984919000025288
-0.2984919000025288
-0.29233742783754685
-0.30464637216753854
-0.29233742783754685
-0.29233742783754685
-0.29233742783754685
-0.29233742783754685
-0.2800284835075273
-0.2800284835075273
-0.29233742783754685
-0.2984919000025288
-0.2984919000025288
-0.2984919000025288
-0.2800284835075273
-0.28618295567253704
-0.30464637216753854
-0.28618295567253704
-0.2738740113425453
-0.26156506701252585
-0.26771953917753555
-0.2800284835075273
-0.2738740113425453
-0.2738740113425453
-0.2738740113425453
-0.2800284835075273
-0.29233742783754685
-0.29233742783754685
-0.30464637216753854
-0.2984919000025288
-0.28618295567253704
-0.26156506701252585
-0.2554105948475438
-0.26771953917753555
-0.2738740113425453
-0.2800284835075273
-0.2738740113425453
-0.26771953917753555
-0.26156506701252585
-0.26771953917753555
-0.26771953917753555
-0.26771953917753555
-0.26771953917753555
-0.2554105948475438
-0.24925612268253405
-0.2431016505175243
-0.24925612268253405
-0.24925612268253405
-0.2554105948475438
-0.26156506701252585
-0.2369471783525424
-0.21848376185754081
-0.18155692886753785
-0.15078456804251686
-0.10770326288750408
-0.05231301340249961
-0.009231708247514623
-0.033849596907498114
-0.1015487907225221
-0.2246382340225228
-0.360036621652543
-0.4154268711375475
-0.42158134330255725
-0.390808982477564
-0.36619109381755277
-0.3415732051575415
-0.31695531649755804
-0.2984919000025288
-0.28618295567253704
-0.2738740113425453
-0.26771953917753555
-0.26156506701252585
-0.24925612268253405
-0.24925612268253405
-0.24925612268253405
-0.26156506701252585
-0.26156506701252585
-0.2738740113425453
-0.2738740113425453
-0.2800284835075273
-0.2800284835075273
-0.2738740113425453
-0.2800284835075273
-0.2800284835075273
-0.2738740113425453
-0.26156506701252585
-0.26771953917753555
-0.26156506701252585
-0.2554105948475438
-0.2431016505175243
-0.2369471783525424
-0.2369471783525424
-0.2431016505175243
-0.2554105948475438
-0.26771953917753555
-0.26771953917753555
-0.26771953917753555
-0.26771953917753555
-0.26156506701252585
-0.26771953917753555
-0.26156506701252585
-0.24925612268253405
-0.2431016505175243
-0.2431016505175243
-0.2431016505175243
-0.23079270618753256
-0.2431016505175243
-0.2431016505175243
-0.2369471783525424
-0.2369471783525424
-0.21232928969253104
-0.1938658731975296
-0.20002034536253932
-0.20002034536253932
-0.1938658731975296
-0.18771140103251985
-0.18771140103251985
-0.18771140103251985
-0.17540245670252808
-0.17540245670252808
-0.17540245670252808
-0.1692479845375183
-0.1692479845375183
-0.18155692886753785
-0.1938658731975296
-0.1938658731975296
-0.1938658731975296
-0.18771140103251985
-0.20002034536253932
-0.2246382340225228
-0.2369471783525424
-0.23079270618753256
-0.23079270618753256
-0.24925612268253405
-0.2431016505175243
-0.24925612268253405
-0.2554105948475438
-0.2800284835075273
-0.29233742783754685
-0.2984919000025288
-0.29233742783754685
-0.2800284835075273
-0.2800284835075273
-0.29233742783754685
-0.30464637216753854
-0.3108008443325483
-0.3108008443325483
-0.29233742783754685
-0.28618295567253704
-0.28618295567253704
-0.28618295567253704
-0.2800284835075273
-0.2738740113425453
-0.2800284835075273
-0.29233742783754685
-0.30464637216753854
-0.29233742783754685
-0.2984919000025288
-0.2800284835075273
-0.26771953917753555
-0.26771953917753555
-0.2800284835075273
-0.2800284835075273
-0.28618295567253704
-0.28618295567253704
-0.2984919000025288
-0.2984919000025288
-0.2984919000025288
-0.2738740113425453
-0.2738740113425453
-0.2800284835075273
-0.28618295567253704
-0.2800284835075273
-0.2738740113425453
-0.28618295567253704
-0.2800284835075273
-0.28618295567253704
-0.2738740113425453
-0.26771953917753555
-0.26771953917753555
-0.26156506701252585
-0.26156506701252585
-0.2738740113425453
-0.29233742783754685
-0.30464637216753854
-0.29233742783754685
-0.2984919000025288
-0.29233742783754685
-0.2984919000025288
-0.2984919000025288
-0.30464637216753854
-0.3108008443325483
-0.31695531649755804
-0.31695531649755804
-0.31695531649755804
-0.31695531649755804
-0.3292642608275498
-0.32310978866254003
-0.3108008443325483
-0.2984919000025288
-0.30464637216753854
-0.3108008443325483
-0.3108008443325483
-0.3292642608275498
-0.3292642608275498
-0.3292642608275498
-0.3415732051575415
-0.3415732051575415
-0.33541873299255964
-0.33541873299255964
-0.33541873299255964
-0.3292642608275498
-0.33541873299255964
-0.3292642608275498
-0.32310978866254003
-0.3292642608275498
-0.3292642608275498
-0.31695531649755804
-0.32310978866254003
-0.32310978866254003
-0.3292642608275498
-0.3292642608275498
-0.33541873299255964
-0.33541873299255964
-0.3292642608275498
-0.31695531649755804
-0.31695531649755804
-0.32310978866254003
-0.31695531649755804
-0.3108008443325483
-0.2984919000025288
-0.3108008443325483
-0.31695531649755804
-0.32310978866254003
-0.33541873299255964
-0.3415732051575415
-0.33541873299255964
-0.3415732051575415
-0.34772767732255133
-0.360036621652543
-0.3538821494875609
-0.3538821494875609
-0.34772767732255133
-0.3538821494875609
-0.360036621652543
-0.34772767732255133
-0.3415732051575415
-0.3538821494875609
-0.34772767732255133
-0.33541873299255964
-0.3292642608275498
-0.33541873299255964
-0.3415732051575415
-0.3292642608275498
-0.31695531649755804
-0.29233742783754685
-0.2554105948475438
-0.21232928969253104
-0.16309351237253633
-0.1015487907225221
-0.06462195773251911
-0.08923984639250257
-0.1692479845375183
-0.2984919000025288
-0.4092723989725655
-0.4400447597975588
-0.44619923196256844
-0.4523537041275505
-0.4154268711375475
-0.3846545103125543
-0.3538821494875609
-0.32310978866254003
-0.30464637216753854
-0.28618295567253704
-0.2738740113425453
-0.2738740113425453
-0.2984919000025288
-0.31695531649755804
-0.33541873299255964
-0.3292642608275498
-0.30464637216753854
-0.2800284835075273
-0.28618295567253704
-0.2738740113425453
-0.2800284835075273
-0.2800284835075273
-0.30464637216753854
-0.29233742783754685
-0.2738740113425453
-0.2738740113425453
-0.2984919000025288
-0.2984919000025288
-0.2800284835075273
-0.2738740113425453
-0.26771953917753555
-0.26156506701252585
-0.26156506701252585
-0.24925612268253405
-0.26156506701252585
-0.30464637216753854
-0.31695531649755804
-0.3108008443325483
-0.3292642608275498
-0.3108008443325483
-0.2984919000025288
-0.32310978866254003
-0.3292642608275498
-0.3538821494875609
-0.3415732051575415
-0.32310978866254003
-0.33541873299255964
-0.33541873299255964
-0.33541873299255964
-0.33541873299255964
-0.33541873299255964
-0.3292642608275498
-0.32310978866254003
-0.32310978866254003
-0.2738740113425453
-0.24925612268253405
-0.2369471783525424
-0.2431016505175243
-0.2369471783525424
-0.21848376185754081
-0.21232928969253104
-0.21848376185754081
-0.21848376185754081
-0.20617481752752131
-0.1938658731975296
-0.21232928969253104
-0.2246382340225228
-0.23079270618753256
-0.2246382340225228
-0.2246382340225228
-0.2431016505175243
-0.2554105948475438
-0.26771953917753555
-0.2800284835075273
-0.28618295567253704
-0.2738740113425453
-0.2984919000025288
-0.31695531649755804
-0.3415732051575415
-0.3538821494875609
-0.33541873299255964
-0.34772767732255133
-0.3538821494875609
-0.360036621652543
-0.34772767732255133
-0.34772767732255133
-0.3415732051575415
-0.3292642608275498
-0.3292642608275498
-0.3292642608275498
-0.31695531649755804
-0.32310978866254003
-0.32310978866254003
-0.3292642608275498
-0.32310978866254003
-0.33541873299255964
-0.33541873299255964
-0.3415732051575415
-0.3538821494875609
-0.34772767732255133
-0.34772767732255133
-0.34772767732255133
-0.3415732051575415
-0.3415732051575415
-0.3415732051575415
-0.33541873299255964
-0.3415732051575415
-0.3415732051575415
-0.3415732051575415
-0.3415732051575415
-0.3292642608275498
-0.31695531649755804
-0.32310978866254003
-0.3292642608275498
-0.3292642608275498
-0.31695531649755804
-0.32310978866254003
-0.31695531649755804
-0.32310978866254003
-0.33541873299255964
-0.32310978866254003
-0.31695531649755804
-0.31695531649755804
-0.31695531649755804
-0.3108008443325483
-0.3292642608275498
-0.32310978866254003
-0.32310978866254003
-0.3108008443325483
-0.30464637216753854
-0.3292642608275498
-0.33541873299255964
-0.3292642608275498
-0.3292642608275498
-0.32310978866254003
-0.3292642608275498
-0.3415732051575415
-0.34772767732255133
-0.33541873299255964
-0.3292642608275498
-0.3292642608275498
-0.33541873299255964
-0.3415732051575415
-0.34772767732255133
-0.3292642608275498
-0.32310978866254003
-0.32310978866254003
-0.32310978866254003
-0.3292642608275498
-0.3415732051575415
-0.3415732051575415
-0.34772767732255133
-0.3538821494875609
-0.3415732051575415
-0.32310978866254003
-0.31695531649755804
-0.31695531649755804
-0.31695531649755804
-0.3292642608275498
-0.33541873299255964
-0.3292642608275498
-0.3108008443325483
-0.3108008443325483
-0.3108008443325483
-0.3108008443325483
-0.31695531649755804
-0.30464637216753854
-0.3108008443325483
-0.3292642608275498
-0.3292642608275498
-0.33541873299255964
-0.34772767732255133
-0.3538821494875609
-0.3538821494875609
-0.33541873299255964
-0.3108008443325483
-0.3108008443325483
-0.30464637216753854
-0.32310978866254003
-0.33541873299255964
-0.33541873299255964
-0.33541873299255964
-0.3538821494875609
-0.360036621652543
-0.34772767732255133
-0.34772767732255133
-0.360036621652543
-0.3723455659825625
-0.360036621652543
-0.3538821494875609
-0.360036621652543
-0.360036621652543
-0.360036621652543
-0.36619109381755277
-0.36619109381755277
-0.3723455659825625
-0.36619109381755277
-0.3538821494875609
-0.36619109381755277
-0.360036621652543
-0.3538821494875609
-0.3538821494875609
-0.36619109381755277
-0.360036621652543
-0.3538821494875609
-0.3538821494875609
-0.360036621652543
-0.33541873299255964
-0.2984919000025288
-0.2369471783525424
-0.21232928969253104
-0.1692479845375183
-0.11385773505251384
-0.08923984639250257
-0.14463009587750708
-0.2738740113425453
-0.4154268711375475
-0.4892805371175811
-0.5015894814475731
-0.49543500928256323
-0.4831260649525715
-0.44619923196256844
-0.4154268711375475
-0.37850003814754446
-0.360036621652543
-0.3415732051575415
-0.3415732051575415
-0.33541873299255964
-0.32310978866254003
-0.3108008443325483
-0.32310978866254003
-0.3292642608275498
-0.30464637216753854
-0.3108008443325483
-0.2984919000025288
-0.3108008443325483
-0.30464637216753854
-0.29233742783754685
-0.30464637216753854
-0.3292642608275498
-0.3108008443325483
-0.3108008443325483
-0.31695531649755804
-0.2984919000025288
-0.2800284835075273
-0.2738740113425453
-0.26771953917753555
-0.2554105948475438
-0.2554105948475438
-0.26156506701252585
-0.24925612268253405
-0.2431016505175243
-0.2431016505175243
-0.24925612268253405
-0.26156506701252585
-0.26156506701252585
-0.26771953917753555
-0.26771953917753555
-0.2431016505175243
-0.23079270618753256
-0.2246382340225228
-0.21848376185754081
-0.23079270618753256
-0.2369471783525424
-0.2246382340225228
-0.21848376185754081
-0.21848376185754081
-0.2246382340225228
-0.21848376185754081
-0.18771140103251985
-0.18771140103251985
-0.20002034536253932
-0.21232928969253104
-0.18771140103251985
-0.15693904020752658
-0.15078456804251686
-0.15078456804251686
-0.15078456804251686
-0.15078456804251686
-0.14463009587750708
-0.1384756237125251
-0.14463009587750708
-0.15078456804251686
-0.15078456804251686
-0.16309351237253633
-0.17540245670252808
-0.18155692886753785
-0.18771140103251985
-0.18155692886753785
-0.1938658731975296
-0.21232928969253104
-0.21848376185754081
-0.2369471783525424
-0.2554105948475438
-0.2431016505175243
-0.2554105948475438
-0.26771953917753555
-0.24925612268253405
-0.26156506701252585
-0.2800284835075273
-0.28618295567253704
-0.2984919000025288
-0.3108008443325483
-0.31695531649755804
-0.31695531649755804
-0.33541873299255964
-0.3415732051575415
-0.3415732051575415
-0.3538821494875609
-0.3538821494875609
-0.34772767732255133
-0.3415732051575415
-0.3415732051575415
-0.34772767732255133
-0.3415732051575415
-0.3292642608275498
-0.3292642608275498
-0.3415732051575415
-0.3415732051575415
-0.3292642608275498
-0.33541873299255964
-0.3292642608275498
-0.33541873299255964
-0.3292642608275498
-0.3415732051575415
-0.34772767732255133
-0.360036621652543
-0.360036621652543
-0.34772767732255133
-0.3292642608275498
-0.31695531649755804
-0.31695531649755804
-0.3108008443325483
-0.30464637216753854
-0.30464637216753854
-0.31695531649755804
-0.31695531649755804
-0.2984919000025288
-0.2984919000025288
-0.2984919000025288
-0.3108008443325483
-0.31695531649755804
-0.3108008443325483
-0.3108008443325483
-0.32310978866254003
-0.31695531649755804
-0.32310978866254003
-0.32310978866254003
-0.32310978866254003
-0.31695531649755804
-0.32310978866254003
-0.3292642608275498
-0.34772767732255133
-0.34772767732255133
-0.34772767732255133
-0.360036621652543
-0.34772767732255133
-0.3292642608275498
-0.3292642608275498
-0.33541873299255964
-0.33541873299255964
-0.33541873299255964
-0.3415732051575415
-0.33541873299255964
-0.33541873299255964
-0.33541873299255964
-0.33541873299255964
-0.3292642608275498
-0.31695531649755804
-0.31695531649755804
-0.31695531649755804
-0.32310978866254003
-0.32310978866254003
-0.32310978866254003
-0.3108008443325483
-0.30464637216753854
-0.30464637216753854
-0.3108008443325483
-0.3108008443325483
-0.31695531649755804
-0.3108008443325483
-0.32310978866254003
-0.30464637216753854
-0.2984919000025288
-0.2984919000025288
-0.31695531649755804
-0.3292642608275498
-0.3108008443325483
-0.2984919000025288
-0.29233742783754685
-0.2984919000025288
-0.2984919000025288
-0.2984919000025288
-0.2984919000025288
-0.28618295567253704
-0.28618295567253704
-0.2738740113425453
-0.2800284835075273
-0.2800284835075273
-0.2800284835075273
-0.2800284835075273
-0.29233742783754685
-0.29233742783754685
-0.2984919000025288
-0.31695531649755804
-0.3292642608275498
-0.32310978866254003
-0.31695531649755804
-0.3292642608275498
-0.33541873299255964
-0.3292642608275498
-0.3415732051575415
-0.3292642608275498
-0.3108008443325483
-0.3108008443325483
-0.3108008443325483
-0.30464637216753854
-0.31695531649755804
-0.32310978866254003
-0.32310978866254003
-0.32310978866254003
-0.32310978866254003
-0.31695531649755804
-0.32310978866254003
-0.32310978866254003
-0.32310978866254003
-0.32310978866254003
-0.31695531649755804
-0.30464637216753854
-0.26156506701252585
-0.21232928969253104
-0.18771140103251985
-0.15693904020752658
-0.13232115154751534
-0.13232115154751534
-0.20002034536253932
-0.32310978866254003
-0.433890287632549
-0.49543500928256323
-0.4892805371175811
-0.47697159278756174
-0.42158134330255725
-0.37850003814754446
-0.360036621652543
-0.34772767732255133
-0.3415732051575415
-0.3292642608275498
-0.30464637216753854
-0.30464637216753854
-0.30464637216753854
-0.29233742783754685
-0.2984919000025288
-0.29233742783754685
-0.30464637216753854
-0.2984919000025288
-0.2984919000025288
-0.30464637216753854
-0.30464637216753854
-0.3108008443325483
-0.2984919000025288
-0.3108008443325483
-0.3108008443325483
-0.3108008443325483
-0.3108008443325483
-0.3108008443325483
-0.3108008443325483
-0.31695531649755804
-0.30464637216753854
-0.3108008443325483
-0.31695531649755804
-0.31695531649755804
-0.31695531649755804
-0.31695531649755804
-0.31695531649755804
-0.3108008443325483
-0.31695531649755804
-0.31695531649755804
-0.30464637216753854
-0.30464637216753854
-0.31695531649755804
-0.3108008443325483
-0.3108008443325483
-0.3108008443325483
-0.31695531649755804
-0.3108008443325483
-0.3108008443325483
-0.31695531649755804
-0.31695531649755804
-0.31695531649755804
-0.32310978866254003
-0.3292642608275498
-0.30464637216753854
-0.28618295567253704
-0.2800284835075273
-0.2800284835075273
-0.26771953917753555
-0.26156506701252585
-0.2738740113425453
-0.26156506701252585
-0.2554105948475438
-0.24925612268253405
-0.2431016505175243
-0.24925612268253405
-0.26156506701252585
-0.26156506701252585
-0.2554105948475438
-0.26156506701252585
-0.2554105948475438
-0.2738740113425453
-0.2800284835075273
-0.2984919000025288
-0.3108008443325483
-0.30464637216753854
-0.3108008443325483
-0.3108008443325483
-0.32310978866254003
-0.34772767732255133
-0.34772767732255133
-0.33541873299255964
-0.33541873299255964
-0.3538821494875609
-0.3538821494875609
-0.34772767732255133
-0.33541873299255964
-0.3415732051575415
-0.3292642608275498
-0.3292642608275498
-0.3292642608275498
-0.3108008443325483
-0.2984919000025288
-0.2984919000025288
-0.29233742783754685
-0.26156506701252585
-0.26156506701252585
-0.2800284835075273
-0.29233742783754685
-0.28618295567253704
-0.26771953917753555
-0.2800284835075273
-0.28618295567253704
-0.2738740113425453
-0.2738740113425453
-0.29233742783754685
-0.29233742783754685
-0.3108008443325483
-0.3292642608275498
-0.3415732051575415
-0.34772767732255133
-0.3538821494875609
-0.36619109381755277
-0.3415732051575415
-0.32310978866254003
-0.33541873299255964
-0.3415732051575415
-0.3415732051575415
-0.3415732051575415
-0.36619109381755277
-0.37850003814754446
-0.37850003814754446
-0.360036621652543
-0.34772767732255133
-0.360036621652543
-0.3846545103125543
-0.3538821494875609
-0.3538821494875609
-0.3723455659825625
-0.36619109381755277
-0.3538821494875609
-0.3723455659825625
-0.36619109381755277
-0.3723455659825625
-0.3723455659825625
-0.36619109381755277
-0.3538821494875609
-0.360036621652543
-0.3723455659825625
-0.36619109381755277
-0.36619109381755277
-0.3723455659825625
-0.37850003814754446
-0.36619109381755277
-0.3538821494875609
-0.360036621652543
-0.3723455659825625
-0.3723455659825625
-0.37850003814754446
-0.3846545103125543
-0.3846545103125543
-0.390808982477564
-0.396963454642546
-0.4154268711375475
-0.396963454642546
-0.390808982477564
-0.390808982477564
-0.40311792680755576
-0.396963454642546
-0.40311792680755576
-0.396963454642546
-0.4092723989725655
-0.396963454642546
-0.40311792680755576
-0.396963454642546
-0.390808982477564
-0.3846545103125543
-0.3846545103125543
-0.390808982477564
-0.3846545103125543
-0.37850003814754446
-0.3846545103125543
-0.390808982477564
-0.40311792680755576
-0.40311792680755576
-0.396963454642546
-0.3723455659825625
-0.360036621652543
-0.36619109381755277
-0.360036621652543
-0.360036621652543
-0.3538821494875609
-0.34772767732255133
-0.3415732051575415
-0.3415732051575415
-0.3415732051575415
-0.3538821494875609
-0.3538821494875609
-0.3723455659825625
-0.3723455659825625
-0.3846545103125543
-0.396963454642546
-0.396963454642546
-0.4092723989725655
-0.4092723989725655
-0.4154268711375475
-0.4154268711375475
-0.4154268711375475
-0.4092723989725655
-0.40311792680755576
-0.42158134330255725
-0.4154268711375475
-0.396963454642546
-0.3723455659825625
-0.3538821494875609
-0.3538821494875609
-0.33541873299255964
-0.32310978866254003
-0.30464637216753854
-0.2800284835075273
-0.2738740113425453
-0.26156506701252585
-0.2554105948475438
-0.2369471783525424
-0.20002034536253932
-0.16309351237253633
-0.11385773505251384
-0.07693090206251085
-0.02769512474251612
0.02769512474251612
0.07693090206251085
0.05846748556750937
-0.033849596907498114
-0.18155692886753785
-0.30464637216753854
-0.3292642608275498
-0.32310978866254003
-0.2984919000025288
-0.26156506701252585
-0.2246382340225228
-0.17540245670252808
-0.14463009587750708
-0.11385773505251384
-0.0707764298975011
-0.04615854123751762
-0.02769512474251612
-0.02154065257750637
-0.009231708247514623
-0.003077236082504875
-0.01538618041249662
-0.040004069072507864
-0.08308537422752059
-0.1015487907225221
-0.09539431855751236
-0.09539431855751236
-0.08923984639250257
-0.08923984639250257
-0.10770326288750408
-0.1261666793825056
-0.1015487907225221
-0.1015487907225221
-0.11385773505251384
-0.13232115154751534
-0.13232115154751534
-0.12001220721752358
-0.10770326288750408
-0.08308537422752059
-0.06462195773251911
-0.0707764298975011
-0.040004069072507864
-0.033849596907498114
-0.033849596907498114
-0.05231301340249961
-0.05846748556750937
-0.04615854123751762
-0.033849596907498114
-0.02769512474251612
-0.02154065257750637
-0.01538618041249662
-0.02769512474251612
-0.033849596907498114
-0.05231301340249961
-0.06462195773251911
-0.0707764298975011
-0.06462195773251911
-0.07693090206251085
-0.07693090206251085
-0.08923984639250257
-0.08923984639250257
-0.07693090206251085
-0.07693090206251085
-0.0707764298975011
-0.040004069072507864
-0.02769512474251612
-0.01538618041249662
-0.02154065257750637
-0.02154065257750637
-0.033849596907498114
-0.040004069072507864
-0.04615854123751762
-0.04615854123751762
-0.04615854123751762
-0.05231301340249961
-0.04615854123751762
-0.04615854123751762
-0.05231301340249961
-0.07693090206251085
-0.0707764298975011
-0.08923984639250257
-0.1015487907225221
-0.13232115154751534
-0.14463009587750708
-0.15693904020752658
-0.17540245670252808
-0.20002034536253932
-0.20617481752752131
-0.20617481752752131
-0.23079270618753256
-0.2369471783525424
-0.2554105948475438
-0.2738740113425453
-0.2738740113425453
-0.28618295567253704
-0.28618295567253704
-0.28618295567253704
-0.26771953917753555
-0.2738740113425453
-0.2738740113425453
-0.28618295567253704
-0.2800284835075273
-0.28618295567253704
-0.29233742783754685
-0.29233742783754685
-0.31695531649755804
-0.3538821494875609
-0.37850003814754446
-0.37850003814754446
-0.3846545103125543
-0.3723455659825625
-0.390808982477564
-0.3723455659825625
-0.3538821494875609
-0.3538821494875609
-0.360036621652543
-0.3538821494875609
-0.360036621652543
-0.360036621652543
-0.3723455659825625
-0.3846545103125543
-0.37850003814754446
-0.37850003814754446
-0.390808982477564
-0.42158134330255725
-0.427735815467567
-0.433890287632549
-0.47697159278756174
-0.49543500928256323
-0.49543500928256323
-0.5077439536125827
-0.5262073701075842
-0.538516314437576
-0.5446707866025856
-0.538516314437576
-0.5446707866025856
-0.5508252587675677
-0.5631342030975872
-0.575443147427579
-0.5631342030975872
-0.5692886752625692
-0.5569797309325777
-0.5569797309325777
-0.5631342030975872
-0.5631342030975872
-0.5631342030975872
-0.5569797309325777
-0.5446707866025856
-0.538516314437576
-0.5323618422725662
-0.5446707866025856
-0.5446707866025856
-0.5262073701075842
-0.5200528979425745
-0.5015894814475731
-0.49543500928256323
-0.5077439536125827
-0.5200528979425745
-0.5262073701075842
-0.5138984257775646
-0.5138984257775646
-0.5015894814475731
-0.5077439536125827
-0.5077439536125827
-0.5015894814475731
-0.5015894814475731
-0.4892805371175811
-0.4831260649525715
-0.46466264845757
-0.46466264845757
-0.46466264845757
-0.46466264845757
-0.4523537041275505
-0.4585081762925601
-0.4585081762925601
-0.44619923196256844
-0.42158134330255725
-0.42158134330255725
-0.42158134330255725
-0.42158134330255725
-0.427735815467567
-0.4154268711375475
-0.4154268711375475
-0.396963454642546
-0.37850003814754446
-0.360036621652543
-0.3415732051575415
-0.32310978866254003
-0.3108008443325483
-0.30464637216753854
-0.2984919000025288
-0.29233742783754685
-0.28618295567253704
-0.2800284835075273
-0.2800284835075273
-0.26156506701252585
-0.2369471783525424
-0.21232928969253104
-0.1938658731975296
-0.18771140103251985
-0.1692479845375183
-0.15693904020752658
-0.13232115154751534
-0.1261666793825056
-0.13232115154751534
-0.1692479845375183
-0.21848376185754081
-0.26771953917753555
-0.2984919000025288
-0.31695531649755804
-0.33541873299255964
-0.3538821494875609
-0.34772767732255133
-0.3538821494875609
-0.36619109381755277
-0.34772767732255133
-0.34772767732255133
-0.33541873299255964
-0.32310978866254003
-0.2984919000025288
-0.2738740113425453
-0.2554105948475438
-0.2554105948475438
-0.26771953917753555
-0.34772767732255133
-0.46466264845757
-0.5692886752625692
-0.5877520917575707
-0.5815976195925888
-0.5508252587675677
-0.5138984257775646
-0.4831260649525715
-0.4523537041275505
-0.433890287632549
-0.4154268711375475
-0.4154268711375475
-0.4154268711375475
-0.4092723989725655
-0.4092723989725655
-0.396963454642546
-0.396963454642546
-0.396963454642546
-0.40311792680755576
-0.40311792680755576
-0.396963454642546
-0.396963454642546
-0.390808982477564
-0.3723455659825625
-0.36619109381755277
-0.360036621652543
-0.3538821494875609
-0.3538821494875609
-0.3415732051575415
-0.34772767732255133
-0.3538821494875609
-0.34772767732255133
-0.3415732051575415
-0.3415732051575415
-0.34772767732255133
-0.33541873299255964
-0.3415732051575415
-0.34772767732255133
-0.3538821494875609
-0.3415732051575415
-0.3415732051575415
-0.34772767732255133
-0.3538821494875609
-0.34772767732255133
-0.3415732051575415
-0.32310978866254003
-0.30464637216753854
-0.30464637216753854
-0.3108008443325483
-0.31695531649755804
-0.2984919000025288
-0.28618295567253704
-0.29233742783754685
-0.29233742783754685
-0.2984919000025288
-0.29233742783754685
-0.29233742783754685
-0.28618295567253704
-0.2738740113425453
-0.2738740113425453
-0.2800284835075273
-0.26156506701252585
-0.26156506701252585
-0.26156506701252585
-0.26771953917753555
-0.2738740113425453
-0.26771953917753555
-0.26156506701252585
-0.24925612268253405
-0.24925612268253405
-0.26156506701252585
-0.2738740113425453
-0.2738740113425453
-0.28618295567253704
-0.29233742783754685
-0.29233742783754685
-0.30464637216753854
-0.2984919000025288
-0.30464637216753854
-0.31695531649755804
-0.3292642608275498
-0.34772767732255133
-0.34772767732255133
-0.34772767732255133
-0.33541873299255964
-0.33541873299255964
-0.33541873299255964
-0.3292642608275498
-0.33541873299255964
-0.33541873299255964
-0.3415732051575415
-0.34772767732255133
-0.3415732051575415
-0.3415732051575415
-0.360036621652543
-0.34772767732255133
-0.34772767732255133
-0.34772767732255133
-0.3538821494875609
-0.3538821494875609
-0.33541873299255964
-0.3415732051575415
-0.3415732051575415
-0.3415732051575415
-0.3415732051575415
-0.3415732051575415
-0.3538821494875609
-0.34772767732255133
-0.3538821494875609
-0.360036621652543
-0.360036621652543
-0.3538821494875609
-0.3538821494875609
-0.3415732051575415
-0.34772767732255133
-0.34772767732255133
-0.3415732051575415
-0.34772767732255133
-0.3415732051575415
-0.33541873299255964
-0.33541873299255964
-0.34772767732255133
-0.34772767732255133
-0.3538821494875609
-0.360036621652543
-0.360036621652543
-0.36619109381755277
-0.37850003814754446
-0.3846545103125543
-0.37850003814754446
-0.3846545103125543
-0.396963454642546
-0.396963454642546
-0.40311792680755576
-0.390808982477564
-0.390808982477564
-0.3723455659825625
-0.3723455659825625
-0.3723455659825625
-0.36619109381755277
-0.36619109381755277
-0.36619109381755277
-0.37850003814754446
-0.3846545103125543
-0.390808982477564
-0.3846545103125543
-0.3723455659825625
-0.36619109381755277
-0.360036621652543
-0.3538821494875609
-0.36619109381755277
-0.37850003814754446
-0.3723455659825625
-0.3723455659825625
-0.3846545103125543
-0.3846545103125543
-0.3846545103125543
-0.3846545103125543
-0.3846545103125543
-0.390808982477564
-0.3846545103125543
-0.37850003814754446
-0.3846545103125543
-0.390808982477564
-0.396963454642546
-0.3846545103125543
-0.390808982477564
-0.396963454642546
-0.4092723989725655
-0.4092723989725655
-0.4092723989725655
-0.4154268711375475
-0.390808982477564
-0.40311792680755576
-0.4154268711375475
-0.40311792680755576
-0.40311792680755576
-0.396963454642546
-0.40311792680755576
-0.4092723989725655
-0.40311792680755576
-0.390808982477564
-0.3846545103125543
-0.3723455659825625
-0.3538821494875609
-0.3538821494875609
-0.3415732051575415
-0.3538821494875609
-0.3538821494875609
-0.360036621652543
-0.3538821494875609
-0.360036621652543
-0.37850003814754446
-0.390808982477564
-0.390808982477564
-0.396963454642546
-0.3846545103125543
-0.3723455659825625
-0.37850003814754446
-0.3846545103125543
-0.37850003814754446
-0.390808982477564
-0.390808982477564
-0.37850003814754446
-0.390808982477564
-0.390808982477564
-0.37850003814754446
-0.3723455659825625
-0.37850003814754446
-0.390808982477564
-0.390808982477564
-0.390808982477564
-0.390808982477564
-0.37850003814754446
-0.3846545103125543
-0.37850003814754446
-0.34772767732255133
-0.3108008443325483
-0.26771953917753555
-0.2369471783525424
-0.1938658731975296
-0.16309351237253633
-0.18155692886753785
-0.2554105948475438
-0.396963454642546
-0.5138984257775646
-0.5508252587675677
-0.5631342030975872
-0.538516314437576
-0.4892805371175811
-0.4708171206225797
-0.433890287632549
-0.40311792680755576
-0.390808982477564
-0.390808982477564
-0.3846545103125543
-0.390808982477564
-0.390808982477564
-0.37850003814754446
-0.37850003814754446
-0.3723455659825625
-0.3846545103125543
-0.3846545103125543
-0.37850003814754446
-0.37850003814754446
-0.3846545103125543
-0.396963454642546
-0.390808982477564
-0.390808982477564
-0.3846545103125543
-0.3846545103125543
-0.37850003814754446
-0.37850003814754446
-0.37850003814754446
-0.3846545103125543
-0.396963454642546
-0.390808982477564
-0.390808982477564
-0.3846545103125543
-0.3846545103125543
-0.3846545103125543
-0.3846545103125543
-0.3846545103125543
-0.37850003814754446
-0.37850003814754446
-0.390808982477564
-0.390808982477564
-0.37850003814754446
-0.3723455659825625
-0.360036621652543
-0.3538821494875609
-0.34772767732255133
-0.34772767732255133
-0.3415732051575415
-0.33541873299255964
-0.34772767732255133
-0.3538821494875609
-0.34772767732255133
-0.3415732051575415
-0.32310978866254003
-0.3108008443325483
-0.3108008443325483
-0.3108008443325483
-0.31695531649755804
-0.31695531649755804
-0.3108008443325483
-0.2984919000025288
-0.30464637216753854
-0.29233742783754685
-0.29233742783754685
-0.2984919000025288
-0.30464637216753854
-0.3108008443325483
-0.33541873299255964
-0.30464637216753854
-0.30464637216753854
-0.31695531649755804
-0.3292642608275498
-0.34772767732255133
-0.3415732051575415
-0.3538821494875609
-0.390808982477564
-0.3846545103125543
-0.37850003814754446
-0.37850003814754446
-0.37850003814754446
-0.3846545103125543
-0.37850003814754446
-0.3846545103125543
-0.390808982477564
-0.37850003814754446
-0.37850003814754446
-0.3723455659825625
-0.3723455659825625
-0.3723455659825625
-0.3723455659825625
-0.3723455659825625
-0.390808982477564
-0.37850003814754446
-0.37850003814754446
-0.3538821494875609
-0.3538821494875609
-0.34772767732255133
-0.34772767732255133
-0.3292642608275498
-0.32310978866254003
-0.33541873299255964
-0.33541873299255964
-0.33541873299255964
-0.31695531649755804
-0.2984919000025288
-0.30464637216753854
-0.3108008443325483
-0.30464637216753854
-0.2984919000025288
-0.29233742783754685
-0.29233742783754685
-0.29233742783754685
-0.2984919000025288
-0.30464637216753854
-0.30464637216753854
-0.30464637216753854
-0.2984919000025288
-0.32310978866254003
-0.32310978866254003
-0.34772767732255133
-0.3415732051575415
-0.3292642608275498
-0.3292642608275498
-0.31695531649755804
-0.31695531649755804
-0.32310978866254003
-0.3292642608275498
-0.3415732051575415
-0.3538821494875609
-0.3415732051575415
-0.33541873299255964
-0.3292642608275498
-0.33541873299255964
-0.33541873299255964
-0.3108008443325483
-0.3108008443325483
-0.32310978866254003
-0.32310978866254003
-0.3108008443325483
-0.30464637216753854
-0.2984919000025288
-0.3108008443325483
-0.31695531649755804
-0.31695531649755804
-0.3108008443325483
-0.32310978866254003
-0.3538821494875609
-0.34772767732255133
-0.3415732051575415
-0.3415732051575415
-0.34772767732255133
-0.3415732051575415
-0.3292642608275498
-0.31695531649755804
-0.32310978866254003
-0.33541873299255964
-0.33541873299255964
-0.33541873299255964
-0.3415732051575415
-0.33541873299255964
-0.3415732051575415
-0.33541873299255964
-0.33541873299255964
-0.3415732051575415
-0.33541873299255964
-0.33541873299255964
-0.3292642608275498
-0.3415732051575415
-0.33541873299255964
-0.32310978866254003
-0.33541873299255964
-0.34772767732255133
-0.36619109381755277
-0.3723455659825625
-0.3723455659825625
-0.36619109381755277
-0.33541873299255964
-0.32310978866254003
-0.32310978866254003
-0.32310978866254003
-0.30464637216753854
-0.28618295567253704
-0.28618295567253704
-0.2984919000025288
-0.31695531649755804
-0.3292642608275498
-0.33541873299255964
-0.3292642608275498
-0.33541873299255964
-0.3292642608275498
-0.3292642608275498
-0.33541873299255964
-0.3415732051575415
-0.34772767732255133
-0.3723455659825625
-0.396963454642546
-0.3846545103125543
-0.3723455659825625
-0.360036621652543
-0.3538821494875609
-0.3538821494875609
-0.33541873299255964
-0.31695531649755804
-0.32310978866254003
-0.30464637216753854
-0.2800284835075273
-0.24925612268253405
-0.2246382340225228
-0.21232928969253104
-0.20002034536253932
-0.1692479845375183
-0.15078456804251686
-0.13232115154751534
-0.1015487907225221
-0.06462195773251911
-0.040004069072507864
-0.003077236082504875
0.033849596907498114
0.09539431855751236
0.1384756237125251
0.1261666793825056
0.04615854123751762
-0.07693090206251085
-0.20002034536253932
-0.23079270618753256
-0.20617481752752131
-0.16309351237253633
-0.13232115154751534
-0.0707764298975011
-0.033849596907498114
-0.01538618041249662
0.003077236082504875
0.009231708247514623
0.02769512474251612
0.1015487907225221
0.1692479845375183
0.20002034536253932
0.17540245670252808
0.1384756237125251
0.1261666793825056
0.1938658731975296
0.3538821494875609
0.42158134330255725
0.427735815467567
0.427735815467567
0.433890287632549
0.4585081762925601
0.433890287632549
0.4092723989725655
0.433890287632549
0.4585081762925601
0.46466264845757
0.4400447597975588
0.4523537041275505
0.4523537041275505
0.4523537041275505
0.433890287632549
0.4154268711375475
0.427735815467567
0.427735815467567
0.4523537041275505
0.44619923196256844
0.433890287632549
0.433890287632549
0.433890287632549
0.4523537041275505
0.4400447597975588
0.44619923196256844
0.44619923196256844
0.44619923196256844
0.433890287632549
0.4400447597975588
0.49543500928256323
0.6923781185625978
0.7046870628925892
0.6554512855725947
0.3723455659825625
0.32310978866254003
0.4092723989725655
0.40311792680755576
0.396963454642546
0.42158134330255725
0.40311792680755576
0.390808982477564
0.36619109381755277
0.3415732051575415
0.30464637216753854
0.2738740113425453
0.21848376185754081
0.2431016505175243
0.2554105948475438
0.2738740113425453
0.26156506701252585
0.2431016505175243
0.20002034536253932
0.12001220721752358
0.07693090206251085
0.07693090206251085
0.14463009587750708
0.1938658731975296
0.1261666793825056
-0.01538618041249662
-0.1384756237125251
-0.1938658731975296
-0.1692479845375183
-0.2800284835075273
-0.4154268711375475
-0.4831260649525715
-0.5077439536125827
-0.5446707866025856
-0.5631342030975872
-0.575443147427579
-0.5569797309325777
-0.538516314437576
-0.5569797309325777
-0.5631342030975872
-0.5631342030975872
-0.5569797309325777
-0.5631342030975872
-0.5631342030975872
-0.5446707866025856
-0.4585081762925601
-0.42158134330255725
-0.4831260649525715
-0.5200528979425745
-0.538516314437576
-0.5508252587675677
-0.5446707866025856
-0.5262073701075842
-0.49543500928256323
-0.5015894814475731
-0.5200528979425745
-0.5200528979425745
-0.538516314437576
-0.5446707866025856
-0.5508252587675677
-0.5631342030975872
-0.6000610360875902
-0.6062155082525723
-0.5939065639225805
-0.575443147427579
-0.5692886752625692
-0.5508252587675677
-0.538516314437576
-0.5323618422725662
-0.5262073701075842
-0.5200528979425745
-0.5262073701075842
-0.5508252587675677
-0.5631342030975872
-0.5692886752625692
-0.5877520917575707
-0.5939065639225805
-0.5939065639225805
-0.6000610360875902
-0.5877520917575707
-0.5939065639225805
-0.5939065639225805
-0.5815976195925888
-0.575443147427579
-0.5815976195925888
-0.5815976195925888
-0.5877520917575707
-0.575443147427579
-0.538516314437576
-0.5323618422725662
-0.5446707866025856
-0.5631342030975872
-0.5692886752625692
-0.575443147427579
-0.5877520917575707
-0.6062155082525723
-0.6308333969125834
-0.6554512855725947
-0.6800691742326057
-0.6862236463975879
-0.7046870628925892
-0.7231504793875909
-0.7416138958825924
-0.7723862567076134
-0.7846952010376053
-0.8031586175326066
-0.8093130896976164
-0.8216220340276081
-0.8216220340276081
-0.8216220340276081
-0.8154675618626261
-0.8216220340276081
-0.8093130896976164
-0.8093130896976164
-0.8093130896976164
-0.8093130896976164
-0.7908496732026148
-0.7723862567076134
-0.7662317845426038
-0.7477683680476023
-0.7662317845426038
-0.7846952010376053
-0.7846952010376053
-0.7662317845426038
-0.7723862567076134
-0.7662317845426038
-0.7662317845426038
-0.7477683680476023
-0.7600773123775938
-0.7662317845426038
-0.7723862567076134
-0.7600773123775938
-0.7539228402126119
-0.7662317845426038
-0.7723862567076134
-0.7846952010376053
-0.7662317845426038
-0.7416138958825924
-0.7416138958825924
-0.7354594237176102
-0.7416138958825924
-0.7354594237176102
-0.7293049515526008
-0.7108415350575992
-0.7046870628925892
-0.7108415350575992
-0.7046870628925892
-0.6985325907276074
-0.6677602299025862
-0.6369878690775933
-0.6062155082525723
-0.5569797309325777
-0.5077439536125827
-0.4585081762925601
-0.42158134330255725
-0.433890287632549
-0.5077439536125827
-0.6554512855725947
-0.7846952010376053
-0.8277765061926179
-0.8154675618626261
-0.7846952010376053
-0.7477683680476023
-0.7108415350575992
-0.6739147020675963
-0.6308333969125834
-0.6062155082525723
-0.5815976195925888
-0.5692886752625692
-0.575443147427579
-0.5692886752625692
-0.5815976195925888
-0.5692886752625692
-0.5569797309325777
-0.5446707866025856
-0.5446707866025856
-0.5569797309325777
-0.5446707866025856
-0.5323618422725662
-0.5262073701075842
-0.5262073701075842
-0.5323618422725662
-0.538516314437576
-0.5323618422725662
-0.5200528979425745
-0.5077439536125827
-0.4892805371175811
-0.4892805371175811
-0.4892805371175811
-0.4831260649525715
-0.47697159278756174
-0.4831260649525715
-0.47697159278756174
-0.4708171206225797
-0.4708171206225797
-0.46466264845757
-0.4585081762925601
-0.4523537041275505
-0.4523537041275505
-0.4585081762925601
-0.4585081762925601
-0.4523537041275505
-0.4523537041275505
-0.44619923196256844
-0.4400447597975588
-0.427735815467567
-0.427735815467567
-0.427735815467567
-0.427735815467567
-0.4154268711375475
-0.4154268711375475
-0.4092723989725655
-0.4092723989725655
-0.4092723989725655
-0.396963454642546
-0.396963454642546
-0.37850003814754446
-0.360036621652543
-0.34772767732255133
-0.3538821494875609
-0.360036621652543
-0.34772767732255133
-0.33541873299255964
-0.32310978866254003
-0.31695531649755804
-0.31695531649755804
-0.31695531649755804
-0.3292642608275498
-0.3538821494875609
-0.34772767732255133
-0.360036621652543
-0.37850003814754446
-0.37850003814754446
-0.390808982477564
-0.396963454642546
-0.40311792680755576
-0.4092723989725655
-0.4092723989725655
-0.4154268711375475
-0.4092723989725655
-0.4092723989725655
-0.4154268711375475
-0.42158134330255725
-0.42158134330255725
-0.4154268711375475
-0.4092723989725655
-0.4092723989725655
-0.4154268711375475
-0.4154268711375475
-0.396963454642546
-0.390808982477564
-0.3846545103125543
-0.390808982477564
-0.3846545103125543
-0.396963454642546
-0.390808982477564
-0.3846545103125543
-0.37850003814754446
-0.37850003814754446
-0.37850003814754446
-0.37850003814754446
-0.3846545103125543
-0.396963454642546
-0.4092723989725655
-0.396963454642546
-0.390808982477564
-0.3846545103125543
-0.396963454642546
-0.396963454642546
-0.390808982477564
-0.3846545103125543
-0.37850003814754446
-0.37850003814754446
-0.390808982477564
-0.3846545103125543
-0.3846545103125543
-0.40311792680755576
-0.40311792680755576
-0.4154268711375475
-0.4154268711375475
-0.396963454642546
-0.390808982477564
-0.390808982477564
-0.396963454642546
-0.40311792680755576
-0.4092723989725655
-0.4523537041275505
-0.44619923196256844
-0.433890287632549
-0.427735815467567
-0.42158134330255725
-0.4154268711375475
-0.42158134330255725
-0.427735815467567
-0.427735815467567
-0.42158134330255725
-0.4092723989725655
-0.42158134330255725
-0.427735815467567
-0.4154268711375475
-0.42158134330255725
-0.42158134330255725
-0.427735815467567
-0.433890287632549
-0.433890287632549
-0.427735815467567
-0.433890287632549
-0.427735815467567
-0.433890287632549
-0.4400447597975588
-0.44619923196256844
-0.4523537041275505
-0.42158134330255725
-0.4092723989725655
-0.4092723989725655
-0.4092723989725655
-0.4092723989725655
-0.42158134330255725
-0.427735815467567
-0.4400447597975588
-0.433890287632549
-0.42158134330255725
-0.42158134330255725
-0.4154268711375475
-0.40311792680755576
-0.3846545103125543
-0.390808982477564
-0.396963454642546
-0.390808982477564
-0.390808982477564
-0.390808982477564
-0.3846545103125543
-0.3723455659825625
-0.3723455659825625
-0.36619109381755277
-0.36619109381755277
-0.34772767732255133
-0.3415732051575415
-0.3415732051575415
-0.3415732051575415
-0.3415732051575415
-0.34772767732255133
-0.3538821494875609
-0.34772767732255133
-0.33541873299255964
-0.3292642608275498
-0.3292642608275498
-0.3292642608275498
-0.33541873299255964
-0.3292642608275498
-0.30464637216753854
-0.28618295567253704
-0.2800284835075273
-0.2738740113425453
-0.2800284835075273
-0.26771953917753555
-0.20617481752752131
-0.14463009587750708
-0.09539431855751236
-0.08308537422752059
-0.033849596907498114
0.033849596907498114
0.06462195773251911
0.05231301340249961
-0.05231301340249961
-0.1938658731975296
-0.28618295567253704
-0.30464637216753854
-0.31695531649755804
-0.2800284835075273
-0.21848376185754081
-0.1692479845375183
-0.14463009587750708
-0.1384756237125251
-0.1261666793825056
-0.08923984639250257
-0.05231301340249961
-0.040004069072507864
-0.04615854123751762
-0.05846748556750937
-0.05231301340249961
-0.040004069072507864
-0.033849596907498114
-0.040004069072507864
-0.02769512474251612
-0.02154065257750637
-0.003077236082504875
-0.009231708247514623
-0.01538618041249662
-0.033849596907498114
-0.033849596907498114
-0.04615854123751762
-0.04615854123751762
-0.040004069072507864
-0.06462195773251911
-0.0707764298975011
-0.05846748556750937
-0.05846748556750937
-0.05846748556750937
-0.06462195773251911
-0.07693090206251085
-0.0707764298975011
-0.040004069072507864
0.009231708247514623
0.033849596907498114
0.003077236082504875
-0.02769512474251612
-0.033849596907498114
-0.05231301340249961
-0.0707764298975011
-0.06462195773251911
-0.040004069072507864
-0.033849596907498114
-0.02769512474251612
-0.02769512474251612
-0.01538618041249662
-0.003077236082504875
0.003077236082504875
0.003077236082504875
0.003077236082504875
0.003077236082504875
0.02769512474251612
0.04615854123751762
0.05846748556750937
0.08308537422752059
0.12001220721752358
0.14463009587750708
0.16309351237253633
0.1692479845375183
0.1692479845375183
0.17540245670252808
0.17540245670252808
0.15693904020752658
0.15693904020752658
0.14463009587750708
0.12001220721752358
0.09539431855751236
0.04615854123751762
-0.009231708247514623
-0.05846748556750937
-0.08308537422752059
-0.1015487907225221
-0.12001220721752358
-0.1261666793825056
-0.14463009587750708
-0.15078456804251686
-0.15693904020752658
-0.13232115154751534
-0.12001220721752358
-0.13232115154751534
-0.1384756237125251
-0.1384756237125251
-0.15693904020752658
-0.1938658731975296
-0.23079270618753256
-0.26156506701252585
-0.2800284835075273
-0.28618295567253704
-0.30464637216753854
-0.34772767732255133
-0.396963454642546
-0.44619923196256844
-0.49543500928256323
-0.5323618422725662
-0.5631342030975872
-0.5877520917575707
-0.6062155082525723
-0.6246789247476012
-0.6369878690775933
-0.6554512855725947
-0.6554512855725947
-0.6554512855725947
-0.6431423412426027
-0.6308333969125834
-0.6246789247476012
-0.6246789247476012
-0.6308333969125834
-0.6369878690775933
-0.6308333969125834
-0.6308333969125834
-0.6308333969125834
-0.6431423412426027
-0.6369878690775933
-0.6431423412426027
-0.6369878690775933
-0.6185244525825918
-0.6308333969125834
-0.6246789247476012
-0.6123699804175822
-0.6123699804175822
-0.6246789247476012
-0.6185244525825918
-0.6062155082525723
-0.5939065639225805
-0.5939065639225805
-0.6000610360875902
-0.6000610360875902
-0.6000610360875902
-0.6000610360875902
-0.5877520917575707
-0.5939065639225805
-0.5815976195925888
-0.575443147427579
-0.5815976195925888
-0.575443147427579
-0.575443147427579
-0.5631342030975872
-0.5631342030975872
-0.5446707866025856
-0.5323618422725662
-0.5262073701075842
-0.5446707866025856
-0.5631342030975872
-0.5631342030975872
-0.5569797309325777
-0.5508252587675677
-0.5446707866025856
-0.5262073701075842
-0.5262073701075842
-0.5200528979425745
-0.5200528979425745
-0.5015894814475731
-0.5015894814475731
-0.5015894814475731
-0.5138984257775646
-0.5323618422725662
-0.5262073701075842
-0.5138984257775646
-0.49543500928256323
-0.4831260649525715
-0.4892805371175811
-0.49543500928256323
-0.47697159278756174
-0.4585081762925601
-0.4523537041275505
-0.4523537041275505
-0.44619923196256844
-0.4400447597975588
-0.433890287632549
-0.42158134330255725
-0.427735815467567
-0.433890287632549
-0.4523537041275505
-0.4523537041275505
-0.44619923196256844
-0.4400447597975588
-0.42158134330255725
-0.427735815467567
-0.4523537041275505
-0.4400447597975588
-0.4400447597975588
-0.4400447597975588
-0.4400447597975588
-0.433890287632549
-0.433890287632549
-0.427735815467567
-0.427735815467567
-0.433890287632549
-0.427735815467567
-0.42158134330255725
-0.4092723989725655
-0.396963454642546
-0.3846545103125543
-0.396963454642546
-0.40311792680755576
-0.4092723989725655
-0.40311792680755576
-0.40311792680755576
-0.4092723989725655
-0.4092723989725655
-0.40311792680755576
-0.3846545103125543
-0.3538821494875609
-0.2984919000025288
-0.2554105948475438
-0.21232928969253104
-0.16309351237253633
-0.15693904020752658
-0.21848376185754081
-0.34772767732255133
-0.4892805371175811
-0.5815976195925888
-0.6000610360875902
-0.5877520917575707
-0.5569797309325777
-0.5200528979425745
-0.4831260649525715
-0.433890287632549
-0.4092723989725655
-0.390808982477564
-0.3846545103125543
-0.37850003814754446
-0.37850003814754446
-0.3846545103125543
-0.37850003814754446
-0.3723455659825625
-0.3723455659825625
-0.37850003814754446
-0.3846545103125543
-0.36619109381755277
-0.36619109381755277
-0.3723455659825625
-0.36619109381755277
-0.360036621652543
-0.36619109381755277
-0.36619109381755277
-0.360036621652543
-0.3415732051575415
-0.34772767732255133
-0.34772767732255133
-0.34772767732255133
-0.34772767732255133
-0.34772767732255133
-0.3415732051575415
-0.34772767732255133
-0.3538821494875609
-0.360036621652543
-0.3538821494875609
-0.360036621652543
-0.3538821494875609
-0.36619109381755277
-0.3723455659825625
-0.360036621652543
-0.3415732051575415
-0.33541873299255964
-0.34772767732255133
-0.34772767732255133
-0.3538821494875609
-0.3538821494875609
-0.3538821494875609
-0.3538821494875609
-0.3538821494875609
-0.3415732051575415
-0.32310978866254003
-0.31695531649755804
-0.3292642608275498
-0.32310978866254003
-0.30464637216753854
-0.2984919000025288
-0.30464637216753854
-0.29233742783754685
-0.2800284835075273
-0.2800284835075273
-0.2800284835075273
-0.2800284835075273
-0.29233742783754685
-0.26771953917753555
-0.2738740113425453
-0.2738740113425453
-0.2800284835075273
-0.28618295567253704
-0.29233742783754685
-0.2984919000025288
-0.3415732051575415
-0.3538821494875609
-0.360036621652543
-0.3538821494875609
-0.360036621652543
-0.3723455659825625
-0.3846545103125543
-0.396963454642546
-0.40311792680755576
-0.4154268711375475
-0.4154268711375475
-0.396963454642546
-0.3846545103125543
-0.3723455659825625
-0.36619109381755277
-0.360036621652543
-0.36619109381755277
-0.3723455659825625
-0.37850003814754446
-0.390808982477564
-0.3846545103125543
-0.3846545103125543
-0.3723455659825625
-0.36619109381755277
-0.37850003814754446
-0.3846545103125543
-0.3846545103125543
-0.37850003814754446
-0.37850003814754446
-0.3723455659825625
-0.37850003814754446
-0.36619109381755277
-0.3723455659825625
-0.34772767732255133
-0.34772767732255133
-0.34772767732255133
-0.34772767732255133
-0.3538821494875609
-0.3415732051575415
-0.33541873299255964
-0.3415732051575415
-0.3415732051575415
-0.33541873299255964
-0.32310978866254003
-0.32310978866254003
-0.3108008443325483
-0.31695531649755804
-0.30464637216753854
-0.29233742783754685
-0.2738740113425453
-0.2554105948475438
-0.2554105948475438
-0.2369471783525424
-0.23079270618753256
-0.2431016505175243
-0.24925612268253405
-0.2369471783525424
-0.2431016505175243
-0.24925612268253405
-0.2369471783525424
-0.23079270618753256
-0.21848376185754081
-0.18771140103251985
-0.16309351237253633
-0.15693904020752658
-0.15693904020752658
-0.14463009587750708
-0.1261666793825056
-0.12001220721752358
-0.11385773505251384
-0.1015487907225221
-0.10770326288750408
-0.10770326288750408
-0.1015487907225221
-0.12001220721752358
-0.09539431855751236
-0.05846748556750937
-0.05231301340249961
-0.06462195773251911
-0.08308537422752059
-0.08923984639250257
-0.08923984639250257
-0.07693090206251085
-0.07693090206251085
-0.07693090206251085
-0.06462195773251911
-0.05231301340249961
-0.06462195773251911
-0.06462195773251911
-0.05231301340249961
-0.04615854123751762
-0.04615854123751762
-0.02769512474251612
-0.01538618041249662
-0.003077236082504875
-0.003077236082504875
-0.01538618041249662
0.003077236082504875
-0.003077236082504875
-0.003077236082504875
-0.02769512474251612
-0.040004069072507864
-0.0707764298975011
-0.08923984639250257
-0.1015487907225221
-0.0707764298975011
-0.04615854123751762
-0.003077236082504875
0.003077236082504875
-0.04615854123751762
-0.1015487907225221
-0.12001220721752358
-0.12001220721752358
-0.08923984639250257
-0.1015487907225221
-0.1015487907225221
-0.10770326288750408
-0.11385773505251384
-0.11385773505251384
-0.1261666793825056
-0.1384756237125251
-0.13232115154751534
-0.1261666793825056
-0.12001220721752358
-0.08923984639250257
-0.07693090206251085
-0.07693090206251085
-0.0707764298975011
-0.040004069072507864
-0.003077236082504875
0.01538618041249662
0.02769512474251612
0.04615854123751762
0.08308537422752059
0.08308537422752059
0.1015487907225221
0.1384756237125251
0.11385773505251384
-0.003077236082504875
-0.13232115154751534
-0.24925612268253405
-0.2984919000025288
-0.30464637216753854
-0.28618295567253704
-0.2800284835075273
-0.2554105948475438
-0.2246382340225228
-0.18771140103251985
-0.1692479845375183
-0.17540245670252808
-0.1692479845375183
-0.16309351237253633
-0.15078456804251686
-0.15078456804251686
-0.1384756237125251
-0.14463009587750708
-0.16309351237253633
-0.18155692886753785
-0.20617481752752131
-0.2246382340225228
-0.2246382340225228
-0.20617481752752131
-0.23079270618753256
-0.2554105948475438
-0.2800284835075273
-0.32310978866254003
-0.3415732051575415
-0.360036621652543
-0.3723455659825625
-0.390808982477564
-0.40311792680755576
-0.40311792680755576
-0.4154268711375475
-0.42158134330255725
-0.4400447597975588
-0.4400447597975588
-0.4400447597975588
-0.427735815467567
-0.42158134330255725
-0.42158134330255725
-0.4154268711375475
-0.40311792680755576
-0.390808982477564
-0.390808982477564
-0.390808982477564
-0.3846545103125543
-0.3723455659825625
-0.36619109381755277
-0.360036621652543
-0.360036621652543
-0.3538821494875609
-0.3415732051575415
-0.33541873299255964
-0.31695531649755804
-0.3108008443325483
-0.29233742783754685
-0.2800284835075273
-0.26771953917753555
-0.26156506701252585
-0.24925612268253405
-0.2554105948475438
-0.2431016505175243
-0.2369471783525424
-0.23079270618753256
-0.2246382340225228
-0.21848376185754081
-0.21232928969253104
-0.2246382340225228
-0.23079270618753256
-0.23079270618753256
-0.23079270618753256
-0.2431016505175243
-0.2554105948475438
-0.26156506701252585
-0.2738740113425453
-0.2738740113425453
-0.26771953917753555
-0.26156506701252585
-0.26156506701252585
-0.2554105948475438
-0.21232928969253104
-0.16309351237253633
-0.1261666793825056
-0.08308537422752059
-0.04615854123751762
-0.003077236082504875
0.040004069072507864
0.06462195773251911
0.08923984639250257
0.1384756237125251
0.1938658731975296
0.26771953917753555
0.2800284835075273
0.2984919000025288
0.2738740113425453
0.26771953917753555
0.2246382340225228
0.21232928969253104
0.21848376185754081
0.18771140103251985
0.13232115154751534
0.12001220721752358
0.11385773505251384
0.09539431855751236
0.09539431855751236
0.07693090206251085
0.033849596907498114
-0.01538618041249662
-0.040004069072507864
-0.06462195773251911
-0.07693090206251085
-0.09539431855751236
-0.12001220721752358
-0.17540245670252808
-0.2369471783525424
-0.30464637216753854
-0.3538821494875609
-0.396963454642546
-0.42158134330255725
-0.42158134330255725
-0.4400447597975588
-0.46466264845757
-0.4892805371175811
-0.49543500928256323
-0.5077439536125827
-0.5200528979425745
-0.5200528979425745
-0.5262073701075842
-0.5508252587675677
-0.5877520917575707
-0.6123699804175822
-0.6308333969125834
-0.6492968134075847
-0.6800691742326057
-0.6862236463975879
-0.6985325907276074
-0.7169960072226089
-0.7354594237176102
-0.7477683680476023
-0.7416138958825924
-0.7477683680476023
-0.7539228402126119
-0.7539228402126119
-0.7600773123775938
-0.7662317845426038
-0.7539228402126119
-0.7477683680476023
-0.7354594237176102
-0.7231504793875909
-0.7231504793875909
-0.7169960072226089
-0.7231504793875909
-0.7169960072226089
-0.7169960072226089
-0.7046870628925892
-0.6923781185625978
-0.6677602299025862
-0.6616057577376044
-0.6616057577376044
-0.6739147020675963
-0.6554512855725947
-0.6369878690775933
-0.6246789247476012
-0.6246789247476012
-0.6246789247476012
-0.6123699804175822
-0.6123699804175822
-0.6185244525825918
-0.6123699804175822
-0.6185244525825918
-0.6062155082525723
-0.6000610360875902
-0.6000610360875902
-0.6000610360875902
-0.5877520917575707
-0.5815976195925888
-0.5939065639225805
-0.5877520917575707
-0.575443147427579
-0.5692886752625692
-0.5569797309325777
-0.5569797309325777
-0.5508252587675677
-0.5569797309325777
-0.5446707866025856
-0.538516314437576
-0.5323618422725662
-0.5200528979425745
-0.5015894814475731
-0.49543500928256323
-0.4892805371175811
-0.4892805371175811
-0.4892805371175811
-0.49543500928256323
-0.4892805371175811
-0.49543500928256323
-0.5015894814475731
-0.5015894814475731
-0.5077439536125827
-0.5138984257775646
-0.5138984257775646
-0.5015894814475731
-0.5015894814475731
-0.5077439536125827
-0.5015894814475731
-0.5077439536125827
-0.5138984257775646
-0.49543500928256323
-0.4831260649525715
-0.47697159278756174
-0.4831260649525715
-0.4831260649525715
-0.4892805371175811
-0.4831260649525715
-0.4831260649525715
-0.4892805371175811
-0.4892805371175811
-0.47697159278756174
-0.4708171206225797
-0.44619923196256844
-0.433890287632549
-0.390808982477564
-0.3538821494875609
-0.31695531649755804
-0.2738740113425453
-0.24925612268253405
-0.30464637216753854
-0.42158134330255725
-0.5508252587675677
-0.6308333969125834
-0.6246789247476012
-0.6123699804175822
-0.5815976195925888
-0.538516314437576
-0.5200528979425745
-0.49543500928256323
-0.46466264845757
-0.44619923196256844
-0.433890287632549
-0.427735815467567
-0.427735815467567
-0.4154268711375475
-0.396963454642546
-0.390808982477564
-0.390808982477564
-0.3846545103125543
-0.37850003814754446
-0.3723455659825625
-0.3846545103125543
-0.37850003814754446
-0.3723455659825625
-0.3538821494875609
-0.34772767732255133
-0.360036621652543
-0.3538821494875609
-0.3415732051575415
-0.3415732051575415
-0.34772767732255133
-0.3415732051575415
-0.3415732051575415
-0.3415732051575415
-0.3292642608275498
-0.3292642608275498
-0.3292642608275498
-0.33541873299255964
-0.33541873299255964
-0.33541873299255964
-0.3292642608275498
-0.3415732051575415
-0.33541873299255964
-0.3292642608275498
-0.3292642608275498
-0.31695531649755804
-0.30464637216753854
-0.3108008443325483
-0.2984919000025288
-0.2984919000025288
-0.2800284835075273
-0.2738740113425453
-0.26156506701252585
-0.26156506701252585
-0.2554105948475438
-0.21848376185754081
-0.21848376185754081
-0.2246382340225228
-0.23079270618753256
-0.2554105948475438
-0.2554105948475438
-0.2431016505175243
-0.24925612268253405
-0.23079270618753256
-0.2246382340225228
-0.21232928969253104
-0.1938658731975296
-0.20617481752752131
-0.21848376185754081
-0.2246382340225228
-0.23079270618753256
-0.23079270618753256
-0.24925612268253405
-0.26156506701252585
-0.2738740113425453
-0.2800284835075273
-0.28618295567253704
-0.29233742783754685
-0.2738740113425453
-0.2738740113425453
-0.2738740113425453
-0.28618295567253704
-0.28618295567253704
-0.29233742783754685
-0.2800284835075273
-0.2800284835075273
-0.26771953917753555
-0.2738740113425453
-0.2738740113425453
-0.2800284835075273
-0.28618295567253704
-0.28618295567253704
-0.2738740113425453
-0.2246382340225228
-0.20002034536253932
-0.21848376185754081
-0.2246382340225228
-0.20617481752752131
-0.18771140103251985
-0.15693904020752658
-0.033849596907498114
0.1938658731975296
0.3108008443325483
0.37850003814754446
0.390808982477564
0.3846545103125543
0.396963454642546
0.3723455659825625
0.2984919000025288
0.30464637216753854
0.34772767732255133
0.3723455659825625
0.390808982477564
0.390808982477564
0.4092723989725655
0.4523537041275505
0.4708171206225797
0.4892805371175811
0.4892805371175811
0.4831260649525715
0.4400447597975588
0.3846545103125543
0.32310978866254003
0.32310978866254003
0.360036621652543
0.390808982477564
0.42158134330255725
0.40311792680755576
0.427735815467567
0.44619923196256844
0.3846545103125543
0.360036621652543
0.33541873299255964
0.32310978866254003
0.3108008443325483
0.31695531649755804
0.32310978866254003
0.2984919000025288
0.2738740113425453
0.2369471783525424
0.23079270618753256
0.21232928969253104
0.21232928969253104
0.23079270618753256
0.21848376185754081
0.2246382340225228
0.21232928969253104
0.2431016505175243
0.28618295567253704
0.31695531649755804
0.2984919000025288
0.30464637216753854
0.2984919000025288
0.2984919000025288
0.28618295567253704
0.28618295567253704
0.2554105948475438
0.2246382340225228
0.2246382340225228
0.21848376185754081
0.20617481752752131
0.2431016505175243
0.2431016505175243
0.21232928969253104
0.20002034536253932
0.20002034536253932
0.21232928969253104
0.20617481752752131
0.18155692886753785
0.18771140103251985
0.18155692886753785
0.1692479845375183
0.17540245670252808
0.1692479845375183
0.1938658731975296
0.18771140103251985
0.1692479845375183
0.17540245670252808
0.1692479845375183
0.13232115154751534
0.09539431855751236
0.040004069072507864
0.009231708247514623
0.02154065257750637
0.02769512474251612
0.08923984639250257
0.12001220721752358
0.09539431855751236
0.01538618041249662
-0.04615854123751762
-0.1015487907225221
-0.15078456804251686
-0.08923984639250257
-0.05846748556750937
-0.04615854123751762
0.040004069072507864
0.01538618041249662
0.003077236082504875
0.02769512474251612
-0.02769512474251612
-0.06462195773251911
-0.02769512474251612
-0.009231708247514623
-0.04615854123751762
-0.02769512474251612
0.02769512474251612
0.05231301340249961
0.05231301340249961
0.04615854123751762
0.02154065257750637
-0.009231708247514623
-0.02769512474251612
-0.05231301340249961
-0.14463009587750708
-0.15693904020752658
-0.09539431855751236
-0.0707764298975011
-0.08923984639250257
-0.1692479845375183
-0.21232928969253104
-0.1938658731975296
-0.2246382340225228
-0.23079270618753256
-0.26771953917753555
-0.3723455659825625
-0.5200528979425745
-0.6862236463975879
-0.7846952010376053
-0.8277765061926179
-0.8154675618626261
-0.8216220340276081
-0.8831667556776225
-1.0247196154726523
-1.178581419597674
-1.2708985020726815
-1.3078253350626845
-1.289361918567683
-1.25243508557768
-1.2093537804226673
-1.178581419597674
-1.1601180031026725
-1.1478090587726528
-1.1231911701126696
-1.11088222578265
-1.0985732814526583
-1.0924188092876486
-1.0801098649576568
-1.0678009206276373
-1.0616464484626553
-1.0616464484626553
-1.0554919762976458
-1.0493375041326358
-1.0431830319676536
-1.0185651433076426
-1.0062561989776508
-1.000101726812641
-0.9939472546476313
-0.9754838381526297
-0.9631748938226381
-0.9447114773276367
-0.9447114773276367
-0.9447114773276367
-0.9262480608326351
-0.901630172172624
-0.9077846443376336
-0.901630172172624
-0.901630172172624
-0.895475700007614
-0.895475700007614
-0.889321227842632
-0.8770122835126126
-0.8647033391826209
-0.8523943948526291
-0.8339309783576276
-0.8339309783576276
-0.8216220340276081
-0.8216220340276081
-0.8216220340276081
-0.8339309783576276
-0.8154675618626261
-0.7970041453676248
-0.7785407288726233
-0.7600773123775938
-0.7477683680476023
-0.7416138958825924
-0.7416138958825924
-0.7293049515526008
-0.7231504793875909
-0.7169960072226089
-0.7046870628925892
-0.7046870628925892
-0.6985325907276074
-0.6985325907276074
-0.6862236463975879
-0.6800691742326057
-0.6677602299025862
-0.6616057577376044
-0.6492968134075847
-0.6492968134075847
-0.6492968134075847
-0.6431423412426027
-0.6431423412426027
-0.6308333969125834
-0.6369878690775933
-0.6492968134075847
-0.6492968134075847
-0.6369878690775933
-0.6554512855725947
-0.6739147020675963
-0.6739147020675963
-0.6677602299025862
-0.6739147020675963
-0.6739147020675963
-0.6739147020675963
-0.6677602299025862
-0.6739147020675963
-0.6677602299025862
-0.6677602299025862
-0.6554512855725947
-0.6492968134075847
-0.6492968134075847
-0.6492968134075847
-0.6492968134075847
-0.6492968134075847
-0.6369878690775933
-0.6431423412426027
-0.6369878690775933
-0.6308333969125834
-0.6185244525825918
-0.6246789247476012
-0.6246789247476012
-0.6123699804175822
-0.6062155082525723
-0.6062155082525723
-0.6000610360875902
-0.5939065639225805
-0.6000610360875902
-0.6000610360875902
-0.5939065639225805
-0.6000610360875902
-0.5877520917575707
-0.575443147427579
-0.5569797309325777
-0.5508252587675677
-0.5631342030975872
-0.5569797309325777
-0.5508252587675677
-0.5569797309325777
-0.5631342030975872
-0.5569797309325777
-0.5446707866025856
-0.5446707866025856
-0.5200528979425745
-0.5015894814475731
-0.49543500928256323
-0.5015894814475731
-0.5015894814475731
-0.5015894814475731
-0.49543500928256323
-0.5015894814475731
-0.5200528979425745
-0.5138984257775646
-0.5077439536125827
-0.49543500928256323
-0.49543500928256323
-0.4892805371175811
-0.47697159278756174
-0.47697159278756174
-0.4831260649525715
-0.4892805371175811
-0.4831260649525715
-0.4708171206225797
-0.4708171206225797
-0.4708171206225797
-0.46466264845757
-0.47697159278756174
-0.47697159278756174
-0.4831260649525715
-0.47697159278756174
-0.4708171206225797
-0.46466264845757
-0.46466264845757
-0.4523537041275505
-0.4708171206225797
-0.5077439536125827
-0.4892805371175811
-0.4585081762925601
-0.4708171206225797
-0.46466264845757
-0.46466264845757
-0.4523537041275505
-0.44619923196256844
-0.4585081762925601
-0.4523537041275505
-0.44619923196256844
-0.44619923196256844
-0.4585081762925601
-0.4585081762925601
-0.4523537041275505
-0.4585081762925601
-0.4523537041275505
-0.4400447597975588
-0.433890287632549
-0.433890287632549
-0.4400447597975588
-0.4523537041275505
-0.4400447597975588
-0.433890287632549
-0.427735815467567
-0.42158134330255725
-0.4154268711375475
-0.42158134330255725
-0.42158134330255725
-0.427735815467567
-0.42158134330255725
-0.4092723989725655
-0.4154268711375475
-0.4092723989725655
-0.40311792680755576
-0.396963454642546
-0.40311792680755576
-0.4154268711375475
-0.4154268711375475
-0.4154268711375475
-0.4092723989725655
-0.4154268711375475
-0.42158134330255725
-0.4154268711375475
-0.4092723989725655
-0.40311792680755576
-0.396963454642546
-0.396963454642546
-0.3846545103125543
-0.3846545103125543
-0.3846545103125543
-0.37850003814754446
-0.3846545103125543
-0.3846545103125543
-0.37850003814754446
-0.36619109381755277
-0.34772767732255133
-0.34772767732255133
-0.36619109381755277
-0.37850003814754446
-0.36619109381755277
-0.34772767732255133
-0.360036621652543
-0.36619109381755277
-0.396963454642546
-0.390808982477564
-0.3846545103125543
-0.3846545103125543
-0.390808982477564
-0.396963454642546
-0.396963454642546
-0.390808982477564
-0.396963454642546
-0.396963454642546
-0.390808982477564
-0.37850003814754446
-0.3723455659825625
-0.3846545103125543
-0.37850003814754446
-0.37850003814754446
-0.36619109381755277
-0.3538821494875609
-0.31695531649755804
-0.2738740113425453
-0.2369471783525424
-0.21848376185754081
-0.17540245670252808
-0.13232115154751534
-0.12001220721752358
-0.1692479845375183
-0.2800284835075273
-0.40311792680755576
-0.4831260649525715
-0.5015894814475731
-0.5015894814475731
-0.5015894814475731
-0.4400447597975588
-0.3723455659825625
-0.34772767732255133
-0.31695531649755804
-0.3108008443325483
-0.30464637216753854
-0.2984919000025288
-0.32310978866254003
-0.3292642608275498
-0.3108008443325483
-0.3108008443325483
-0.3108008443325483
-0.2984919000025288
-0.29233742783754685
-0.2984919000025288
-0.2984919000025288
-0.2800284835075273
-0.2738740113425453
-0.2800284835075273
-0.2800284835075273
-0.29233742783754685
-0.29233742783754685
-0.28618295567253704
-0.28618295567253704
-0.2800284835075273
-0.2800284835075273
-0.2800284835075273
-0.2800284835075273
-0.2800284835075273
-0.26771953917753555
-0.2738740113425453
-0.2738740113425453
-0.2738740113425453
-0.2554105948475438
-0.2431016505175243
-0.23079270618753256
-0.23079270618753256
-0.2431016505175243
-0.2369471783525424
-0.23079270618753256
-0.21232928969253104
-0.20002034536253932
-0.20002034536253932
-0.20617481752752131
-0.21232928969253104
-0.20002034536253932
-0.20002034536253932
-0.18155692886753785
-0.18155692886753785
-0.18771140103251985
-0.1938658731975296
-0.20002034536253932
-0.1938658731975296
-0.18155692886753785
-0.15693904020752658
-0.16309351237253633
-0.16309351237253633
-0.16309351237253633
-0.15693904020752658
-0.14463009587750708
-0.15078456804251686
-0.14463009587750708
-0.1692479845375183
-0.15078456804251686
-0.14463009587750708
-0.15078456804251686
-0.1692479845375183
-0.18155692886753785
-0.18771140103251985
-0.20617481752752131
-0.21848376185754081
-0.23079270618753256
-0.2369471783525424
-0.2554105948475438
-0.24925612268253405
-0.26156506701252585
-0.26771953917753555
-0.26156506701252585
-0.2800284835075273
-0.29233742783754685
-0.28618295567253704
-0.2800284835075273
-0.29233742783754685
-0.2984919000025288
-0.2984919000025288
-0.29233742783754685
-0.26156506701252585
-0.2554105948475438
-0.2554105948475438
-0.26156506701252585
-0.2738740113425453
-0.29233742783754685
-0.2984919000025288
-0.3108008443325483
-0.3108008443325483
-0.31695531649755804
-0.3108008443325483
-0.3108008443325483
-0.3292642608275498
-0.31695531649755804
-0.31695531649755804
-0.3108008443325483
-0.3108008443325483
-0.3108008443325483
-0.30464637216753854
-0.31695531649755804
-0.3108008443325483
-0.31695531649755804
-0.30464637216753854
-0.30464637216753854
-0.29233742783754685
-0.29233742783754685
-0.28618295567253704
-0.28618295567253704
-0.28618295567253704
-0.28618295567253704
-0.29233742783754685
-0.2984919000025288
-0.30464637216753854
-0.3292642608275498
-0.3415732051575415
-0.36619109381755277
-0.390808982477564
-0.396963454642546
-0.4092723989725655
-0.3846545103125543
-0.390808982477564
-0.42158134330255725
-0.44619923196256844
-0.4400447597975588
-0.433890287632549
-0.4400447597975588
-0.44619923196256844
-0.4523537041275505
-0.44619923196256844
-0.44619923196256844
-0.44619923196256844
-0.4585081762925601
-0.4585081762925601
-0.4585081762925601
-0.4585081762925601
-0.4585081762925601
-0.44619923196256844
-0.4585081762925601
-0.4523537041275505
-0.4585081762925601
-0.46466264845757
-0.4585081762925601
-0.44619923196256844
-0.4523537041275505
-0.4400447597975588
-0.44619923196256844
-0.44619923196256844
-0.4400447597975588
-0.4400447597975588
-0.433890287632549
-0.4400447597975588
-0.433890287632549
-0.433890287632549
-0.44619923196256844
-0.433890287632549
-0.427735815467567
-0.42158134330255725
-0.4092723989725655
-0.40311792680755576
-0.396963454642546
-0.390808982477564
-0.390808982477564
-0.3846545103125543
-0.37850003814754446
-0.360036621652543
-0.33541873299255964
-0.30464637216753854
-0.29233742783754685
-0.2738740113425453
-0.28618295567253704
-0.28618295567253704
-0.26156506701252585
-0.2431016505175243
-0.20617481752752131
-0.20617481752752131
-0.23079270618753256
-0.1938658731975296
-0.13232115154751534
0.009231708247514623
0.1261666793825056
0.16309351237253633
0.18155692886753785
0.2246382340225228
0.18155692886753785
0.15693904020752658
0.16309351237253633
0.18155692886753785
0.21232928969253104
0.2738740113425453
0.29233742783754685
0.30464637216753854
0.3538821494875609
0.4092723989725655
0.4092723989725655
0.427735815467567
0.5138984257775646
0.5939065639225805
0.6369878690775933
0.6369878690775933
0.6246789247476012
0.6062155082525723
0.5138984257775646
0.46466264845757
0.44619923196256844
0.4585081762925601
0.47697159278756174
0.5077439536125827
0.4092723989725655
0.32310978866254003
0.3415732051575415
0.29233742783754685
0.26156506701252585
0.26156506701252585
0.2369471783525424
0.2246382340225228
0.20617481752752131
0.18771140103251985
0.18771140103251985
0.26156506701252585
0.31695531649755804
0.3538821494875609
0.396963454642546
0.5015894814475731
0.575443147427579
0.5323618422725662
0.396963454642546
0.2369471783525424
0.08923984639250257
0.02769512474251612
0.02769512474251612
0.05846748556750937
0.12001220721752358
0.18155692886753785
0.20617481752752131
0.11385773505251384
-0.009231708247514623
-0.13232115154751534
-0.2554105948475438
-0.44619923196256844
-0.575443147427579
-0.6677602299025862
-0.7354594237176102
-0.7662317845426038
-0.7908496732026148
-0.7970041453676248
-0.7970041453676248
-0.8031586175326066
-0.8154675618626261
-0.8093130896976164
-0.8031586175326066
-0.8031586175326066
-0.7970041453676248
-0.7908496732026148
-0.7908496732026148
-0.7908496732026148
-0.7846952010376053
-0.7846952010376053
-0.7846952010376053
-0.7785407288726233
-0.7723862567076134
-0.7723862567076134
-0.7662317845426038
-0.7600773123775938
-0.7539228402126119
-0.7477683680476023
-0.7416138958825924
-0.7231504793875909
-0.7108415350575992
-0.7046870628925892
-0.7046870628925892
-0.6985325907276074
-0.6985325907276074
-0.6800691742326057
-0.6677602299025862
-0.6492968134075847
-0.6492968134075847
-0.6369878690775933
-0.6308333969125834
-0.6308333969125834
-0.6185244525825918
-0.6185244525825918
-0.6123699804175822
-0.5939065639225805
-0.5877520917575707
-0.575443147427579
-0.5446707866025856
-0.5323618422725662
-0.538516314437576
-0.5323618422725662
-0.5323618422725662
-0.538516314437576
-0.5262073701075842
-0.5138984257775646
-0.5138984257775646
-0.5200528979425745
-0.5138984257775646
-0.5200528979425745
-0.5200528979425745
-0.5262073701075842
-0.538516314437576
-0.5569797309325777
-0.5446707866025856
-0.5569797309325777
-0.5569797309325777
-0.5569797309325777
-0.5692886752625692
-0.5631342030975872
