-0.06462195773251911
-0.09539431855751236
-0.15078456804251686
-0.18155692886753785
-0.18771140103251985
-0.20617481752752131
-0.2554105948475438
-0.2554105948475438
-0.21848376185754081
-0.3415732051575415
-0.34772767732255133
-0.3538821494875609
-0.32310978866254003
-0.3108008443325483
-0.3723455659825625
-0.3723455659825625
-0.18155692886753785
0.1015487907225221
-0.34772767732255133
-0.33541873299255964
-0.4092723989725655
-0.7662317845426038
-0.7354594237176102
-0.6308333969125834
-0.6185244525825918
-0.5446707866025856
-0.49543500928256323
-0.427735815467567
-0.3538821494875609
-0.32310978866254003
-0.2800284835075273
-0.23079270618753256
-0.18771140103251985
-0.18155692886753785
-0.1692479845375183
-0.15078456804251686
-0.10770326288750408
-0.1261666793825056
-0.01538618041249662
-0.040004069072507864
-0.08923984639250257
-0.08923984639250257
-0.08308537422752059
-0.06462195773251911
-0.05846748556750937
-0.0707764298975011
-0.06462195773251911
-0.0707764298975011
-0.0707764298975011
-0.08308537422752059
-0.10770326288750408
-0.15078456804251686
-0.13232115154751534
-0.1692479845375183
-0.1938658731975296
-0.21232928969253104
-0.20002034536253932
-0.1692479845375183
-0.18771140103251985
-0.15693904020752658
-0.1261666793825056
-0.1692479845375183
-0.15078456804251686
-0.10770326288750408
-0.04615854123751762
0.009231708247514623
-0.009231708247514623
0.02154065257750637
0.09539431855751236
0.04615854123751762
0.05231301340249961
0.05846748556750937
0.07693090206251085
0.0707764298975011
0.05231301340249961
0.01538618041249662
0.040004069072507864
-0.01538618041249662
-0.04615854123751762
-0.12001220721752358
-0.4154268711375475
0.06462195773251911
0.09539431855751236
0.04615854123751762
0.05231301340249961
-0.033849596907498114
-0.06462195773251911
-0.04615854123751762
-0.02769512474251612
-0.05231301340249961
-0.07693090206251085
-0.08308537422752059
0.26771953917753555
0.23079270618753256
-0.04615854123751762
-0.009231708247514623
-0.05846748556750937
-0.09539431855751236
-0.06462195773251911
-0.07693090206251085
-0.24925612268253405
-0.5138984257775646
-0.36619109381755277
-0.2738740113425453
-0.2431016505175243
-0.2431016505175243
-0.23079270618753256
-0.2246382340225228
-0.18771140103251985
-0.2554105948475438
-0.24925612268253405
-0.2369471783525424
-0.24925612268253405
-0.18771140103251985
-0.15693904020752658
-0.15693904020752658
-0.1015487907225221
-0.1384756237125251
-0.07693090206251085
-0.009231708247514623
0.02154065257750637
0.02154065257750637
-0.02769512474251612
-0.09539431855751236
-0.13232115154751534
-0.17540245670252808
-0.16309351237253633
-0.13232115154751534
-0.1692479845375183
-0.12001220721752358
-0.08923984639250257
-0.0707764298975011
-0.040004069072507864
-0.10770326288750408
-0.09539431855751236
-0.06462195773251911
-0.0707764298975011
-0.08923984639250257
0.07693090206251085
0.37850003814754446
-0.26771953917753555
-0.390808982477564
-0.2246382340225228
-0.1692479845375183
-0.18771140103251985
-0.21232928969253104
-0.21232928969253104
-0.20617481752752131
-0.1938658731975296
-0.2431016505175243
-0.2246382340225228
-0.21848376185754081
-0.2369471783525424
-0.2431016505175243
-0.2431016505175243
-0.2246382340225228
-0.23079270618753256
-0.2431016505175243
-0.09539431855751236
-0.1384756237125251
-0.18155692886753785
-0.21848376185754081
-0.18155692886753785
-0.1692479845375183
-0.15078456804251686
-0.1938658731975296
-0.20617481752752131
-0.18771140103251985
-0.18155692886753785
-0.20002034536253932
-0.20002034536253932
-0.18155692886753785
-0.2554105948475438
-0.44619923196256844
-0.34772767732255133
-0.31695531649755804
-0.32310978866254003
-0.33541873299255964
-0.32310978866254003
-0.3108008443325483
-0.3108008443325483
-0.33541873299255964
-0.30464637216753854
-0.2984919000025288
-0.28618295567253704
-0.26771953917753555
-0.24925612268253405
-0.11385773505251384
-0.033849596907498114
-0.1261666793825056
-0.1261666793825056
-0.1261666793825056
-0.10770326288750408
-0.11385773505251384
-0.11385773505251384
-0.0707764298975011
-0.10770326288750408
-0.16309351237253633
-0.13232115154751534
-0.16309351237253633
-0.1692479845375183
-0.23079270618753256
-0.5138984257775646
0.02154065257750637
0.009231708247514623
-0.12001220721752358
-0.15693904020752658
-0.1692479845375183
-0.1692479845375183
-0.1938658731975296
-0.18771140103251985
-0.17540245670252808
-0.20002034536253932
-0.18155692886753785
-0.18155692886753785
-0.20002034536253932
-0.2369471783525424
-0.16309351237253633
-0.06462195773251911
-0.13232115154751534
-0.20002034536253932
-0.21848376185754081
-0.2431016505175243
-0.26771953917753555
-0.2984919000025288
-0.30464637216753854
-0.29233742783754685
-0.2984919000025288
-0.3415732051575415
-0.33541873299255964
-0.33541873299255964
-0.3723455659825625
-0.6308333969125834
-0.7600773123775938
-0.5815976195925888
-0.44619923196256844
-0.427735815467567
-0.390808982477564
-0.3415732051575415
-0.3108008443325483
-0.28618295567253704
-0.28618295567253704
-0.2554105948475438
-0.21848376185754081
-0.24925612268253405
-0.2431016505175243
-0.21232928969253104
-0.13232115154751534
-0.0707764298975011
-0.05231301340249961
-0.033849596907498114
0.02154065257750637
-0.06462195773251911
-0.033849596907498114
-0.003077236082504875
-0.01538618041249662
-0.02769512474251612
-0.01538618041249662
-0.009231708247514623
0.02769512474251612
0.1261666793825056
0.46466264845757
0.06462195773251911
0.009231708247514623
-0.02154065257750637
-0.05846748556750937
-0.08923984639250257
-0.2554105948475438
-0.5323618422725662
-0.40311792680755576
-0.360036621652543
-0.3415732051575415
-0.34772767732255133
-0.360036621652543
-0.360036621652543
-0.32310978866254003
-0.390808982477564
-0.40311792680755576
-0.4400447597975588
-0.3846545103125543
-0.360036621652543
-0.360036621652543
-0.31695531649755804
-0.26156506701252585
-0.3108008443325483
-0.24925612268253405
-0.20002034536253932
-0.17540245670252808
-0.1384756237125251
-0.12001220721752358
-0.12001220721752358
-0.0707764298975011
-0.0707764298975011
-0.09539431855751236
-0.11385773505251384
-0.13232115154751534
-0.1384756237125251
-0.1384756237125251
-0.13232115154751534
-0.10770326288750408
-0.15693904020752658
-0.1384756237125251
-0.1384756237125251
-0.1384756237125251
-0.1261666793825056
-0.15078456804251686
-0.1384756237125251
-0.11385773505251384
-0.18771140103251985
-0.18771140103251985
-0.1938658731975296
-0.21232928969253104
-0.26771953917753555
-0.3415732051575415
-0.3846545103125543
-0.37850003814754446
-0.396963454642546
-0.3723455659825625
-0.34772767732255133
-0.33541873299255964
-0.34772767732255133
-0.3108008443325483
-0.2800284835075273
-0.360036621652543
-0.6923781185625978
-0.1938658731975296
-0.18155692886753785
-0.2800284835075273
-0.31695531649755804
-0.33541873299255964
-0.32310978866254003
-0.28618295567253704
-0.3415732051575415
-0.31695531649755804
-0.31695531649755804
-0.32310978866254003
-0.2984919000025288
-0.26771953917753555
-0.2554105948475438
-0.26156506701252585
-0.29233742783754685
-0.2800284835075273
-0.28618295567253704
-0.28618295567253704
-0.3292642608275498
-0.2800284835075273
-0.26156506701252585
-0.24925612268253405
-0.29233742783754685
-0.30464637216753854
-0.32310978866254003
-0.30464637216753854
-0.30464637216753854
-0.26771953917753555
-0.2369471783525424
-0.2246382340225228
-0.23079270618753256
-0.23079270618753256
-0.29233742783754685
-0.390808982477564
-0.4400447597975588
-0.4400447597975588
-0.37850003814754446
-0.360036621652543
-0.3723455659825625
-0.3415732051575415
-0.31695531649755804
-0.32310978866254003
-0.2738740113425453
-0.2738740113425453
-0.24925612268253405
-0.21848376185754081
-0.2246382340225228
-0.2246382340225228
-0.2246382340225228
-0.21232928969253104
-0.2246382340225228
-0.2246382340225228
-0.18155692886753785
-0.2431016505175243
-0.28618295567253704
-0.2554105948475438
-0.1015487907225221
0.26156506701252585
-0.28618295567253704
-0.2431016505175243
-0.2984919000025288
-0.6185244525825918
-0.538516314437576
-0.4154268711375475
-0.3846545103125543
-0.37850003814754446
-0.36619109381755277
-0.34772767732255133
-0.34772767732255133
-0.3723455659825625
-0.28618295567253704
-0.2984919000025288
-0.32310978866254003
-0.3415732051575415
-0.3415732051575415
-0.33541873299255964
-0.26771953917753555
-0.2984919000025288
-0.2984919000025288
-0.29233742783754685
-0.28618295567253704
-0.2984919000025288
-0.29233742783754685
-0.3108008443325483
-0.11385773505251384
-0.26771953917753555
-0.5939065639225805
-0.06462195773251911
-0.20002034536253932
-0.24925612268253405
-0.2738740113425453
-0.2738740113425453
-0.34772767732255133
-0.6554512855725947
-0.5138984257775646
-0.390808982477564
-0.32310978866254003
-0.2738740113425453
-0.26156506701252585
-0.2369471783525424
-0.11385773505251384
-0.18155692886753785
-0.21848376185754081
-0.2369471783525424
-0.2369471783525424
-0.24925612268253405
-0.24925612268253405
-0.24925612268253405
-0.2246382340225228
-0.2800284835075273
-0.2738740113425453
-0.28618295567253704
-0.2738740113425453
-0.2738740113425453
-0.2800284835075273
-0.1692479845375183
-0.12001220721752358
-0.24925612268253405
-0.2369471783525424
-0.23079270618753256
-0.24925612268253405
-0.2554105948475438
-0.24925612268253405
-0.2431016505175243
-0.21848376185754081
-0.2738740113425453
-0.2554105948475438
-0.23079270618753256
-0.23079270618753256
-0.24925612268253405
-0.433890287632549
-0.44619923196256844
-0.30464637216753854
-0.31695531649755804
-0.26156506701252585
-0.2369471783525424
-0.23079270618753256
-0.2246382340225228
-0.2431016505175243
-0.24925612268253405
-0.2246382340225228
-0.28618295567253704
-0.2738740113425453
-0.2738740113425453
-0.26156506701252585
-0.26156506701252585
-0.3292642608275498
-0.3538821494875609
-0.6246789247476012
-0.15693904020752658
-0.1015487907225221
-0.1938658731975296
-0.21232928969253104
-0.2246382340225228
-0.2554105948475438
-0.2431016505175243
-0.24925612268253405
-0.2984919000025288
-0.29233742783754685
-0.26771953917753555
-0.15078456804251686
-0.20002034536253932
-0.24925612268253405
-0.26156506701252585
-0.26156506701252585
-0.3415732051575415
-0.33541873299255964
-0.3415732051575415
-0.34772767732255133
-0.3415732051575415
-0.3108008443325483
-0.28618295567253704
-0.2369471783525424
-0.3108008443325483
-0.26771953917753555
-0.2431016505175243
-0.2554105948475438
-0.2431016505175243
-0.04615854123751762
0.3538821494875609
-0.47697159278756174
-0.5015894814475731
-0.32310978866254003
-0.2800284835075273
-0.2431016505175243
-0.21848376185754081
-0.21232928969253104
-0.20617481752752131
-0.18155692886753785
-0.17540245670252808
-0.003077236082504875
-0.10770326288750408
-0.18155692886753785
-0.20617481752752131
-0.23079270618753256
-0.2369471783525424
-0.2369471783525424
-0.28618295567253704
-0.29233742783754685
-0.26156506701252585
-0.28618295567253704
-0.30464637216753854
-0.30464637216753854
-0.29233742783754685
-0.3415732051575415
-0.5323618422725662
-0.44619923196256844
-0.3723455659825625
-0.33541873299255964
-0.31695531649755804
-0.2984919000025288
-0.2800284835075273
-0.2800284835075273
-0.2800284835075273
-0.26156506701252585
-0.2246382340225228
-0.23079270618753256
-0.2554105948475438
-0.24925612268253405
-0.15078456804251686
-0.18771140103251985
-0.2431016505175243
-0.2369471783525424
-0.2246382340225228
-0.24925612268253405
-0.23079270618753256
-0.24925612268253405
-0.2369471783525424
-0.24925612268253405
-0.2554105948475438
-0.26771953917753555
-0.2554105948475438
-0.23079270618753256
-0.21232928969253104
-0.15078456804251686
-0.14463009587750708
-0.10770326288750408
-0.11385773505251384
-0.17540245670252808
-0.2800284835075273
-0.34772767732255133
-0.4092723989725655
-0.6923781185625978
-0.16309351237253633
-0.11385773505251384
-0.18155692886753785
-0.17540245670252808
-0.1692479845375183
-0.21232928969253104
-0.17540245670252808
-0.20002034536253932
0.0707764298975011
-0.1384756237125251
-0.3538821494875609
-0.26771953917753555
-0.24925612268253405
-0.26156506701252585
-0.26156506701252585
-0.2554105948475438
-0.24925612268253405
-0.30464637216753854
-0.2738740113425453
-0.26771953917753555
-0.28618295567253704
-0.2738740113425453
-0.2554105948475438
-0.26771953917753555
-0.2369471783525424
-0.2554105948475438
-0.26156506701252585
-0.2738740113425453
-0.26771953917753555
-0.26156506701252585
-0.26771953917753555
-0.28618295567253704
-0.23079270618753256
-0.2800284835075273
-0.2800284835075273
-0.29233742783754685
-0.2369471783525424
-0.30464637216753854
-0.28618295567253704
-0.30464637216753854
-0.2800284835075273
-0.34772767732255133
-0.34772767732255133
-0.34772767732255133
-0.360036621652543
-0.34772767732255133
-0.3415732051575415
-0.34772767732255133
-0.31695531649755804
-0.3723455659825625
-0.37850003814754446
-0.360036621652543
-0.3292642608275498
-0.3108008443325483
-0.32310978866254003
-0.29233742783754685
-0.2369471783525424
-0.10770326288750408
0.31695531649755804
-0.21232928969253104
-0.14463009587750708
-0.15078456804251686
-0.17540245670252808
-0.16309351237253633
-0.30464637216753854
-0.5262073701075842
-0.31695531649755804
-0.2738740113425453
-0.23079270618753256
-0.20002034536253932
-0.20617481752752131
-0.20617481752752131
-0.21232928969253104
-0.29233742783754685
-0.2800284835075273
-0.31695531649755804
-0.3292642608275498
-0.3108008443325483
-0.31695531649755804
-0.32310978866254003
-0.2984919000025288
-0.3538821494875609
-0.32310978866254003
-0.30464637216753854
-0.2984919000025288
-0.30464637216753854
-0.32310978866254003
-0.34772767732255133
-0.3415732051575415
-0.40311792680755576
-0.37850003814754446
-0.33541873299255964
-0.3292642608275498
-0.2984919000025288
-0.26771953917753555
-0.26156506701252585
-0.3108008443325483
-0.33541873299255964
-0.3108008443325483
-0.3108008443325483
-0.2800284835075273
-0.2554105948475438
-0.24925612268253405
-0.2738740113425453
-0.2431016505175243
-0.30464637216753854
-0.30464637216753854
-0.2984919000025288
-0.31695531649755804
-0.360036621652543
-0.2984919000025288
-0.20002034536253932
-0.2431016505175243
-0.30464637216753854
-0.30464637216753854
-0.30464637216753854
-0.2738740113425453
-0.26771953917753555
-0.26156506701252585
-0.2431016505175243
-0.2738740113425453
-0.6185244525825918
-0.10770326288750408
-0.06462195773251911
-0.14463009587750708
-0.15693904020752658
-0.14463009587750708
-0.1692479845375183
-0.15078456804251686
-0.18771140103251985
-0.1692479845375183
-0.17540245670252808
-0.17540245670252808
-0.17540245670252808
-0.17540245670252808
-0.1692479845375183
-0.15078456804251686
-0.18771140103251985
-0.20617481752752131
-0.21848376185754081
-0.17540245670252808
-0.21232928969253104
-0.2246382340225228
-0.21232928969253104
-0.20617481752752131
-0.2246382340225228
-0.21848376185754081
-0.21848376185754081
-0.2246382340225228
-0.23079270618753256
-0.20617481752752131
-0.1938658731975296
-0.21232928969253104
-0.26771953917753555
-0.2738740113425453
-0.2369471783525424
-0.1938658731975296
-0.24925612268253405
-0.2369471783525424
-0.0707764298975011
0.20617481752752131
-0.2246382340225228
-0.15693904020752658
-0.15693904020752658
-0.16309351237253633
-0.18155692886753785
-0.1938658731975296
-0.2554105948475438
-0.5815976195925888
-0.49543500928256323
-0.360036621652543
-0.3846545103125543
-0.32310978866254003
-0.2738740113425453
-0.2738740113425453
-0.24925612268253405
-0.2554105948475438
-0.23079270618753256
-0.2369471783525424
-0.05231301340249961
0.26156506701252585
-0.18155692886753785
-0.14463009587750708
0.05231301340249961
-0.46466264845757
-0.42158134330255725
-0.15078456804251686
-0.1938658731975296
-0.20002034536253932
-0.21848376185754081
-0.20617481752752131
-0.17540245670252808
-0.2431016505175243
-0.2431016505175243
-0.2246382340225228
-0.2246382340225228
-0.2246382340225228
-0.18771140103251985
-0.20617481752752131
-0.15693904020752658
-0.32310978866254003
-0.3846545103125543
-0.24925612268253405
-0.2431016505175243
-0.2984919000025288
-0.37850003814754446
-0.427735815467567
-0.4154268711375475
-0.433890287632549
-0.427735815467567
-0.40311792680755576
-0.3846545103125543
-0.37850003814754446
-0.3538821494875609
-0.360036621652543
-0.33541873299255964
-0.34772767732255133
-0.32310978866254003
-0.3292642608275498
-0.29233742783754685
-0.2554105948475438
-0.23079270618753256
-0.2369471783525424
-0.21232928969253104
-0.23079270618753256
-0.2369471783525424
-0.2431016505175243
-0.23079270618753256
-0.21848376185754081
-0.21848376185754081
-0.20617481752752131
-0.20002034536253932
-0.23079270618753256
-0.20617481752752131
-0.21232928969253104
-0.20617481752752131
-0.20617481752752131
-0.20617481752752131
-0.21232928969253104
-0.17540245670252808
-0.24925612268253405
-0.26156506701252585
-0.33541873299255964
-0.6431423412426027
-0.15693904020752658
-0.033849596907498114
-0.1384756237125251
-0.15078456804251686
-0.20002034536253932
-0.1938658731975296
-0.17540245670252808
-0.15693904020752658
-0.13232115154751534
-0.12001220721752358
-0.09539431855751236
-0.08923984639250257
-0.18771140103251985
-0.16309351237253633
-0.1692479845375183
-0.1692479845375183
-0.08923984639250257
-0.11385773505251384
-0.1384756237125251
-0.15078456804251686
-0.20002034536253932
-0.21232928969253104
-0.2246382340225228
-0.1938658731975296
-0.20002034536253932
-0.20002034536253932
-0.18155692886753785
-0.16309351237253633
-0.21232928969253104
-0.20617481752752131
-0.1692479845375183
-0.2554105948475438
-0.26771953917753555
-0.23079270618753256
-0.21232928969253104
-0.20002034536253932
-0.2738740113425453
-0.26156506701252585
-0.24925612268253405
-0.2369471783525424
-0.2554105948475438
-0.2431016505175243
-0.2554105948475438
-0.28618295567253704
-0.29233742783754685
-0.2554105948475438
-0.2738740113425453
-0.28618295567253704
-0.2738740113425453
-0.26771953917753555
-0.2369471783525424
-0.21848376185754081
-0.23079270618753256
-0.2246382340225228
-0.2246382340225228
-0.20617481752752131
-0.17540245670252808
0.02154065257750637
0.42158134330255725
-0.42158134330255725
-0.4154268711375475
-0.23079270618753256
-0.20002034536253932
-0.18155692886753785
-0.1938658731975296
-0.1938658731975296
-0.17540245670252808
-0.18155692886753785
-0.20617481752752131
-0.2246382340225228
-0.23079270618753256
-0.2246382340225228
-0.21232928969253104
-0.23079270618753256
-0.23079270618753256
-0.23079270618753256
-0.29233742783754685
-0.2738740113425453
-0.26156506701252585
-0.26771953917753555
-0.26771953917753555
-0.2554105948475438
-0.23079270618753256
-0.2431016505175243
-0.2984919000025288
-0.2800284835075273
-0.2738740113425453
-0.26156506701252585
-0.26771953917753555
-0.28618295567253704
-0.2431016505175243
-0.3415732051575415
-0.33541873299255964
-0.3292642608275498
-0.3108008443325483
-0.28618295567253704
-0.28618295567253704
-0.2738740113425453
-0.2246382340225228
-0.2246382340225228
-0.21848376185754081
-0.21232928969253104
-0.1938658731975296
-0.18155692886753785
-0.18771140103251985
-0.1261666793825056
-0.08923984639250257
-0.15693904020752658
-0.18155692886753785
-0.20002034536253932
-0.20002034536253932
-0.2246382340225228
-0.2246382340225228
-0.2369471783525424
-0.2431016505175243
-0.26771953917753555
-0.29233742783754685
-0.28618295567253704
-0.30464637216753854
-0.32310978866254003
-0.37850003814754446
-0.7231504793875909
-0.18155692886753785
-0.20002034536253932
-0.26771953917753555
-0.2800284835075273
-0.28618295567253704
-0.26156506701252585
-0.28618295567253704
-0.28618295567253704
-0.24925612268253405
-0.29233742783754685
-0.28618295567253704
-0.2984919000025288
-0.2800284835075273
-0.23079270618753256
-0.23079270618753256
-0.2246382340225228
-0.2246382340225228
-0.26771953917753555
-0.26771953917753555
-0.26771953917753555
-0.26156506701252585
-0.24925612268253405
-0.26771953917753555
-0.2554105948475438
-0.1938658731975296
-0.2554105948475438
-0.2800284835075273
-0.28618295567253704
-0.29233742783754685
-0.30464637216753854
-0.2800284835075273
-0.26771953917753555
-0.26156506701252585
-0.3292642608275498
-0.29233742783754685
-0.24925612268253405
-0.23079270618753256
-0.21232928969253104
-0.18155692886753785
-0.1692479845375183
-0.13232115154751534
-0.16309351237253633
-0.14463009587750708
-0.0707764298975011
-0.10770326288750408
-0.12001220721752358
-0.1015487907225221
-0.09539431855751236
-0.05231301340249961
-0.09539431855751236
-0.07693090206251085
-0.02769512474251612
-0.009231708247514623
-0.06462195773251911
-0.14463009587750708
-0.2369471783525424
-0.28618295567253704
-0.18155692886753785
0.2431016505175243
-0.33541873299255964
-0.2738740113425453
-0.2554105948475438
-0.2431016505175243
-0.23079270618753256
-0.42158134330255725
-0.6431423412426027
-0.4708171206225797
-0.3723455659825625
-0.31695531649755804
-0.3108008443325483
-0.29233742783754685
-0.2984919000025288
-0.2554105948475438
-0.2738740113425453
-0.26771953917753555
-0.26771953917753555
-0.26771953917753555
-0.26156506701252585
-0.26156506701252585
-0.2554105948475438
-0.23079270618753256
-0.28618295567253704
-0.29233742783754685
-0.29233742783754685
-0.2554105948475438
-0.2431016505175243
-0.2369471783525424
-0.2246382340225228
-0.23079270618753256
-0.2800284835075273
-0.2369471783525424
-0.21232928969253104
-0.20002034536253932
-0.17540245670252808
-0.1938658731975296
-0.18771140103251985
-0.1692479845375183
-0.1938658731975296
-0.1938658731975296
-0.18771140103251985
-0.1938658731975296
-0.21848376185754081
-0.16309351237253633
-0.1261666793825056
-0.17540245670252808
-0.1938658731975296
-0.2246382340225228
-0.21232928969253104
-0.23079270618753256
-0.24925612268253405
-0.24925612268253405
-0.21232928969253104
0.16309351237253633
-0.5815976195925888
-0.05846748556750937
-0.08923984639250257
-0.18155692886753785
-0.20617481752752131
-0.15693904020752658
-0.20002034536253932
-0.47697159278756174
-0.5200528979425745
-0.37850003814754446
-0.32310978866254003
-0.30464637216753854
-0.2800284835075273
-0.2738740113425453
-0.21848376185754081
-0.21232928969253104
-0.21232928969253104
-0.18155692886753785
-0.18771140103251985
-0.06462195773251911
0.16309351237253633
0.033849596907498114
-0.01538618041249662
-0.05231301340249961
-0.10770326288750408
-0.10770326288750408
-0.1261666793825056
-0.14463009587750708
-0.13232115154751534
-0.12001220721752358
-0.1015487907225221
-0.10770326288750408
-0.16309351237253633
-0.17540245670252808
-0.3415732051575415
-0.5631342030975872
-0.396963454642546
-0.3415732051575415
-0.2738740113425453
-0.2554105948475438
-0.26771953917753555
-0.2431016505175243
-0.2246382340225228
-0.2246382340225228
-0.20617481752752131
-0.21232928969253104
-0.20002034536253932
-0.23079270618753256
-0.2431016505175243
-0.18155692886753785
-0.20617481752752131
-0.21232928969253104
-0.21232928969253104
-0.2369471783525424
-0.2369471783525424
-0.2554105948475438
-0.2738740113425453
-0.26156506701252585
-0.26771953917753555
-0.29233742783754685
-0.33541873299255964
-0.3415732051575415
-0.6369878690775933
-0.390808982477564
-0.04615854123751762
-0.16309351237253633
-0.02769512474251612
0.26156506701252585
-0.17540245670252808
-0.15078456804251686
-0.2738740113425453
-0.5815976195925888
-0.4585081762925601
-0.360036621652543
-0.31695531649755804
-0.2984919000025288
-0.2800284835075273
-0.2800284835075273
-0.2369471783525424
-0.31695531649755804
-0.3415732051575415
-0.2800284835075273
-0.26771953917753555
-0.23079270618753256
-0.2246382340225228
-0.2246382340225228
-0.17540245670252808
-0.23079270618753256
-0.18771140103251985
-0.18155692886753785
-0.20002034536253932
-0.21848376185754081
-0.21232928969253104
-0.20617481752752131
-0.1261666793825056
-0.1938658731975296
-0.20617481752752131
-0.20002034536253932
-0.23079270618753256
-0.2431016505175243
-0.23079270618753256
-0.23079270618753256
-0.1938658731975296
-0.26156506701252585
-0.26156506701252585
-0.2800284835075273
-0.29233742783754685
-0.30464637216753854
-0.29233742783754685
-0.30464637216753854
-0.26156506701252585
-0.30464637216753854
-0.2984919000025288
-0.29233742783754685
-0.2800284835075273
-0.2554105948475438
-0.23079270618753256
-0.21848376185754081
-0.16309351237253633
-0.2431016505175243
-0.2369471783525424
-0.2246382340225228
-0.21848376185754081
-0.2246382340225228
-0.2554105948475438
-0.2800284835075273
-0.2431016505175243
-0.31695531649755804
-0.2800284835075273
-0.3538821494875609
-0.6369878690775933
-0.12001220721752358
-0.1261666793825056
-0.18771140103251985
-0.1692479845375183
-0.21232928969253104
-0.1938658731975296
-0.1692479845375183
-0.1692479845375183
-0.1384756237125251
-0.1384756237125251
-0.1938658731975296
-0.2554105948475438
-0.390808982477564
-0.4154268711375475
-0.37850003814754446
-0.33541873299255964
-0.3292642608275498
-0.3108008443325483
-0.28618295567253704
-0.26156506701252585
-0.3108008443325483
-0.30464637216753854
-0.2738740113425453
-0.21848376185754081
-0.23079270618753256
-0.2554105948475438
-0.26156506701252585
-0.26156506701252585
-0.28618295567253704
-0.26771953917753555
-0.28618295567253704
-0.30464637216753854
-0.30464637216753854
-0.3292642608275498
-0.32310978866254003
-0.2984919000025288
-0.360036621652543
-0.33541873299255964
-0.3538821494875609
-0.3846545103125543
-0.3538821494875609
-0.32310978866254003
-0.3108008443325483
-0.3108008443325483
-0.32310978866254003
-0.3108008443325483
-0.2984919000025288
-0.29233742783754685
-0.3108008443325483
-0.29233742783754685
-0.26771953917753555
-0.29233742783754685
-0.24925612268253405
-0.18155692886753785
-0.2738740113425453
-0.28618295567253704
-0.2800284835075273
-0.12001220721752358
0.1692479845375183
-0.5323618422725662
-0.5077439536125827
-0.40311792680755576
-0.3538821494875609
-0.3292642608275498
-0.3292642608275498
-0.3538821494875609
-0.34772767732255133
-0.36619109381755277
-0.40311792680755576
-0.36619109381755277
-0.36619109381755277
-0.36619109381755277
-0.3415732051575415
-0.3415732051575415
-0.3292642608275498
-0.26771953917753555
-0.30464637216753854
-0.29233742783754685
-0.2738740113425453
-0.30464637216753854
-0.31695531649755804
-0.33541873299255964
-0.33541873299255964
-0.4708171206225797
-0.433890287632549
-0.3723455659825625
-0.3538821494875609
-0.33541873299255964
-0.32310978866254003
-0.29233742783754685
-0.2738740113425453
-0.32310978866254003
-0.2984919000025288
-0.2738740113425453
-0.2800284835075273
-0.29233742783754685
-0.2800284835075273
-0.1261666793825056
-0.04615854123751762
-0.16309351237253633
-0.21232928969253104
-0.21232928969253104
-0.21232928969253104
-0.2554105948475438
-0.24925612268253405
-0.2369471783525424
-0.20002034536253932
-0.2369471783525424
-0.21232928969253104
-0.2246382340225228
-0.2246382340225228
-0.2554105948475438
-0.2800284835075273
-0.2800284835075273
-0.2246382340225228
-0.26771953917753555
-0.2738740113425453
-0.2800284835075273
-0.30464637216753854
-0.3108008443325483
-0.3723455659825625
-0.6800691742326057
-0.14463009587750708
-0.17540245670252808
-0.23079270618753256
-0.2431016505175243
-0.2554105948475438
-0.2431016505175243
-0.23079270618753256
-0.24925612268253405
-0.21848376185754081
-0.2369471783525424
-0.23079270618753256
-0.23079270618753256
-0.2246382340225228
-0.23079270618753256
-0.2431016505175243
-0.24925612268253405
-0.21848376185754081
-0.26156506701252585
-0.24925612268253405
-0.2369471783525424
-0.20617481752752131
-0.20002034536253932
-0.18771140103251985
-0.1938658731975296
-0.17540245670252808
-0.2431016505175243
-0.2246382340225228
-0.23079270618753256
-0.2246382340225228
-0.20002034536253932
-0.18771140103251985
-0.1692479845375183
-0.13232115154751534
-0.21232928969253104
-0.15693904020752658
-0.17540245670252808
-0.2554105948475438
-0.2369471783525424
-0.21848376185754081
-0.20617481752752131
-0.20002034536253932
-0.2554105948475438
-0.26156506701252585
-0.26771953917753555
-0.24925612268253405
-0.2431016505175243
-0.26156506701252585
-0.2554105948475438
-0.23079270618753256
-0.28618295567253704
-0.26156506701252585
-0.2800284835075273
-0.28618295567253704
-0.2800284835075273
-0.26156506701252585
-0.24925612268253405
-0.23079270618753256
-0.08308537422752059
0.3292642608275498
-0.20002034536253932
-0.13232115154751534
-0.15693904020752658
-0.15693904020752658
-0.15693904020752658
0.06462195773251911
-0.6062155082525723
-0.11385773505251384
-0.009231708247514623
-0.11385773505251384
-0.08923984639250257
-0.13232115154751534
-0.15078456804251686
-0.36619109381755277
-0.5138984257775646
-0.3415732051575415
-0.2738740113425453
-0.2369471783525424
-0.2246382340225228
-0.2431016505175243
-0.23079270618753256
-0.28618295567253704
-0.32310978866254003
-0.26771953917753555
-0.23079270618753256
-0.20002034536253932
-0.18771140103251985
-0.18155692886753785
-0.1692479845375183
-0.15078456804251686
-0.18771140103251985
-0.1692479845375183
-0.15693904020752658
-0.18155692886753785
-0.20002034536253932
-0.15078456804251686
-0.1384756237125251
-0.17540245670252808
-0.21232928969253104
-0.2369471783525424
-0.20617481752752131
-0.18771140103251985
-0.1938658731975296
-0.18771140103251985
-0.1261666793825056
-0.08923984639250257
-0.13232115154751534
-0.1692479845375183
-0.26771953917753555
-0.3846545103125543
-0.40311792680755576
-0.360036621652543
-0.37850003814754446
-0.37850003814754446
-0.396963454642546
-0.37850003814754446
-0.3846545103125543
-0.390808982477564
-0.36619109381755277
-0.3415732051575415
-0.3292642608275498
-0.3292642608275498
-0.3292642608275498
-0.29233742783754685
-0.30464637216753854
-0.28618295567253704
-0.2431016505175243
-0.2431016505175243
-0.5262073701075842
-0.4154268711375475
-0.05231301340249961
-0.16309351237253633
-0.20002034536253932
-0.2369471783525424
-0.26156506701252585
-0.29233742783754685
-0.29233742783754685
-0.31695531649755804
-0.32310978866254003
-0.30464637216753854
-0.3723455659825625
-0.47697159278756174
-0.37850003814754446
-0.3415732051575415
-0.3108008443325483
-0.33541873299255964
-0.31695531649755804
-0.30464637216753854
-0.30464637216753854
-0.29233742783754685
-0.2800284835075273
-0.26771953917753555
-0.2431016505175243
-0.26156506701252585
-0.23079270618753256
-0.1261666793825056
-0.06462195773251911
-0.12001220721752358
-0.14463009587750708
-0.15078456804251686
0.1384756237125251
-0.08923984639250257
-0.3538821494875609
-0.2554105948475438
-0.2246382340225228
-0.20002034536253932
-0.21848376185754081
-0.2369471783525424
-0.1938658731975296
-0.2431016505175243
-0.15693904020752658
-0.20002034536253932
-0.2246382340225228
-0.2246382340225228
-0.23079270618753256
-0.2431016505175243
-0.23079270618753256
-0.2984919000025288
-0.30464637216753854
-0.3108008443325483
-0.15693904020752658
0.2246382340225228
-0.3538821494875609
-0.33541873299255964
-0.4400447597975588
-0.7354594237176102
-0.5692886752625692
-0.4831260649525715
-0.4092723989725655
-0.36619109381755277
-0.3415732051575415
-0.30464637216753854
-0.2369471783525424
-0.29233742783754685
-0.26771953917753555
-0.2738740113425453
-0.30464637216753854
-0.28618295567253704
-0.28618295567253704
-0.2554105948475438
0.02154065257750637
0.009231708247514623
-0.1015487907225221
-0.1384756237125251
-0.15693904020752658
-0.14463009587750708
-0.13232115154751534
-0.1015487907225221
-0.07693090206251085
-0.14463009587750708
-0.16309351237253633
-0.16309351237253633
-0.16309351237253633
-0.1692479845375183
-0.20002034536253932
-0.49543500928256323
-0.49543500928256323
-0.3723455659825625
-0.28618295567253704
-0.21848376185754081
-0.1692479845375183
-0.11385773505251384
-0.08308537422752059
-0.06462195773251911
-0.003077236082504875
-0.0707764298975011
-0.05846748556750937
-0.04615854123751762
-0.040004069072507864
-0.04615854123751762
0.003077236082504875
-0.009231708247514623
0.01538618041249662
-0.06462195773251911
-0.06462195773251911
-0.0707764298975011
-0.08923984639250257
-0.11385773505251384
-0.15078456804251686
-0.1692479845375183
-0.15078456804251686
-0.2246382340225228
-0.2369471783525424
-0.30464637216753854
-0.6062155082525723
-0.06462195773251911
-0.02769512474251612
-0.15693904020752658
-0.1938658731975296
-0.26771953917753555
-0.28618295567253704
-0.28618295567253704
-0.31695531649755804
-0.34772767732255133
-0.360036621652543
-0.37850003814754446
-0.34772767732255133
-0.4154268711375475
-0.4092723989725655
-0.40311792680755576
-0.4708171206225797
-0.433890287632549
-0.40311792680755576
-0.36619109381755277
-0.3108008443325483
-0.3415732051575415
-0.2984919000025288
-0.2554105948475438
-0.2369471783525424
-0.23079270618753256
-0.2369471783525424
-0.21232928969253104
-0.1938658731975296
-0.21232928969253104
-0.15693904020752658
-0.15078456804251686
-0.20002034536253932
-0.17540245670252808
-0.15078456804251686
-0.14463009587750708
-0.1261666793825056
-0.1261666793825056
-0.09539431855751236
-0.09539431855751236
-0.08308537422752059
-0.07693090206251085
-0.1015487907225221
-0.07693090206251085
-0.05231301340249961
-0.05846748556750937
0.04615854123751762
-0.003077236082504875
-0.040004069072507864
-0.04615854123751762
-0.08923984639250257
-0.10770326288750408
-0.1261666793825056
-0.18155692886753785
-0.20617481752752131
-0.20002034536253932
-0.20002034536253932
-0.21232928969253104
-0.04615854123751762
0.3292642608275498
-0.575443147427579
-0.6739147020675963
-0.47697159278756174
-0.40311792680755576
-0.396963454642546
-0.390808982477564
-0.40311792680755576
-0.40311792680755576
-0.4154268711375475
-0.433890287632549
-0.433890287632549
-0.427735815467567
-0.4154268711375475
-0.433890287632549
-0.4523537041275505
-0.3292642608275498
-0.28618295567253704
-0.360036621652543
-0.37850003814754446
-0.37850003814754446
-0.37850003814754446
-0.360036621652543
-0.36619109381755277
-0.360036621652543
-0.33541873299255964
-0.32310978866254003
-0.2984919000025288
-0.28618295567253704
-0.2554105948475438
-0.2246382340225228
-0.17540245670252808
0.11385773505251384
-0.08308537422752059
-0.2738740113425453
-0.1384756237125251
-0.05846748556750937
-0.06462195773251911
-0.1015487907225221
-0.17540245670252808
-0.1938658731975296
-0.29233742783754685
-0.26771953917753555
-0.2431016505175243
-0.1938658731975296
-0.14463009587750708
-0.07693090206251085
-0.1261666793825056
-0.05846748556750937
-0.06462195773251911
-0.040004069072507864
-0.040004069072507864
-0.04615854123751762
-0.009231708247514623
-0.01538618041249662
-0.04615854123751762
-0.033849596907498114
-0.10770326288750408
-0.11385773505251384
-0.12001220721752358
-0.10770326288750408
-0.02769512474251612
-0.15693904020752658
-0.4708171206225797
0.04615854123751762
0.009231708247514623
-0.08923984639250257
-0.1261666793825056
-0.15693904020752658
-0.18155692886753785
-0.18771140103251985
-0.18155692886753785
-0.14463009587750708
-0.2246382340225228
-0.2431016505175243
-0.24925612268253405
-0.13232115154751534
-0.12001220721752358
-0.20002034536253932
-0.2431016505175243
0.07693090206251085
0.1015487907225221
-0.2738740113425453
-0.2246382340225228
-0.23079270618753256
-0.24925612268253405
-0.26156506701252585
-0.24925612268253405
-0.396963454642546
-0.6554512855725947
-0.5138984257775646
-0.6062155082525723
-0.6246789247476012
-0.4892805371175811
-0.40311792680755576
-0.37850003814754446
-0.3108008443325483
-0.33541873299255964
-0.29233742783754685
-0.2554105948475438
-0.24925612268253405
-0.26156506701252585
-0.2554105948475438
-0.23079270618753256
-0.1938658731975296
-0.2800284835075273
-0.32310978866254003
-0.396963454642546
-0.33541873299255964
-0.3108008443325483
-0.3108008443325483
-0.29233742783754685
-0.2738740113425453
-0.33541873299255964
-0.34772767732255133
-0.2984919000025288
-0.2738740113425453
-0.2554105948475438
-0.24925612268253405
-0.2369471783525424
-0.1261666793825056
0.12001220721752358
0.5323618422725662
-0.01538618041249662
0.040004069072507864
0.05846748556750937
0.06462195773251911
0.05846748556750937
-0.18155692886753785
-0.33541873299255964
-0.2246382340225228
-0.21232928969253104
-0.21232928969253104
-0.23079270618753256
-0.2431016505175243
-0.20617481752752131
0.05846748556750937
-0.0707764298975011
-0.15693904020752658
-0.16309351237253633
-0.18771140103251985
-0.18155692886753785
-0.20002034536253932
-0.20617481752752131
-0.1938658731975296
-0.2369471783525424
-0.24925612268253405
-0.26156506701252585
-0.26771953917753555
-0.2800284835075273
-0.34772767732255133
-0.538516314437576
-0.4154268711375475
-0.396963454642546
-0.3415732051575415
-0.3108008443325483
-0.29233742783754685
-0.2738740113425453
-0.2738740113425453
-0.2246382340225228
-0.21232928969253104
-0.2369471783525424
-0.21232928969253104
-0.21232928969253104
-0.21232928969253104
-0.1692479845375183
-0.1384756237125251
-0.1384756237125251
-0.15693904020752658
-0.20002034536253932
-0.21848376185754081
-0.24925612268253405
-0.2431016505175243
-0.24925612268253405
-0.24925612268253405
-0.23079270618753256
-0.2431016505175243
-0.2738740113425453
-0.2738740113425453
-0.2984919000025288
-0.28618295567253704
-0.2984919000025288
-0.29233742783754685
-0.26771953917753555
-0.33541873299255964
-0.6677602299025862
-0.17540245670252808
-0.1384756237125251
-0.21232928969253104
-0.2554105948475438
-0.2738740113425453
-0.26771953917753555
-0.31695531649755804
-0.3108008443325483
-0.31695531649755804
-0.29233742783754685
-0.2800284835075273
-0.29233742783754685
-0.28618295567253704
-0.2800284835075273
-0.30464637216753854
-0.2800284835075273
-0.28618295567253704
-0.28618295567253704
-0.2738740113425453
-0.2800284835075273
-0.28618295567253704
-0.2738740113425453
-0.31695531649755804
-0.31695531649755804
-0.31695531649755804
-0.33541873299255964
-0.32310978866254003
-0.30464637216753854
-0.29233742783754685
-0.2431016505175243
-0.2738740113425453
-0.2554105948475438
-0.2431016505175243
-0.2369471783525424
-0.23079270618753256
-0.21848376185754081
-0.21232928969253104
-0.17540245670252808
-0.21848376185754081
-0.20002034536253932
-0.18771140103251985
-0.18155692886753785
-0.17540245670252808
-0.1692479845375183
-0.1692479845375183
-0.16309351237253633
-0.1938658731975296
-0.16309351237253633
-0.17540245670252808
-0.15078456804251686
-0.11385773505251384
-0.11385773505251384
-0.0707764298975011
-0.003077236082504875
-0.05846748556750937
-0.1692479845375183
-0.2554105948475438
-0.13232115154751534
0.24925612268253405
-0.3108008443325483
-0.24925612268253405
-0.3292642608275498
-0.6185244525825918
-0.4523537041275505
-0.36619109381755277
-0.3415732051575415
-0.30464637216753854
-0.28618295567253704
-0.2738740113425453
0.01538618041249662
0.040004069072507864
-0.1015487907225221
-0.15693904020752658
-0.17540245670252808
-0.1938658731975296
-0.21848376185754081
-0.2369471783525424
-0.18155692886753785
-0.2369471783525424
-0.2431016505175243
-0.21848376185754081
-0.21232928969253104
-0.2369471783525424
-0.2738740113425453
-0.5692886752625692
-0.5877520917575707
-0.4892805371175811
-0.42158134330255725
-0.37850003814754446
-0.3723455659825625
-0.3415732051575415
-0.32310978866254003
-0.30464637216753854
-0.26156506701252585
-0.360036621652543
-0.31695531649755804
-0.31695531649755804
-0.31695531649755804
-0.30464637216753854
-0.28618295567253704
-0.28618295567253704
-0.2246382340225228
-0.2984919000025288
-0.2738740113425453
-0.2246382340225228
-0.21232928969253104
-0.20002034536253932
-0.21232928969253104
-0.17540245670252808
-0.1692479845375183
-0.2246382340225228
-0.21848376185754081
-0.23079270618753256
-0.21232928969253104
-0.20002034536253932
-0.2369471783525424
-0.2369471783525424
-0.2431016505175243
-0.2984919000025288
-0.2800284835075273
-0.3415732051575415
-0.6369878690775933
-0.16309351237253633
-0.15693904020752658
-0.2554105948475438
-0.26771953917753555
-0.32310978866254003
-0.3415732051575415
-0.31695531649755804
-0.16309351237253633
-0.20617481752752131
-0.2431016505175243
-0.26771953917753555
-0.26771953917753555
-0.28618295567253704
-0.2738740113425453
-0.2554105948475438
-0.23079270618753256
-0.2369471783525424
-0.2431016505175243
-0.21232928969253104
-0.20002034536253932
-0.21848376185754081
-0.24925612268253405
-0.34772767732255133
-0.29233742783754685
-0.26771953917753555
-0.2431016505175243
-0.2369471783525424
-0.2554105948475438
-0.2738740113425453
-0.2738740113425453
-0.28618295567253704
-0.2800284835075273
-0.2554105948475438
-0.26771953917753555
-0.2738740113425453
-0.2800284835075273
-0.28618295567253704
-0.15078456804251686
-0.20617481752752131
-0.23079270618753256
-0.2554105948475438
-0.26771953917753555
-0.24925612268253405
-0.26156506701252585
-0.2984919000025288
-0.28618295567253704
-0.2738740113425453
-0.28618295567253704
-0.28618295567253704
-0.2984919000025288
-0.26771953917753555
-0.2984919000025288
-0.4523537041275505
-0.3846545103125543
-0.3538821494875609
-0.3292642608275498
-0.30464637216753854
-0.1261666793825056
0.2369471783525424
-0.6062155082525723
-0.5138984257775646
-0.37850003814754446
-0.3415732051575415
-0.3108008443325483
-0.2984919000025288
-0.2984919000025288
-0.13232115154751534
0.033849596907498114
-0.08923984639250257
-0.15693904020752658
-0.18771140103251985
-0.20617481752752131
-0.23079270618753256
-0.24925612268253405
-0.23079270618753256
-0.2554105948475438
-0.2431016505175243
-0.2369471783525424
-0.23079270618753256
-0.24925612268253405
-0.2369471783525424
-0.3415732051575415
-0.4831260649525715
-0.42158134330255725
-0.360036621652543
-0.3292642608275498
-0.30464637216753854
-0.2984919000025288
-0.2984919000025288
-0.30464637216753854
-0.0707764298975011
-0.05846748556750937
-0.46466264845757
-0.003077236082504875
-0.17540245670252808
-0.23079270618753256
-0.1938658731975296
-0.2800284835075273
-0.4092723989725655
-0.6923781185625978
-0.5692886752625692
-0.4708171206225797
-0.42158134330255725
-0.40311792680755576
-0.36619109381755277
-0.3723455659825625
-0.33541873299255964
-0.3846545103125543
-0.37850003814754446
-0.360036621652543
-0.3723455659825625
-0.34772767732255133
-0.31695531649755804
-0.30464637216753854
-0.2738740113425453
-0.33541873299255964
-0.3292642608275498
-0.31695531649755804
-0.3108008443325483
-0.2984919000025288
-0.28618295567253704
-0.2738740113425453
-0.24925612268253405
-0.32310978866254003
-0.30464637216753854
-0.28618295567253704
-0.2738740113425453
-0.2554105948475438
-0.26771953917753555
-0.26156506701252585
-0.2554105948475438
-0.31695531649755804
-0.29233742783754685
-0.29233742783754685
-0.30464637216753854
-0.31695531649755804
-0.29233742783754685
-0.26771953917753555
-0.24925612268253405
-0.2800284835075273
-0.2431016505175243
-0.2738740113425453
-0.2738740113425453
-0.18155692886753785
-0.10770326288750408
-0.10770326288750408
-0.14463009587750708
-0.2800284835075273
-0.3538821494875609
-0.360036621652543
-0.360036621652543
-0.33541873299255964
-0.3415732051575415
-0.42158134330255725
-0.6739147020675963
-0.1938658731975296
-0.1692479845375183
-0.24925612268253405
-0.26771953917753555
-0.2984919000025288
-0.2800284835075273
-0.26771953917753555
-0.24925612268253405
-0.32310978866254003
-0.3108008443325483
-0.2984919000025288
-0.29233742783754685
-0.28618295567253704
-0.2984919000025288
-0.30464637216753854
-0.2738740113425453
-0.31695531649755804
-0.3292642608275498
-0.2984919000025288
-0.2984919000025288
-0.31695531649755804
-0.3292642608275498
-0.3108008443325483
-0.2984919000025288
-0.15693904020752658
0.21232928969253104
-0.33541873299255964
-0.24925612268253405
-0.24925612268253405
-0.2738740113425453
-0.28618295567253704
-0.6185244525825918
-0.6923781185625978
-0.5200528979425745
-0.4092723989725655
-0.3538821494875609
-0.33541873299255964
-0.2984919000025288
-0.2800284835075273
-0.2554105948475438
-0.28618295567253704
-0.26771953917753555
-0.24925612268253405
-0.23079270618753256
-0.24925612268253405
-0.20617481752752131
-0.15693904020752658
-0.18155692886753785
-0.21232928969253104
-0.21848376185754081
-0.21232928969253104
-0.20002034536253932
-0.18155692886753785
-0.17540245670252808
-0.15693904020752658
-0.16309351237253633
-0.21232928969253104
-0.17540245670252808
-0.16309351237253633
-0.18771140103251985
-0.13232115154751534
0.04615854123751762
0.009231708247514623
-0.06462195773251911
-0.12001220721752358
-0.1261666793825056
-0.1261666793825056
-0.15078456804251686
-0.16309351237253633
-0.18155692886753785
-0.1692479845375183
-0.18771140103251985
-0.2431016505175243
-0.2738740113425453
-0.26771953917753555
-0.21848376185754081
-0.12001220721752358
-0.1938658731975296
-0.20002034536253932
-0.23079270618753256
-0.26156506701252585
-0.2369471783525424
-0.23079270618753256
-0.2431016505175243
-0.2431016505175243
-0.2431016505175243
-0.1938658731975296
-0.29233742783754685
-0.5939065639225805
-0.1261666793825056
-0.15693904020752658
-0.4523537041275505
-0.390808982477564
-0.3538821494875609
-0.2984919000025288
-0.2984919000025288
-0.2800284835075273
-0.2800284835075273
-0.28618295567253704
-0.29233742783754685
-0.2800284835075273
-0.26771953917753555
-0.2369471783525424
-0.3108008443325483
-0.30464637216753854
-0.23079270618753256
-0.21232928969253104
-0.23079270618753256
-0.21232928969253104
-0.20617481752752131
-0.18155692886753785
-0.2369471783525424
-0.21848376185754081
-0.18155692886753785
-0.18771140103251985
-0.20002034536253932
-0.1938658731975296
-0.20002034536253932
-0.16309351237253633
-0.2431016505175243
-0.26156506701252585
-0.40311792680755576
-0.3415732051575415
-0.30464637216753854
-0.31695531649755804
-0.3108008443325483
-0.2984919000025288
-0.34772767732255133
-0.33541873299255964
-0.32310978866254003
-0.3292642608275498
-0.3292642608275498
-0.32310978866254003
-0.2984919000025288
-0.2246382340225228
-0.1938658731975296
-0.1384756237125251
-0.1692479845375183
-0.18155692886753785
-0.1938658731975296
-0.20002034536253932
-0.1938658731975296
-0.1938658731975296
-0.2369471783525424
-0.21232928969253104
-0.1938658731975296
-0.02154065257750637
0.3538821494875609
-0.20617481752752131
-0.14463009587750708
-0.2554105948475438
-0.5815976195925888
-0.427735815467567
-0.33541873299255964
-0.29233742783754685
-0.28618295567253704
-0.2738740113425453
-0.29233742783754685
-0.2369471783525424
-0.2738740113425453
-0.2431016505175243
-0.26156506701252585
-0.24925612268253405
-0.2431016505175243
-0.2431016505175243
-0.28618295567253704
-0.2554105948475438
-0.2738740113425453
-0.2431016505175243
-0.2246382340225228
-0.2369471783525424
-0.23079270618753256
-0.2246382340225228
-0.21848376185754081
-0.16309351237253633
-0.20617481752752131
-0.1692479845375183
-0.18155692886753785
-0.20617481752752131
-0.1938658731975296
-0.15693904020752658
-0.15078456804251686
-0.12001220721752358
-0.18155692886753785
-0.1938658731975296
-0.21232928969253104
-0.20617481752752131
-0.2246382340225228
-0.24925612268253405
-0.2369471783525424
-0.21232928969253104
-0.2800284835075273
-0.2554105948475438
-0.23079270618753256
-0.1692479845375183
-0.08923984639250257
-0.16309351237253633
-0.1261666793825056
-0.08308537422752059
-0.13232115154751534
-0.1938658731975296
-0.2984919000025288
-0.3415732051575415
-0.34772767732255133
-0.33541873299255964
-0.2800284835075273
-0.23079270618753256
-0.26156506701252585
-0.2246382340225228
-0.31695531649755804
-0.6185244525825918
-0.1261666793825056
-0.09539431855751236
-0.1692479845375183
-0.18771140103251985
-0.24925612268253405
-0.2554105948475438
-0.2554105948475438
-0.2800284835075273
-0.2738740113425453
-0.26771953917753555
-0.2554105948475438
-0.2554105948475438
-0.26771953917753555
-0.24925612268253405
-0.26771953917753555
-0.2984919000025288
-0.2984919000025288
-0.2984919000025288
-0.30464637216753854
-0.31695531649755804
-0.37850003814754446
-0.3723455659825625
-0.390808982477564
-0.396963454642546
-0.3846545103125543
-0.3846545103125543
-0.3723455659825625
-0.390808982477564
-0.396963454642546
-0.427735815467567
-0.433890287632549
-0.4154268711375475
-0.4092723989725655
-0.37850003814754446
-0.3415732051575415
-0.3723455659825625
-0.40311792680755576
-0.37850003814754446
-0.3723455659825625
-0.3723455659825625
-0.360036621652543
-0.360036621652543
-0.21232928969253104
0.29233742783754685
-0.06462195773251911
-0.10770326288750408
-0.16309351237253633
-0.20617481752752131
-0.21848376185754081
-0.2431016505175243
-0.3108008443325483
-0.6431423412426027
-0.5877520917575707
-0.44619923196256844
-0.3846545103125543
-0.3538821494875609
-0.33541873299255964
-0.16309351237253633
0.05846748556750937
-0.7723862567076134
-0.6000610360875902
-0.4892805371175811
-0.44619923196256844
-0.4400447597975588
-0.44619923196256844
-0.4092723989725655
-0.12001220721752358
-0.360036621652543
-0.575443147427579
-0.46466264845757
-0.4400447597975588
-0.44619923196256844
-0.46466264845757
-0.42158134330255725
-0.3723455659825625
-0.46466264845757
-0.47697159278756174
-0.4831260649525715
-0.5077439536125827
-0.5138984257775646
-0.5200528979425745
-0.5200528979425745
-0.4892805371175811
-0.5138984257775646
-0.46466264845757
-0.4400447597975588
-0.427735815467567
-0.42158134330255725
-0.396963454642546
-0.390808982477564
-0.3292642608275498
-0.40311792680755576
-0.37850003814754446
-0.3723455659825625
-0.36619109381755277
-0.36619109381755277
-0.3723455659825625
-0.36619109381755277
-0.360036621652543
-0.396963454642546
-0.36619109381755277
-0.3723455659825625
-0.360036621652543
-0.32310978866254003
-0.3538821494875609
-0.31695531649755804
-0.2738740113425453
-0.31695531649755804
-0.29233742783754685
-0.30464637216753854
-0.29233742783754685
-0.2738740113425453
-0.28618295567253704
-0.29233742783754685
-0.2554105948475438
-0.3292642608275498
-0.33541873299255964
-0.360036621652543
-0.34772767732255133
-0.3723455659825625
-0.4892805371175811
-0.7416138958825924
-0.26771953917753555
-0.2984919000025288
-0.37850003814754446
-0.37850003814754446
-0.34772767732255133
-0.33541873299255964
-0.32310978866254003
-0.32310978866254003
-0.2800284835075273
-0.32310978866254003
-0.3108008443325483
-0.31695531649755804
-0.32310978866254003
-0.33541873299255964
-0.34772767732255133
-0.3415732051575415
-0.2984919000025288
-0.396963454642546
-0.36619109381755277
-0.31695531649755804
-0.3108008443325483
-0.28618295567253704
-0.28618295567253704
-0.28618295567253704
-0.2738740113425453
-0.33541873299255964
-0.32310978866254003
-0.32310978866254003
-0.32310978866254003
-0.33541873299255964
-0.3415732051575415
-0.32310978866254003
-0.30464637216753854
-0.36619109381755277
-0.3292642608275498
-0.3415732051575415
-0.3415732051575415
-0.3415732051575415
-0.3538821494875609
-0.3292642608275498
-0.2738740113425453
-0.2984919000025288
-0.2984919000025288
-0.29233742783754685
-0.2800284835075273
-0.26156506701252585
-0.26156506701252585
-0.26156506701252585
-0.24925612268253405
-0.29233742783754685
-0.29233742783754685
-0.2738740113425453
-0.2738740113425453
-0.26771953917753555
-0.26771953917753555
-0.18155692886753785
0.12001220721752358
0.20617481752752131
0.538516314437576
-0.04615854123751762
-0.1015487907225221
-0.2246382340225228
-0.3108008443325483
-0.3846545103125543
-0.6431423412426027
-0.6739147020675963
-0.5138984257775646
-0.4400447597975588
-0.390808982477564
-0.36619109381755277
-0.427735815467567
-0.6308333969125834
-0.5077439536125827
-0.44619923196256844
-0.3846545103125543
-0.36619109381755277
-0.360036621652543
-0.34772767732255133
-0.34772767732255133
-0.32310978866254003
-0.33541873299255964
-0.3723455659825625
-0.36619109381755277
-0.34772767732255133
-0.3538821494875609
-0.36619109381755277
-0.396963454642546
-0.37850003814754446
-0.36619109381755277
-0.3846545103125543
-0.36619109381755277
-0.3538821494875609
-0.3538821494875609
-0.32310978866254003
-0.32310978866254003
-0.2800284835075273
-0.2738740113425453
-0.3108008443325483
-0.29233742783754685
-0.29233742783754685
-0.26771953917753555
-0.1938658731975296
-0.2246382340225228
-0.23079270618753256
-0.26771953917753555
-0.26156506701252585
-0.24925612268253405
-0.24925612268253405
-0.26156506701252585
-0.2738740113425453
-0.29233742783754685
-0.28618295567253704
-0.3292642608275498
-0.34772767732255133
-0.3538821494875609
-0.3108008443325483
-0.28618295567253704
-0.28618295567253704
-0.30464637216753854
0.01538618041249662
-0.3108008443325483
-0.8831667556776225
-0.2554105948475438
-0.18771140103251985
-0.2554105948475438
-0.2554105948475438
-0.23079270618753256
-0.18771140103251985
-0.2246382340225228
-0.21848376185754081
-0.18771140103251985
-0.2369471783525424
-0.24925612268253405
-0.23079270618753256
-0.24925612268253405
-0.2431016505175243
-0.30464637216753854
-0.29233742783754685
-0.2984919000025288
-0.2984919000025288
-0.2984919000025288
-0.30464637216753854
-0.3292642608275498
-0.2738740113425453
-0.3538821494875609
-0.3723455659825625
-0.36619109381755277
-0.3415732051575415
-0.32310978866254003
-0.3415732051575415
-0.32310978866254003
-0.29233742783754685
-0.360036621652543
-0.3538821494875609
-0.33541873299255964
-0.33541873299255964
-0.3292642608275498
-0.32310978866254003
-0.3292642608275498
-0.29233742783754685
-0.31695531649755804
-0.28618295567253704
-0.3108008443325483
-0.2984919000025288
-0.2984919000025288
-0.30464637216753854
-0.32310978866254003
-0.29233742783754685
-0.3292642608275498
-0.3292642608275498
-0.33541873299255964
-0.3292642608275498
-0.30464637216753854
-0.2984919000025288
-0.2738740113425453
-0.23079270618753256
-0.29233742783754685
-0.26156506701252585
-0.2738740113425453
-0.08923984639250257
0.31695531649755804
-0.26156506701252585
-0.21848376185754081
-0.37850003814754446
-0.6185244525825918
-0.4585081762925601
-0.4092723989725655
-0.396963454642546
-0.3846545103125543
-0.3723455659825625
-0.33541873299255964
-0.2984919000025288
-0.360036621652543
-0.33541873299255964
-0.3292642608275498
-0.34772767732255133
-0.3415732051575415
-0.31695531649755804
-0.3108008443325483
-0.2800284835075273
-0.3108008443325483
-0.2984919000025288
-0.2738740113425453
-0.29233742783754685
-0.2738740113425453
-0.24925612268253405
-0.2738740113425453
-0.26156506701252585
-0.31695531649755804
-0.29233742783754685
-0.2738740113425453
-0.26771953917753555
-0.26771953917753555
-0.2800284835075273
-0.2738740113425453
-0.2431016505175243
-0.30464637216753854
-0.2800284835075273
-0.2800284835075273
-0.2431016505175243
-0.24925612268253405
-0.29233742783754685
-0.24925612268253405
-0.2369471783525424
-0.2738740113425453
-0.2554105948475438
-0.2554105948475438
-0.2554105948475438
-0.26156506701252585
-0.2738740113425453
-0.2369471783525424
-0.21848376185754081
-0.2800284835075273
-0.2984919000025288
-0.29233742783754685
-0.37850003814754446
-0.42158134330255725
-0.3538821494875609
-0.2738740113425453
0.02154065257750637
-0.6985325907276074
-0.07693090206251085
-0.10770326288750408
-0.20617481752752131
-0.2246382340225228
-0.21848376185754081
-0.2554105948475438
-0.5692886752625692
-0.5877520917575707
-0.42158134330255725
-0.34772767732255133
-0.3415732051575415
-0.34772767732255133
-0.32310978866254003
-0.32310978866254003
-0.360036621652543
-0.31695531649755804
-0.3108008443325483
-0.31695531649755804
-0.32310978866254003
-0.31695531649755804
-0.2984919000025288
-0.26771953917753555
-0.2554105948475438
-0.20002034536253932
-0.0707764298975011
-0.15078456804251686
-0.12001220721752358
-0.0707764298975011
-0.08923984639250257
-0.14463009587750708
-0.2738740113425453
-0.3723455659825625
-0.37850003814754446
-0.3846545103125543
-0.396963454642546
-0.36619109381755277
-0.33541873299255964
-0.3292642608275498
-0.32310978866254003
-0.3292642608275498
-0.31695531649755804
-0.31695531649755804
-0.3108008443325483
-0.2800284835075273
-0.28618295567253704
-0.29233742783754685
-0.3108008443325483
-0.3108008443325483
-0.31695531649755804
-0.30464637216753854
-0.3108008443325483
-0.31695531649755804
-0.3108008443325483
0.003077236082504875
-0.20617481752752131
-0.40311792680755576
-0.31695531649755804
-0.31695531649755804
-0.32310978866254003
-0.3415732051575415
-0.14463009587750708
-0.05231301340249961
-0.8770122835126126
-0.24925612268253405
-0.2800284835075273
-0.2984919000025288
-0.32310978866254003
-0.3292642608275498
-0.21848376185754081
-0.04615854123751762
-0.18771140103251985
-0.2246382340225228
-0.2431016505175243
-0.2554105948475438
-0.26771953917753555
-0.2738740113425453
-0.29233742783754685
-0.24925612268253405
-0.28618295567253704
-0.2800284835075273
-0.28618295567253704
-0.30464637216753854
-0.32310978866254003
-0.2800284835075273
-0.18771140103251985
-0.20617481752752131
-0.28618295567253704
-0.30464637216753854
-0.29233742783754685
-0.28618295567253704
-0.29233742783754685
-0.28618295567253704
-0.29233742783754685
-0.2431016505175243
-0.29233742783754685
-0.28618295567253704
-0.2738740113425453
-0.26771953917753555
-0.433890287632549
-0.6062155082525723
-0.4523537041275505
-0.3538821494875609
-0.390808982477564
-0.3723455659825625
-0.3538821494875609
-0.3415732051575415
-0.3415732051575415
-0.34772767732255133
-0.32310978866254003
-0.29233742783754685
-0.3415732051575415
-0.32310978866254003
-0.3292642608275498
-0.31695531649755804
-0.360036621652543
-0.34772767732255133
-0.3538821494875609
-0.32310978866254003
-0.36619109381755277
-0.3415732051575415
-0.32310978866254003
-0.3415732051575415
-0.33541873299255964
-0.4092723989725655
-0.6923781185625978
-0.14463009587750708
-0.20617481752752131
-0.26156506701252585
-0.2246382340225228
-0.32310978866254003
-0.31695531649755804
-0.30464637216753854
-0.29233742783754685
-0.28618295567253704
-0.3538821494875609
-0.3292642608275498
-0.31695531649755804
-0.30464637216753854
-0.3108008443325483
-0.3292642608275498
-0.3415732051575415
-0.29233742783754685
-0.37850003814754446
-0.2984919000025288
-0.28618295567253704
-0.30464637216753854
-0.31695531649755804
-0.3415732051575415
-0.34772767732255133
-0.30464637216753854
-0.32310978866254003
-0.3108008443325483
-0.2984919000025288
-0.29233742783754685
-0.29233742783754685
-0.30464637216753854
-0.28618295567253704
-0.2431016505175243
-0.2800284835075273
-0.28618295567253704
-0.2738740113425453
-0.26156506701252585
-0.2738740113425453
-0.2984919000025288
-0.2984919000025288
-0.2800284835075273
-0.31695531649755804
-0.3108008443325483
-0.2738740113425453
-0.26771953917753555
-0.26156506701252585
-0.2984919000025288
-0.2800284835075273
-0.17540245670252808
-0.2369471783525424
-0.2554105948475438
-0.26156506701252585
-0.26156506701252585
-0.2554105948475438
-0.2369471783525424
-0.20617481752752131
-0.21848376185754081
-0.09539431855751236
0.20617481752752131
-0.21848376185754081
-0.18155692886753785
-0.23079270618753256
-0.2738740113425453
-0.4154268711375475
-0.7231504793875909
-0.6985325907276074
-0.538516314437576
-0.4892805371175811
-0.47697159278756174
-0.4585081762925601
-0.44619923196256844
-0.4092723989725655
-0.4092723989725655
-0.4523537041275505
-0.42158134330255725
-0.40311792680755576
-0.396963454642546
-0.34772767732255133
-0.2984919000025288
-0.3292642608275498
-0.360036621652543
-0.37850003814754446
-0.3846545103125543
-0.3846545103125543
-0.37850003814754446
-0.3723455659825625
-0.36619109381755277
-0.32310978866254003
-0.33541873299255964
-0.36619109381755277
-0.360036621652543
-0.34772767732255133
-0.32310978866254003
-0.2431016505175243
-0.26771953917753555
-0.24925612268253405
-0.2984919000025288
-0.30464637216753854
-0.29233742783754685
-0.28618295567253704
-0.2984919000025288
-0.30464637216753854
-0.3108008443325483
-0.2738740113425453
-0.31695531649755804
-0.3108008443325483
-0.30464637216753854
-0.3415732051575415
-0.42158134330255725
-0.396963454642546
-0.34772767732255133
-0.29233742783754685
-0.34772767732255133
-0.3415732051575415
-0.33541873299255964
-0.33541873299255964
-0.3292642608275498
-0.31695531649755804
-0.3108008443325483
-0.29233742783754685
-0.42158134330255725
-0.7293049515526008
-0.18155692886753785
-0.12001220721752358
-0.2369471783525424
-0.24925612268253405
-0.23079270618753256
-0.18771140103251985
-0.20002034536253932
-0.18155692886753785
-0.21848376185754081
-0.2984919000025288
-0.390808982477564
-0.433890287632549
-0.427735815467567
-0.37850003814754446
-0.42158134330255725
-0.427735815467567
-0.427735815467567
-0.4154268711375475
-0.4092723989725655
-0.4092723989725655
-0.3723455659825625
-0.2984919000025288
-0.3723455659825625
-0.36619109381755277
-0.31695531649755804
-0.30464637216753854
-0.3108008443325483
-0.32310978866254003
-0.32310978866254003
-0.2738740113425453
-0.31695531649755804
-0.3292642608275498
-0.3292642608275498
-0.3108008443325483
-0.3292642608275498
-0.33541873299255964
-0.3538821494875609
-0.3292642608275498
-0.4092723989725655
-0.433890287632549
-0.4523537041275505
-0.44619923196256844
-0.46466264845757
-0.5015894814475731
-0.4831260649525715
-0.34772767732255133
-0.3538821494875609
-0.4154268711375475
-0.427735815467567
-0.427735815467567
-0.4585081762925601
-0.44619923196256844
-0.390808982477564
-0.360036621652543
-0.427735815467567
-0.396963454642546
-0.4154268711375475
-0.23079270618753256
0.11385773505251384
-0.5077439536125827
-0.5200528979425745
-0.7169960072226089
-0.8523943948526291
-0.6492968134075847
-0.5446707866025856
-0.4831260649525715
-0.4523537041275505
-0.427735815467567
-0.36619109381755277
0.05846748556750937
-0.5877520917575707
-0.08923984639250257
-0.08923984639250257
-0.1938658731975296
-0.21848376185754081
-0.32310978866254003
-0.36619109381755277
-0.5138984257775646
-0.6000610360875902
-0.4154268711375475
-0.31695531649755804
-0.2738740113425453
-0.26771953917753555
-0.2246382340225228
-0.18155692886753785
-0.15078456804251686
-0.18771140103251985
-0.17540245670252808
-0.1938658731975296
-0.17540245670252808
-0.05231301340249961
-0.10770326288750408
-0.16309351237253633
-0.18771140103251985
-0.26771953917753555
-0.2800284835075273
-0.29233742783754685
-0.33541873299255964
-0.3723455659825625
-0.390808982477564
-0.40311792680755576
-0.40311792680755576
-0.4585081762925601
-0.4523537041275505
-0.433890287632549
-0.396963454642546
-0.360036621652543
-0.3415732051575415
-0.3108008443325483
-0.2738740113425453
-0.2738740113425453
-0.24925612268253405
-0.2554105948475438
-0.24925612268253405
-0.2369471783525424
-0.26156506701252585
-0.2431016505175243
-0.2246382340225228
-0.26771953917753555
-0.24925612268253405
-0.26156506701252585
-0.26771953917753555
-0.24925612268253405
-0.2246382340225228
-0.15693904020752658
-0.16309351237253633
-0.18155692886753785
-0.18155692886753785
-0.18771140103251985
-0.18155692886753785
-0.18771140103251985
-0.2246382340225228
-0.49543500928256323
-0.3723455659825625
-0.01538618041249662
-0.10770326288750408
-0.17540245670252808
-0.21848376185754081
-0.21232928969253104
-0.24925612268253405
-0.2369471783525424
-0.2800284835075273
-0.3292642608275498
-0.28618295567253704
-0.28618295567253704
-0.3108008443325483
-0.3292642608275498
-0.3415732051575415
-0.32310978866254003
-0.33541873299255964
-0.2246382340225228
-0.2431016505175243
-0.28618295567253704
-0.28618295567253704
-0.2800284835075273
-0.29233742783754685
-0.28618295567253704
-0.3292642608275498
-0.3108008443325483
-0.28618295567253704
-0.29233742783754685
-0.29233742783754685
-0.2984919000025288
-0.30464637216753854
-0.23079270618753256
-0.23079270618753256
-0.23079270618753256
-0.2369471783525424
-0.2431016505175243
-0.2369471783525424
-0.20617481752752131
-0.20617481752752131
-0.18155692886753785
-0.21848376185754081
-0.21848376185754081
-0.2246382340225228
-0.2369471783525424
-0.24925612268253405
-0.26156506701252585
-0.13232115154751534
-0.0707764298975011
-0.7477683680476023
-0.5262073701075842
-0.4585081762925601
-0.4154268711375475
-0.3846545103125543
-0.3846545103125543
-0.3723455659825625
-0.33541873299255964
-0.3846545103125543
-0.3723455659825625
-0.360036621652543
-0.36619109381755277
-0.3538821494875609
-0.3108008443325483
-0.30464637216753854
-0.26156506701252585
-0.3108008443325483
-0.3292642608275498
-0.31695531649755804
-0.2984919000025288
-0.3108008443325483
-0.3292642608275498
-0.30464637216753854
-0.30464637216753854
-0.34772767732255133
-0.3415732051575415
-0.3723455659825625
-0.3723455659825625
-0.2984919000025288
-0.396963454642546
-0.3846545103125543
-0.3108008443325483
-0.34772767732255133
-0.33541873299255964
-0.32310978866254003
-0.2984919000025288
-0.2984919000025288
-0.26771953917753555
-0.26771953917753555
-0.20002034536253932
-0.21232928969253104
-0.18155692886753785
-0.20617481752752131
-0.26156506701252585
-0.3292642608275498
-0.37850003814754446
-0.37850003814754446
-0.31695531649755804
-0.3846545103125543
-0.36619109381755277
-0.3292642608275498
-0.31695531649755804
-0.32310978866254003
-0.34772767732255133
-0.3538821494875609
-0.3292642608275498
-0.36619109381755277
-0.3538821494875609
-0.30464637216753854
-0.2984919000025288
-0.30464637216753854
-0.37850003814754446
-0.6369878690775933
-0.1384756237125251
-0.13232115154751534
-0.23079270618753256
-0.2554105948475438
-0.2738740113425453
-0.2738740113425453
-0.2738740113425453
-0.26771953917753555
-0.2800284835075273
-0.3108008443325483
-0.29233742783754685
-0.31695531649755804
-0.2984919000025288
-0.3108008443325483
-0.34772767732255133
-0.34772767732255133
-0.3292642608275498
-0.36619109381755277
-0.3415732051575415
-0.33541873299255964
-0.32310978866254003
-0.31695531649755804
-0.29233742783754685
-0.29233742783754685
-0.24925612268253405
-0.009231708247514623
0.02154065257750637
-0.09539431855751236
-0.15078456804251686
-0.20002034536253932
-0.20617481752752131
-0.1938658731975296
-0.20617481752752131
-0.2431016505175243
-0.24925612268253405
-0.28618295567253704
-0.2369471783525424
-0.26156506701252585
-0.2800284835075273
-0.31695531649755804
-0.6123699804175822
-0.5692886752625692
-0.4523537041275505
-0.4154268711375475
-0.396963454642546
-0.360036621652543
-0.3415732051575415
-0.3108008443325483
-0.2984919000025288
-0.34772767732255133
-0.31695531649755804
-0.31695531649755804
-0.31695531649755804
-0.32310978866254003
-0.3292642608275498
-0.3292642608275498
-0.3415732051575415
-0.1692479845375183
0.15078456804251686
-0.2738740113425453
-0.21232928969253104
-0.23079270618753256
-0.2431016505175243
-0.2800284835075273
-0.5508252587675677
-0.5138984257775646
-0.360036621652543
-0.2984919000025288
-0.2738740113425453
-0.2431016505175243
-0.24925612268253405
-0.2431016505175243
-0.2554105948475438
-0.2984919000025288
-0.2800284835075273
-0.2738740113425453
-0.24925612268253405
-0.23079270618753256
-0.2369471783525424
-0.23079270618753256
-0.24925612268253405
-0.2554105948475438
-0.26156506701252585
-0.2431016505175243
-0.21848376185754081
-0.20617481752752131
-0.20617481752752131
-0.1938658731975296
-0.2246382340225228
-0.23079270618753256
-0.21848376185754081
-0.2246382340225228
-0.20002034536253932
-0.18771140103251985
-0.1692479845375183
-0.1261666793825056
-0.1692479845375183
-0.18771140103251985
-0.1938658731975296
-0.1938658731975296
-0.1938658731975296
-0.20617481752752131
-0.2369471783525424
-0.20002034536253932
-0.2369471783525424
-0.23079270618753256
-0.24925612268253405
-0.26156506701252585
-0.2738740113425453
-0.2738740113425453
-0.24925612268253405
-0.23079270618753256
-0.2800284835075273
-0.2738740113425453
-0.2554105948475438
-0.2554105948475438
-0.2369471783525424
-0.21848376185754081
-0.20002034536253932
-0.1692479845375183
-0.2738740113425453
-0.5508252587675677
-0.05231301340249961
0.01538618041249662
-0.05231301340249961
-0.08308537422752059
-0.08308537422752059
-0.05846748556750937
-0.1015487907225221
-0.0707764298975011
-0.0707764298975011
-0.1015487907225221
-0.12001220721752358
-0.1384756237125251
-0.16309351237253633
-0.1261666793825056
-0.20002034536253932
-0.20002034536253932
-0.20002034536253932
-0.1938658731975296
-0.21232928969253104
-0.21232928969253104
-0.2246382340225228
0.11385773505251384
0.1938658731975296
-0.15693904020752658
-0.1261666793825056
-0.1384756237125251
-0.17540245670252808
-0.18155692886753785
-0.18771140103251985
-0.33541873299255964
-0.5815976195925888
-0.40311792680755576
-0.32310978866254003
-0.26156506701252585
-0.24925612268253405
-0.23079270618753256
-0.1938658731975296
-0.1261666793825056
-0.23079270618753256
-0.18771140103251985
-0.18771140103251985
-0.1692479845375183
-0.15078456804251686
-0.16309351237253633
-0.14463009587750708
-0.1015487907225221
-0.1938658731975296
-0.18155692886753785
-0.20002034536253932
-0.1938658731975296
-0.21232928969253104
-0.21848376185754081
-0.20617481752752131
-0.26771953917753555
-0.2984919000025288
-0.2431016505175243
-0.20617481752752131
-0.02769512474251612
0.29233742783754685
-0.11385773505251384
-0.06462195773251911
-0.29233742783754685
-0.433890287632549
-0.2800284835075273
-0.21232928969253104
-0.20617481752752131
-0.20002034536253932
-0.17540245670252808
-0.1692479845375183
-0.15078456804251686
-0.18771140103251985
-0.15078456804251686
-0.18155692886753785
-0.20002034536253932
-0.1938658731975296
-0.21232928969253104
-0.18771140103251985
-0.15693904020752658
-0.23079270618753256
-0.2246382340225228
-0.20002034536253932
-0.20002034536253932
-0.18155692886753785
-0.17540245670252808
-0.16309351237253633
-0.16309351237253633
-0.23079270618753256
-0.2554105948475438
-0.26771953917753555
-0.24925612268253405
-0.24925612268253405
-0.2369471783525424
-0.1938658731975296
-0.16309351237253633
-0.14463009587750708
-0.08308537422752059
-0.02154065257750637
0.009231708247514623
-0.0707764298975011
-0.17540245670252808
-0.23079270618753256
-0.2554105948475438
-0.2984919000025288
-0.2800284835075273
-0.2800284835075273
-0.2800284835075273
-0.26156506701252585
-0.2800284835075273
-0.29233742783754685
-0.3108008443325483
-0.3538821494875609
-0.2800284835075273
-0.11385773505251384
-0.16309351237253633
-0.1938658731975296
-0.21232928969253104
-0.2369471783525424
-0.2369471783525424
-0.26771953917753555
-0.26771953917753555
-0.3538821494875609
-0.6431423412426027
-0.15078456804251686
-0.11385773505251384
-0.18771140103251985
-0.2369471783525424
-0.30464637216753854
-0.4154268711375475
-0.3723455659825625
-0.360036621652543
-0.34772767732255133
-0.33541873299255964
-0.3108008443325483
-0.3846545103125543
-0.3723455659825625
-0.36619109381755277
-0.36619109381755277
-0.36619109381755277
-0.3723455659825625
-0.36619109381755277
-0.34772767732255133
-0.29233742783754685
-0.2738740113425453
-0.32310978866254003
-0.33541873299255964
-0.33541873299255964
-0.3415732051575415
-0.3538821494875609
-0.06462195773251911
-0.2984919000025288
-0.5200528979425745
-0.37850003814754446
-0.36619109381755277
-0.33541873299255964
-0.32310978866254003
-0.34772767732255133
-0.26771953917753555
-0.2800284835075273
-0.32310978866254003
-0.34772767732255133
-0.390808982477564
-0.3415732051575415
-0.30464637216753854
-0.30464637216753854
-0.26771953917753555
-0.29233742783754685
-0.26771953917753555
-0.28618295567253704
-0.31695531649755804
-0.2800284835075273
-0.2984919000025288
-0.32310978866254003
-0.37850003814754446
-0.3723455659825625
-0.33541873299255964
-0.3292642608275498
-0.3292642608275498
-0.3538821494875609
-0.33541873299255964
-0.15693904020752658
0.05846748556750937
-0.6369878690775933
-0.46466264845757
-0.42158134330255725
-0.4154268711375475
-0.396963454642546
-0.3108008443325483
-0.3292642608275498
-0.28618295567253704
-0.3292642608275498
-0.3108008443325483
-0.31695531649755804
-0.32310978866254003
-0.3415732051575415
-0.3538821494875609
-0.3415732051575415
-0.2554105948475438
-0.2738740113425453
-0.2738740113425453
-0.26156506701252585
-0.26156506701252585
-0.28618295567253704
-0.32310978866254003
-0.34772767732255133
-0.32310978866254003
-0.390808982477564
-0.360036621652543
-0.3538821494875609
-0.33541873299255964
-0.3292642608275498
-0.33541873299255964
-0.360036621652543
-0.33541873299255964
-0.4092723989725655
-0.3846545103125543
-0.360036621652543
-0.3292642608275498
-0.33541873299255964
-0.3292642608275498
-0.3415732051575415
-0.34772767732255133
-0.37850003814754446
-0.3538821494875609
-0.36619109381755277
-0.3538821494875609
-0.3415732051575415
-0.34772767732255133
-0.360036621652543
-0.3415732051575415
-0.4092723989725655
-0.396963454642546
-0.36619109381755277
-0.3723455659825625
-0.36619109381755277
-0.3415732051575415
-0.31695531649755804
-0.31695531649755804
-0.360036621652543
-0.32310978866254003
-0.31695531649755804
-0.2984919000025288
-0.2984919000025288
-0.390808982477564
-0.6800691742326057
-0.20002034536253932
-0.1938658731975296
-0.26156506701252585
-0.26771953917753555
-0.2738740113425453
-0.29233742783754685
-0.30464637216753854
-0.29233742783754685
-0.29233742783754685
-0.33541873299255964
-0.33541873299255964
-0.34772767732255133
-0.3538821494875609
-0.360036621652543
-0.34772767732255133
-0.34772767732255133
-0.3415732051575415
-0.360036621652543
-0.36619109381755277
-0.360036621652543
-0.3723455659825625
-0.3538821494875609
-0.34772767732255133
-0.34772767732255133
-0.32310978866254003
-0.360036621652543
-0.36619109381755277
-0.34772767732255133
-0.32310978866254003
-0.390808982477564
-0.427735815467567
-0.36619109381755277
-0.1692479845375183
-0.24925612268253405
-0.28618295567253704
-0.30464637216753854
-0.31695531649755804
-0.3538821494875609
-0.3538821494875609
-0.3108008443325483
-0.3108008443325483
-0.33541873299255964
-0.31695531649755804
-0.3108008443325483
-0.30464637216753854
-0.3292642608275498
-0.3723455659825625
-0.5262073701075842
-0.5262073701075842
-0.46466264845757
-0.5323618422725662
-0.44619923196256844
-0.31695531649755804
-0.33541873299255964
-0.34772767732255133
-0.2554105948475438
-0.24925612268253405
-0.21232928969253104
0.1938658731975296
-0.360036621652543
-0.30464637216753854
-0.2554105948475438
-0.23079270618753256
-0.31695531649755804
-0.6554512855725947
-0.5815976195925888
-0.47697159278756174
-0.44619923196256844
-0.4400447597975588
-0.433890287632549
-0.396963454642546
-0.3538821494875609
-0.390808982477564
-0.3846545103125543
-0.37850003814754446
-0.390808982477564
-0.36619109381755277
-0.32310978866254003
-0.3538821494875609
-0.0707764298975011
-0.2800284835075273
-0.5015894814475731
-0.4092723989725655
-0.3723455659825625
-0.33541873299255964
-0.32310978866254003
-0.31695531649755804
-0.2431016505175243
-0.2554105948475438
-0.26156506701252585
-0.33541873299255964
-0.3846545103125543
-0.5077439536125827
-0.5015894814475731
-0.4585081762925601
-0.2554105948475438
-0.4400447597975588
-0.5262073701075842
-0.02154065257750637
-0.1692479845375183
-0.17540245670252808
-0.13232115154751534
-0.2984919000025288
-0.40311792680755576
-0.7231504793875909
-0.5692886752625692
-0.44619923196256844
-0.42158134330255725
-0.4092723989725655
-0.40311792680755576
-0.3846545103125543
-0.33541873299255964
-0.40311792680755576
-0.390808982477564
-0.396963454642546
-0.396963454642546
-0.37850003814754446
-0.390808982477564
-0.36619109381755277
-0.32310978866254003
-0.396963454642546
-0.32310978866254003
-0.36619109381755277
-0.396963454642546
-0.40311792680755576
-0.4092723989725655
-0.36619109381755277
-0.32310978866254003
-0.3723455659825625
-0.3415732051575415
-0.31695531649755804
-0.3108008443325483
-0.31695531649755804
-0.31695531649755804
-0.31695531649755804
-0.26156506701252585
-0.30464637216753854
-0.30464637216753854
-0.29233742783754685
-0.2984919000025288
-0.32310978866254003
-0.3415732051575415
-0.33541873299255964
-0.3108008443325483
-0.3723455659825625
-0.3415732051575415
-0.3415732051575415
-0.33541873299255964
-0.32310978866254003
-0.33541873299255964
-0.33541873299255964
-0.29233742783754685
-0.3846545103125543
-0.360036621652543
-0.34772767732255133
-0.3415732051575415
-0.33541873299255964
-0.33541873299255964
-0.30464637216753854
-0.28618295567253704
-0.3538821494875609
-0.3538821494875609
-0.3538821494875609
-0.6185244525825918
-0.5446707866025856
-0.13232115154751534
-0.26156506701252585
-0.427735815467567
-0.433890287632549
-0.40311792680755576
-0.3846545103125543
-0.36619109381755277
-0.34772767732255133
-0.3415732051575415
-0.3292642608275498
-0.2984919000025288
-0.3538821494875609
-0.36619109381755277
-0.360036621652543
-0.17540245670252808
0.12001220721752358
-0.20002034536253932
-0.20002034536253932
-0.4585081762925601
-0.5692886752625692
-0.42158134330255725
-0.360036621652543
-0.3292642608275498
-0.3292642608275498
-0.3292642608275498
-0.31695531649755804
-0.29233742783754685
-0.32310978866254003
-0.3108008443325483
-0.3108008443325483
-0.29233742783754685
-0.26156506701252585
-0.3292642608275498
-0.3108008443325483
-0.28618295567253704
-0.3292642608275498
-0.3415732051575415
-0.3415732051575415
-0.3415732051575415
-0.3415732051575415
-0.34772767732255133
-0.33541873299255964
-0.31695531649755804
-0.360036621652543
-0.36619109381755277
-0.37850003814754446
-0.36619109381755277
-0.33541873299255964
-0.32310978866254003
-0.32310978866254003
-0.3538821494875609
-0.37850003814754446
-0.3723455659825625
-0.37850003814754446
-0.40311792680755576
-0.4092723989725655
-0.390808982477564
-0.3415732051575415
-0.3538821494875609
-0.3846545103125543
-0.3415732051575415
-0.3415732051575415
-0.3723455659825625
-0.3538821494875609
-0.360036621652543
-0.3292642608275498
-0.33541873299255964
-0.33541873299255964
-0.32310978866254003
-0.31695531649755804
-0.30464637216753854
-0.2984919000025288
-0.30464637216753854
-0.2984919000025288
-0.31695531649755804
-0.28618295567253704
-0.2738740113425453
-0.390808982477564
-0.6677602299025862
