-0.396963454642546
-0.427735815467567
-0.4523537041275505
-0.396963454642546
-0.36619109381755277
-0.4892805371175811
-0.4092723989725655
-0.4523537041275505
-0.4585081762925601
-0.40311792680755576
-0.5262073701075842
-0.6739147020675963
-0.6246789247476012
-0.6677602299025862
-0.6246789247476012
-0.6739147020675963
-0.6616057577376044
-0.6739147020675963
-0.5815976195925888
-0.46466264845757
-0.4585081762925601
-0.5077439536125827
-0.44619923196256844
-0.40311792680755576
-0.390808982477564
-0.42158134330255725
-0.4708171206225797
-0.3846545103125543
-0.3846545103125543
-0.5138984257775646
-0.6000610360875902
-0.7169960072226089
-0.6985325907276074
-0.7293049515526008
-0.8031586175326066
-1.2832074464026733
-0.2431016505175243
0.14463009587750708
-0.2246382340225228
-0.5631342030975872
-0.7970041453676248
-0.8708578113476306
-0.8523943948526291
-0.7723862567076134
-0.7846952010376053
-0.8277765061926179
-0.8647033391826209
-0.7908496732026148
-0.7600773123775938
-0.7477683680476023
-0.8400854505226096
-0.8708578113476306
-1.0554919762976458
-0.8831667556776225
-0.6677602299025862
-0.5077439536125827
-0.40311792680755576
-0.28618295567253704
-0.1692479845375183
-0.07693090206251085
-0.05846748556750937
-0.040004069072507864
0.009231708247514623
-0.02769512474251612
-0.10770326288750408
-0.15693904020752658
-0.1692479845375183
-0.396963454642546
-0.3292642608275498
-0.33541873299255964
-0.28618295567253704
-0.3108008443325483
-0.3292642608275498
-0.30464637216753854
-0.26771953917753555
-0.16309351237253633
-0.1938658731975296
-0.2431016505175243
-0.24925612268253405
-0.2738740113425453
-0.29233742783754685
-0.11385773505251384
-0.12001220721752358
-0.18771140103251985
-0.30464637216753854
-0.4523537041275505
-0.5877520917575707
-0.5631342030975872
-0.5569797309325777
-0.4523537041275505
-0.33541873299255964
-0.18155692886753785
-0.1938658731975296
0.0707764298975011
0.6554512855725947
-0.7046870628925892
-0.40311792680755576
-0.17540245670252808
-0.1261666793825056
-0.14463009587750708
-0.6985325907276074
-0.4523537041275505
-0.26771953917753555
-0.2369471783525424
-0.24925612268253405
-0.3292642608275498
-0.3538821494875609
-0.30464637216753854
-0.4154268711375475
-0.40311792680755576
-0.33541873299255964
-0.21848376185754081
-0.3108008443325483
-0.31695531649755804
-0.26771953917753555
-0.2554105948475438
-0.396963454642546
-0.32310978866254003
-0.2554105948475438
-0.2984919000025288
-0.26156506701252585
-0.2800284835075273
-0.33541873299255964
-0.3538821494875609
-0.390808982477564
-0.390808982477564
-0.32310978866254003
-0.31695531649755804
-0.14463009587750708
-0.14463009587750708
-0.18771140103251985
-0.10770326288750408
-0.33541873299255964
-0.2431016505175243
-0.1692479845375183
-0.15693904020752658
-0.14463009587750708
-0.1692479845375183
-0.16309351237253633
-0.06462195773251911
-0.26156506701252585
-0.13232115154751534
-0.17540245670252808
-0.20617481752752131
-0.16309351237253633
-0.17540245670252808
-0.1938658731975296
-0.0707764298975011
-0.1938658731975296
-0.18771140103251985
-0.14463009587750708
-0.1384756237125251
-0.15693904020752658
-0.16309351237253633
-0.13232115154751534
-0.10770326288750408
-0.2984919000025288
-0.8523943948526291
0.09539431855751236
0.1015487907225221
-0.18771140103251985
-0.2738740113425453
-0.29233742783754685
-0.17540245670252808
-0.2800284835075273
-0.2369471783525424
-0.1692479845375183
-0.1692479845375183
-0.18155692886753785
-0.18155692886753785
-0.18771140103251985
-0.07693090206251085
-0.2738740113425453
-0.21848376185754081
-0.18155692886753785
-0.17540245670252808
-0.15693904020752658
-0.13232115154751534
-0.12001220721752358
-0.05846748556750937
-0.16309351237253633
-0.17540245670252808
-0.1692479845375183
-0.14463009587750708
-0.12001220721752358
-0.1261666793825056
-0.033849596907498114
0.7231504793875909
0.31695531649755804
-0.29233742783754685
-0.1692479845375183
-0.17540245670252808
-0.15693904020752658
-0.1261666793825056
-0.11385773505251384
-0.3292642608275498
-0.7416138958825924
-0.390808982477564
-0.2246382340225228
-0.20617481752752131
-0.23079270618753256
-0.18155692886753785
-0.13232115154751534
-0.1015487907225221
-0.21848376185754081
-0.21232928969253104
-0.18771140103251985
-0.17540245670252808
-0.16309351237253633
-0.14463009587750708
-0.10770326288750408
-0.033849596907498114
-0.24925612268253405
-0.1692479845375183
-0.14463009587750708
0.17540245670252808
0.9262480608326351
-0.36619109381755277
-0.21848376185754081
-0.44619923196256844
-0.6862236463975879
-0.32310978866254003
-0.1938658731975296
-0.18155692886753785
-0.20002034536253932
-0.15078456804251686
-0.10770326288750408
-0.040004069072507864
-0.1692479845375183
-0.15078456804251686
-0.14463009587750708
-0.1261666793825056
-0.28618295567253704
-0.1938658731975296
-0.1015487907225221
-0.02769512474251612
-0.2246382340225228
-0.1692479845375183
-0.16309351237253633
-0.14463009587750708
-0.1384756237125251
-0.15078456804251686
-0.13232115154751534
-0.06462195773251911
-0.23079270618753256
-0.21232928969253104
-0.05231301340249961
-0.08923984639250257
-0.1384756237125251
-0.1384756237125251
-0.1261666793825056
-0.0707764298975011
-0.17540245670252808
-0.16309351237253633
-0.15693904020752658
-0.17540245670252808
-0.18771140103251985
-0.16309351237253633
-0.12001220721752358
-0.04615854123751762
-0.26156506701252585
-0.2246382340225228
-0.20002034536253932
-0.18155692886753785
-0.18771140103251985
-0.18155692886753785
-0.15078456804251686
-0.1261666793825056
-0.20617481752752131
-0.1938658731975296
-0.20617481752752131
-0.1938658731975296
-0.20002034536253932
-0.17540245670252808
-0.17540245670252808
-0.20002034536253932
-0.2800284835075273
-0.2431016505175243
-0.33541873299255964
-0.8031586175326066
0.13232115154751534
0.14463009587750708
-0.08308537422752059
-0.15078456804251686
-0.24925612268253405
-0.21848376185754081
-0.17540245670252808
-0.18155692886753785
-0.17540245670252808
-0.13232115154751534
-0.11385773505251384
-0.10770326288750408
-0.23079270618753256
-0.1692479845375183
-0.18155692886753785
-0.17540245670252808
-0.1938658731975296
-0.20617481752752131
-0.18155692886753785
-0.18771140103251985
-0.2369471783525424
-0.18155692886753785
-0.15693904020752658
-0.12001220721752358
-0.10770326288750408
-0.1015487907225221
-0.033849596907498114
-0.040004069072507864
-0.17540245670252808
-0.18155692886753785
-0.20002034536253932
-0.21232928969253104
-0.24925612268253405
-0.26156506701252585
-0.20617481752752131
-0.23079270618753256
-0.2800284835075273
-0.20617481752752131
-0.17540245670252808
-0.20002034536253932
-0.21232928969253104
-0.15693904020752658
-0.21232928969253104
-0.18771140103251985
-0.21848376185754081
-0.20617481752752131
-0.18771140103251985
-0.21848376185754081
-0.2246382340225228
-0.21848376185754081
-0.12001220721752358
-0.20617481752752131
-0.2431016505175243
-0.18155692886753785
-0.18155692886753785
-0.18155692886753785
-0.1015487907225221
0.14463009587750708
0.7908496732026148
-0.9262480608326351
-0.5815976195925888
-0.26771953917753555
-0.20002034536253932
-0.16309351237253633
-0.18155692886753785
-0.21848376185754081
-0.1692479845375183
-0.1692479845375183
-0.1938658731975296
-0.17540245670252808
-0.16309351237253633
-0.08308537422752059
-0.14463009587750708
-0.13232115154751534
-0.09539431855751236
-0.16309351237253633
-0.1692479845375183
-0.16309351237253633
-0.18155692886753785
-0.18771140103251985
-0.20002034536253932
-0.21232928969253104
-0.17540245670252808
-0.20617481752752131
-0.21848376185754081
-0.20617481752752131
-0.20617481752752131
-0.1938658731975296
-0.20617481752752131
-0.18771140103251985
0.3415732051575415
-0.14463009587750708
-0.5815976195925888
-0.30464637216753854
-0.2554105948475438
-0.2431016505175243
-0.2369471783525424
-0.2246382340225228
-0.12001220721752358
-0.2246382340225228
-0.26156506701252585
-0.26156506701252585
-0.18155692886753785
-0.21232928969253104
-0.2554105948475438
-0.1938658731975296
-0.14463009587750708
-0.2554105948475438
-0.2800284835075273
-0.2554105948475438
-0.21848376185754081
-0.21848376185754081
-0.21848376185754081
-0.23079270618753256
-0.15078456804251686
-0.23079270618753256
-0.1692479845375183
-0.26156506701252585
-0.24925612268253405
-0.23079270618753256
-0.30464637216753854
-0.8031586175326066
0.2246382340225228
0.040004069072507864
-0.21848376185754081
-0.2554105948475438
-0.26156506701252585
-0.21232928969253104
-0.20617481752752131
-0.21232928969253104
-0.12001220721752358
-0.3108008443325483
-0.28618295567253704
-0.2246382340225228
-0.23079270618753256
-0.2246382340225228
-0.2431016505175243
-0.2554105948475438
-0.13232115154751534
-0.3108008443325483
-0.2984919000025288
-0.2800284835075273
-0.2738740113425453
-0.20617481752752131
-0.20002034536253932
-0.2246382340225228
-0.12001220721752358
-0.2984919000025288
-0.2800284835075273
-0.23079270618753256
-0.20002034536253932
-0.24925612268253405
-0.23079270618753256
-0.1938658731975296
-0.08308537422752059
-0.28618295567253704
-0.2431016505175243
-0.18771140103251985
-0.1938658731975296
-0.17540245670252808
-0.16309351237253633
-0.11385773505251384
0.02154065257750637
-0.21232928969253104
-0.2554105948475438
-0.23079270618753256
-0.20617481752752131
-0.21848376185754081
-0.23079270618753256
-0.21232928969253104
-0.1384756237125251
-0.26771953917753555
-0.21848376185754081
-0.18155692886753785
-0.15693904020752658
-0.17540245670252808
-0.18771140103251985
-0.20002034536253932
-0.18771140103251985
0.02769512474251612
0.7539228402126119
-0.46466264845757
-0.3108008443325483
-0.2431016505175243
-0.2554105948475438
-0.18771140103251985
-0.433890287632549
-0.7662317845426038
-0.3538821494875609
-0.26156506701252585
-0.26156506701252585
-0.2246382340225228
-0.24925612268253405
-0.20002034536253932
-0.1692479845375183
-0.29233742783754685
-0.2554105948475438
-0.2246382340225228
-0.15693904020752658
-0.18771140103251985
-0.20002034536253932
-0.18155692886753785
-0.11385773505251384
-0.30464637216753854
-0.2431016505175243
-0.18155692886753785
-0.1938658731975296
-0.23079270618753256
-0.2554105948475438
-0.23079270618753256
-0.1692479845375183
-0.24925612268253405
-0.20617481752752131
-0.20617481752752131
-0.20002034536253932
-0.1692479845375183
-0.16309351237253633
-0.1261666793825056
-0.08923984639250257
-0.1938658731975296
-0.20617481752752131
-0.21848376185754081
-0.21232928969253104
-0.20002034536253932
-0.15693904020752658
-0.13232115154751534
0.7293049515526008
-0.6862236463975879
-0.003077236082504875
0.1261666793825056
-0.05231301340249961
-0.10770326288750408
-0.1384756237125251
-0.14463009587750708
-0.44619923196256844
-0.6308333969125834
-0.28618295567253704
-0.2738740113425453
-0.20617481752752131
-0.14463009587750708
-0.14463009587750708
-0.15078456804251686
-0.11385773505251384
-0.28618295567253704
-0.2369471783525424
-0.2431016505175243
-0.21232928969253104
-0.16309351237253633
-0.16309351237253633
-0.1384756237125251
-0.11385773505251384
-0.21232928969253104
-0.1692479845375183
-0.15693904020752658
-0.16309351237253633
-0.14463009587750708
-0.20002034536253932
-0.17540245670252808
-0.10770326288750408
-0.26156506701252585
-0.1938658731975296
-0.14463009587750708
-0.1261666793825056
-0.14463009587750708
-0.1384756237125251
-0.040004069072507864
0.6246789247476012
0.2984919000025288
-0.003077236082504875
-0.06462195773251911
-0.1015487907225221
-0.1015487907225221
-0.1261666793825056
-0.16309351237253633
-0.11385773505251384
-0.1692479845375183
-0.20617481752752131
-0.18771140103251985
-0.18771140103251985
-0.21848376185754081
-0.26156506701252585
-0.6739147020675963
-0.4585081762925601
-0.3108008443325483
-0.21848376185754081
-0.20002034536253932
-0.20617481752752131
-0.1692479845375183
-0.20617481752752131
-0.6677602299025862
-0.3292642608275498
0.2554105948475438
-0.10770326288750408
-0.1692479845375183
-0.17540245670252808
-0.1938658731975296
-0.3846545103125543
-0.2800284835075273
-0.20002034536253932
-0.28618295567253704
-0.2738740113425453
0.09539431855751236
0.7477683680476023
-0.4585081762925601
-0.24925612268253405
-0.17540245670252808
-0.6431423412426027
-0.6062155082525723
-0.33541873299255964
-0.26771953917753555
-0.2369471783525424
-0.2246382340225228
-0.2554105948475438
-0.21232928969253104
-0.2369471783525424
-0.2800284835075273
-0.2554105948475438
-0.2246382340225228
-0.17540245670252808
-0.1384756237125251
-0.15078456804251686
-0.08308537422752059
-0.1384756237125251
-0.2554105948475438
-0.26771953917753555
-0.2738740113425453
-0.3538821494875609
-0.3415732051575415
-0.3538821494875609
-0.29233742783754685
-0.31695531649755804
-0.3415732051575415
-0.2554105948475438
-0.2246382340225228
-0.21848376185754081
-0.20002034536253932
-0.2246382340225228
-0.1938658731975296
-0.24925612268253405
-0.2984919000025288
-0.2800284835075273
-0.18155692886753785
-0.2246382340225228
-0.2554105948475438
-0.2369471783525424
-0.15078456804251686
-0.20617481752752131
-0.21232928969253104
-0.15693904020752658
-0.1692479845375183
-0.18155692886753785
-0.21232928969253104
-0.2246382340225228
-0.1692479845375183
-0.24925612268253405
-0.2738740113425453
-0.2738740113425453
-0.2800284835075273
-0.23079270618753256
-0.21232928969253104
-0.23079270618753256
-0.1261666793825056
-0.21232928969253104
-0.20617481752752131
-0.3108008443325483
-0.8154675618626261
0.1261666793825056
0.08923984639250257
-0.14463009587750708
0.26156506701252585
-0.20617481752752131
-0.5631342030975872
-0.3108008443325483
-0.2738740113425453
-0.24925612268253405
-0.24925612268253405
-0.2246382340225228
-0.1692479845375183
-0.2369471783525424
-0.2369471783525424
-0.24925612268253405
-0.2554105948475438
-0.24925612268253405
-0.20002034536253932
-0.20617481752752131
-0.1384756237125251
-0.2738740113425453
-0.31695531649755804
-0.2554105948475438
-0.21232928969253104
-0.17540245670252808
-0.20617481752752131
-0.21232928969253104
-0.05846748556750937
-0.15693904020752658
-0.18771140103251985
-0.12001220721752358
-0.18155692886753785
-0.20002034536253932
-0.18771140103251985
-0.15078456804251686
-0.05231301340249961
-0.20617481752752131
-0.21232928969253104
-0.15693904020752658
-0.1692479845375183
-0.18771140103251985
-0.1692479845375183
-0.20002034536253932
-0.05846748556750937
-0.20617481752752131
-0.2369471783525424
-0.1938658731975296
-0.18771140103251985
-0.21232928969253104
-0.17540245670252808
-0.15693904020752658
-0.07693090206251085
-0.21848376185754081
-0.2246382340225228
-0.21848376185754081
-0.1938658731975296
-0.17540245670252808
0.1261666793825056
0.6677602299025862
-0.427735815467567
-0.8216220340276081
-0.4708171206225797
-0.2800284835075273
-0.20617481752752131
-0.16309351237253633
-0.1692479845375183
-0.18771140103251985
-0.040004069072507864
-0.2246382340225228
-0.26771953917753555
-0.26156506701252585
-0.2369471783525424
-0.23079270618753256
-0.15693904020752658
-0.20002034536253932
-0.07693090206251085
-0.2554105948475438
-0.2369471783525424
-0.20002034536253932
-0.12001220721752358
-0.15693904020752658
-0.21848376185754081
-0.15078456804251686
-0.01538618041249662
-0.2246382340225228
-0.2246382340225228
-0.21848376185754081
-0.21232928969253104
-0.15693904020752658
-0.10770326288750408
-0.10770326288750408
-0.0707764298975011
-0.1692479845375183
-0.15078456804251686
-0.09539431855751236
-0.11385773505251384
-0.18155692886753785
-0.1692479845375183
-0.16309351237253633
-0.08308537422752059
-0.20002034536253932
-0.15693904020752658
-0.1692479845375183
-0.14463009587750708
-0.08923984639250257
-0.13232115154751534
-0.13232115154751534
-0.07693090206251085
-0.21232928969253104
-0.15078456804251686
-0.033849596907498114
-0.08308537422752059
-0.1261666793825056
-0.15693904020752658
-0.14463009587750708
-0.08308537422752059
-0.21848376185754081
-0.1384756237125251
-0.15078456804251686
-0.16309351237253633
-0.2800284835075273
-0.7785407288726233
0.17540245670252808
0.2246382340225228
-0.02154065257750637
0.20002034536253932
-0.003077236082504875
-0.11385773505251384
-0.1692479845375183
-0.16309351237253633
-0.15693904020752658
-0.1261666793825056
-0.24925612268253405
-0.17540245670252808
-0.15078456804251686
-0.16309351237253633
-0.14463009587750708
-0.1692479845375183
-0.16309351237253633
-0.04615854123751762
-0.09539431855751236
-0.16309351237253633
-0.1938658731975296
-0.2246382340225228
-0.18771140103251985
-0.18155692886753785
-0.20617481752752131
-0.16309351237253633
-0.26771953917753555
-0.2431016505175243
-0.14463009587750708
-0.16309351237253633
-0.21848376185754081
-0.2431016505175243
-0.4585081762925601
-0.7662317845426038
-0.538516314437576
-0.360036621652543
-0.2738740113425453
-0.2554105948475438
-0.24925612268253405
-0.26771953917753555
-0.20617481752752131
-0.1384756237125251
-0.2984919000025288
-0.26156506701252585
-0.21848376185754081
-0.2246382340225228
-0.2246382340225228
-0.16309351237253633
-0.10770326288750408
-0.1384756237125251
-0.1692479845375183
-0.15078456804251686
-0.2246382340225228
-0.2246382340225228
-0.2554105948475438
-0.23079270618753256
-0.10770326288750408
1.0431830319676536
0.1384756237125251
-0.8031586175326066
-0.2738740113425453
-0.21232928969253104
-0.1261666793825056
-0.20002034536253932
-0.21232928969253104
-0.5200528979425745
-0.6677602299025862
-0.30464637216753854
-0.2369471783525424
-0.26156506701252585
-0.2369471783525424
-0.1938658731975296
-0.1015487907225221
-0.05231301340249961
-0.26156506701252585
-0.18155692886753785
-0.18771140103251985
-0.18155692886753785
-0.1261666793825056
-0.18155692886753785
-0.1015487907225221
-0.08923984639250257
-0.2246382340225228
-0.15693904020752658
-0.18771140103251985
-0.17540245670252808
-0.16309351237253633
-0.15693904020752658
-0.12001220721752358
-0.12001220721752358
-0.21232928969253104
-0.18771140103251985
-0.15078456804251686
-0.18771140103251985
-0.17540245670252808
-0.17540245670252808
-0.13232115154751534
-0.15078456804251686
-0.28618295567253704
-0.23079270618753256
-0.21848376185754081
-0.21232928969253104
-0.20002034536253932
-0.21232928969253104
-0.20002034536253932
-0.23079270618753256
-0.2800284835075273
-0.2246382340225228
-0.2431016505175243
-0.2246382340225228
-0.2431016505175243
-0.21232928969253104
-0.18771140103251985
-0.2246382340225228
-0.2431016505175243
-0.08308537422752059
-0.16309351237253633
-0.21848376185754081
-0.1938658731975296
-0.18771140103251985
-0.21232928969253104
-0.7723862567076134
0.0707764298975011
0.18771140103251985
-0.09539431855751236
-0.14463009587750708
-0.09539431855751236
-0.08923984639250257
-0.1261666793825056
-0.24925612268253405
-0.21848376185754081
-0.20002034536253932
-0.18155692886753785
-0.17540245670252808
-0.14463009587750708
-0.05231301340249961
-0.02154065257750637
-0.08308537422752059
-0.10770326288750408
-0.1261666793825056
-0.1938658731975296
-0.23079270618753256
-0.2431016505175243
-0.26771953917753555
-0.20617481752752131
-0.17540245670252808
-0.20617481752752131
-0.1692479845375183
-0.1384756237125251
-0.16309351237253633
-0.21848376185754081
-0.20002034536253932
0.040004069072507864
0.10770326288750408
-0.1261666793825056
-0.17540245670252808
-0.1692479845375183
-0.14463009587750708
-0.1384756237125251
-0.15078456804251686
-0.15078456804251686
-0.18771140103251985
-0.14463009587750708
-0.15078456804251686
-0.1692479845375183
-0.1384756237125251
-0.18155692886753785
-0.3415732051575415
0.08308537422752059
-0.21232928969253104
-0.5631342030975872
-0.23079270618753256
-0.1938658731975296
-0.1938658731975296
-0.1938658731975296
-0.16309351237253633
-0.1015487907225221
-0.20617481752752131
-0.18771140103251985
0.18771140103251985
0.7108415350575992
-0.2984919000025288
-0.1384756237125251
-0.1692479845375183
-0.26771953917753555
-0.7539228402126119
-0.4400447597975588
-0.21848376185754081
-0.14463009587750708
-0.10770326288750408
-0.1261666793825056
-0.14463009587750708
-0.06462195773251911
-0.21232928969253104
-0.2800284835075273
-0.23079270618753256
-0.21848376185754081
-0.3292642608275498
-0.4400447597975588
-0.2984919000025288
-0.14463009587750708
-0.23079270618753256
-0.20002034536253932
-0.20617481752752131
-0.20617481752752131
-0.1938658731975296
-0.1692479845375183
-0.17540245670252808
-0.07693090206251085
-0.20617481752752131
-0.12001220721752358
-0.11385773505251384
0.05231301340249961
-0.07693090206251085
-0.15078456804251686
-0.18155692886753785
-0.06462195773251911
-0.2369471783525424
-0.2554105948475438
-0.21232928969253104
-0.21848376185754081
-0.20002034536253932
-0.1938658731975296
-0.16309351237253633
-0.1015487907225221
-0.2246382340225228
-0.2431016505175243
-0.1692479845375183
-0.14463009587750708
-0.1261666793825056
-0.08923984639250257
-0.12001220721752358
-0.040004069072507864
-0.21848376185754081
-0.23079270618753256
-0.21232928969253104
-0.1938658731975296
-0.2369471783525424
-0.21848376185754081
-0.20002034536253932
-0.15078456804251686
-0.2800284835075273
-0.2738740113425453
-0.889321227842632
0.02154065257750637
0.05231301340249961
-0.16309351237253633
-0.2431016505175243
-0.12001220721752358
-0.33541873299255964
-0.3538821494875609
-0.26156506701252585
-0.23079270618753256
-0.2246382340225228
-0.04615854123751762
-0.009231708247514623
0.02154065257750637
-0.11385773505251384
-0.17540245670252808
-0.17540245670252808
-0.1938658731975296
-0.18155692886753785
-0.16309351237253633
-0.17540245670252808
-0.08308537422752059
-0.1384756237125251
-0.1261666793825056
-0.13232115154751534
-0.17540245670252808
-0.1261666793825056
-0.13232115154751534
-0.21848376185754081
0.07693090206251085
0.01538618041249662
-0.15693904020752658
-0.17540245670252808
-0.1692479845375183
-0.1261666793825056
-0.1384756237125251
-0.07693090206251085
-0.05846748556750937
-0.14463009587750708
-0.02154065257750637
-0.04615854123751762
-0.1015487907225221
-0.10770326288750408
-0.1692479845375183
-0.36619109381755277
-0.32310978866254003
-0.34772767732255133
-0.30464637216753854
-0.2738740113425453
-0.2554105948475438
-0.21848376185754081
-0.18155692886753785
-0.11385773505251384
-0.05846748556750937
-0.26156506701252585
-0.20002034536253932
-0.16309351237253633
-0.13232115154751534
0.1938658731975296
0.7231504793875909
-0.33541873299255964
-0.4892805371175811
-0.7539228402126119
-0.32310978866254003
-0.21848376185754081
-0.18155692886753785
-0.18155692886753785
-0.21232928969253104
-0.08308537422752059
-0.003077236082504875
-0.18155692886753785
-0.16309351237253633
-0.18771140103251985
-0.1938658731975296
-0.21848376185754081
-0.18155692886753785
-0.18771140103251985
-0.12001220721752358
-0.20617481752752131
-0.1938658731975296
-0.1261666793825056
-0.10770326288750408
-0.1261666793825056
-0.10770326288750408
-0.01538618041249662
0.003077236082504875
-0.1015487907225221
-0.14463009587750708
-0.1692479845375183
-0.15693904020752658
-0.18155692886753785
-0.16309351237253633
-0.08923984639250257
-0.08308537422752059
-0.17540245670252808
-0.15078456804251686
-0.1384756237125251
-0.15078456804251686
-0.15078456804251686
-0.14463009587750708
-0.1261666793825056
-0.08923984639250257
-0.2369471783525424
-0.17540245670252808
-0.1384756237125251
-0.13232115154751534
-0.18155692886753785
-0.1938658731975296
-0.17540245670252808
-0.16309351237253633
-0.29233742783754685
-0.21848376185754081
-0.21232928969253104
-0.1692479845375183
-0.15078456804251686
-0.18155692886753785
-0.17540245670252808
-0.15693904020752658
-0.26771953917753555
-0.16309351237253633
-0.26156506701252585
-0.390808982477564
-0.7785407288726233
0.13232115154751534
0.1384756237125251
-0.05846748556750937
-0.2431016505175243
-0.28618295567253704
-0.2554105948475438
-0.2246382340225228
-0.2431016505175243
-0.1015487907225221
0.29233742783754685
1.0185651433076426
-0.20617481752752131
-0.1261666793825056
-0.18155692886753785
-0.1692479845375183
-0.18155692886753785
-0.17540245670252808
-0.1692479845375183
-0.6739147020675963
-0.6000610360875902
-0.28618295567253704
-0.16309351237253633
-0.21232928969253104
-0.2431016505175243
-0.23079270618753256
-0.16309351237253633
-0.20617481752752131
-0.2431016505175243
-0.18155692886753785
-0.1261666793825056
-0.20617481752752131
-0.24925612268253405
-0.30464637216753854
-0.2369471783525424
-0.23079270618753256
-0.28618295567253704
-0.26771953917753555
-0.20002034536253932
-0.21232928969253104
-0.21232928969253104
-0.2369471783525424
-0.390808982477564
-0.427735815467567
-0.33541873299255964
-0.2369471783525424
-0.14463009587750708
-0.21232928969253104
-0.2431016505175243
-0.20617481752752131
-0.13232115154751534
-0.21848376185754081
-0.32310978866254003
-0.23079270618753256
-0.2431016505175243
-0.23079270618753256
-0.21232928969253104
-0.009231708247514623
0.2554105948475438
-0.17540245670252808
-2.0217441062027888
-0.7723862567076134
-0.3538821494875609
-0.26156506701252585
-0.32310978866254003
-0.3846545103125543
0.889321227842632
0.28618295567253704
-0.1261666793825056
-0.16309351237253633
-0.24925612268253405
-0.2984919000025288
-0.20617481752752131
-0.32310978866254003
-0.15693904020752658
-0.16309351237253633
-0.15078456804251686
-0.21232928969253104
-0.21232928969253104
-0.24925612268253405
-0.23079270618753256
-0.23079270618753256
0.21232928969253104
-0.2246382340225228
-0.538516314437576
-0.26771953917753555
-0.24925612268253405
-0.36619109381755277
-0.31695531649755804
-0.20617481752752131
-0.15693904020752658
-0.18771140103251985
-0.18155692886753785
-0.1938658731975296
-0.18771140103251985
-0.1938658731975296
-0.20617481752752131
-0.20002034536253932
-0.1261666793825056
-0.20002034536253932
-0.1938658731975296
-0.26156506701252585
-0.6123699804175822
-0.26156506701252585
-0.20617481752752131
-0.2800284835075273
-0.17540245670252808
0.17540245670252808
-0.1384756237125251
-0.15693904020752658
-0.14463009587750708
-0.18771140103251985
-0.1938658731975296
-0.23079270618753256
-0.1692479845375183
-0.2246382340225228
-0.1692479845375183
0.033849596907498114
0.5262073701075842
0.20002034536253932
-0.05846748556750937
-0.08923984639250257
0.1384756237125251
-0.21848376185754081
-0.18155692886753785
-0.1015487907225221
-0.10770326288750408
-0.07693090206251085
-0.08308537422752059
-0.11385773505251384
-0.02769512474251612
-0.003077236082504875
-0.14463009587750708
-0.2554105948475438
-0.20002034536253932
-0.18155692886753785
-0.1692479845375183
-0.15693904020752658
-0.009231708247514623
-0.20002034536253932
-0.26156506701252585
-0.23079270618753256
-0.1692479845375183
-0.20002034536253932
-0.20002034536253932
-0.18155692886753785
-0.08308537422752059
-0.20617481752752131
-0.2369471783525424
-0.2369471783525424
-0.17540245670252808
-0.1938658731975296
-0.20002034536253932
-0.1938658731975296
-0.02154065257750637
-0.21848376185754081
-0.23079270618753256
-0.20617481752752131
-0.21232928969253104
-0.20617481752752131
-0.16309351237253633
-0.20002034536253932
-0.2369471783525424
-0.3846545103125543
-0.26771953917753555
-0.20002034536253932
-0.18155692886753785
-0.1692479845375183
-0.18155692886753785
-0.1938658731975296
-0.12001220721752358
-0.24925612268253405
-0.21848376185754081
-0.18155692886753785
-0.17540245670252808
-0.18155692886753785
-0.1261666793825056
-0.07693090206251085
-0.08308537422752059
-0.26771953917753555
0.12001220721752358
0.5815976195925888
-1.0308740876376343
0.20617481752752131
0.14463009587750708
-0.009231708247514623
-0.29233742783754685
-0.6800691742326057
-0.3292642608275498
-0.1938658731975296
-0.1692479845375183
-0.12001220721752358
-0.1015487907225221
-0.1384756237125251
0.01538618041249662
-0.17540245670252808
-0.1015487907225221
-0.13232115154751534
-0.15078456804251686
-0.17540245670252808
-0.1692479845375183
-0.13232115154751534
-0.02769512474251612
-0.14463009587750708
-0.1384756237125251
-0.15078456804251686
-0.09539431855751236
0.37850003814754446
0.1692479845375183
-0.05231301340249961
-0.009231708247514623
-0.0707764298975011
-0.10770326288750408
-0.1015487907225221
-0.16309351237253633
-0.18771140103251985
-0.12001220721752358
-0.0707764298975011
-0.003077236082504875
-0.11385773505251384
-0.1692479845375183
-0.2246382340225228
-0.31695531649755804
-0.2369471783525424
-0.20002034536253932
-0.15078456804251686
-0.15078456804251686
-0.14463009587750708
-0.01538618041249662
-0.14463009587750708
-0.20617481752752131
-0.20002034536253932
-0.15693904020752658
-0.07693090206251085
-0.08923984639250257
-0.2800284835075273
-0.2984919000025288
-0.4892805371175811
-0.42158134330255725
-0.3108008443325483
-0.29233742783754685
-0.2431016505175243
-0.2246382340225228
-0.427735815467567
-0.8277765061926179
0.10770326288750408
0.02154065257750637
-0.20002034536253932
-0.26771953917753555
-0.15693904020752658
0.009231708247514623
-0.20617481752752131
-0.2738740113425453
-0.3415732051575415
-0.2738740113425453
-0.2800284835075273
-0.24925612268253405
-0.2246382340225228
-0.2431016505175243
-0.37850003814754446
-0.32310978866254003
-0.2738740113425453
-0.2738740113425453
-0.2984919000025288
-0.2738740113425453
-0.26156506701252585
-0.2369471783525424
-0.34772767732255133
-0.3292642608275498
-0.30464637216753854
-0.2984919000025288
-0.2554105948475438
-0.26156506701252585
-0.2554105948475438
-0.1692479845375183
-0.18155692886753785
-0.2431016505175243
-0.26156506701252585
-0.29233742783754685
-0.31695531649755804
-0.24925612268253405
-0.21232928969253104
-0.28618295567253704
-0.3723455659825625
-0.2984919000025288
-0.3292642608275498
-0.31695531649755804
-0.26156506701252585
-0.30464637216753854
-0.28618295567253704
-0.2800284835075273
-0.2984919000025288
-0.26771953917753555
-0.26771953917753555
-0.2738740113425453
-0.30464637216753854
-0.20617481752752131
-0.040004069072507864
-0.17540245670252808
-0.29233742783754685
-0.2984919000025288
-0.34772767732255133
-0.04615854123751762
0.538516314437576
-0.4708171206225797
-0.28618295567253704
-0.7662317845426038
-0.6985325907276074
-0.36619109381755277
-0.2738740113425453
-0.2738740113425453
-0.2738740113425453
-0.26771953917753555
-0.26771953917753555
-0.26156506701252585
-0.3538821494875609
-0.3108008443325483
-0.2246382340225228
-0.20002034536253932
-0.26156506701252585
-0.2738740113425453
-0.21232928969253104
-0.2800284835075273
-0.3108008443325483
-0.24925612268253405
-0.08308537422752059
-0.1384756237125251
-0.32310978866254003
-0.32310978866254003
-0.003077236082504875
0.17540245670252808
-0.8093130896976164
0.28618295567253704
-0.07693090206251085
-0.21232928969253104
-0.23079270618753256
-0.21232928969253104
-0.2738740113425453
-0.7785407288726233
-0.5939065639225805
-0.2800284835075273
-0.05231301340249961
-0.34772767732255133
-0.40311792680755576
-0.3292642608275498
-0.26156506701252585
-0.30464637216753854
-0.32310978866254003
-0.30464637216753854
-0.29233742783754685
-0.29233742783754685
-0.2738740113425453
-0.26771953917753555
-0.2246382340225228
-0.31695531649755804
-0.3108008443325483
-0.12001220721752358
0.05846748556750937
-0.05231301340249961
0.033849596907498114
-0.0707764298975011
0.8585488670176111
-0.01538618041249662
-0.9754838381526297
-0.433890287632549
-0.30464637216753854
-0.2369471783525424
-0.23079270618753256
-0.2431016505175243
-0.1384756237125251
-0.15693904020752658
-0.12001220721752358
0.1015487907225221
0.040004069072507864
0.009231708247514623
-0.15693904020752658
-0.2369471783525424
-0.21848376185754081
-0.32310978866254003
-0.29233742783754685
-0.2800284835075273
-0.26771953917753555
-0.21232928969253104
-0.20002034536253932
-0.20002034536253932
-0.1015487907225221
-0.26156506701252585
-0.24925612268253405
-0.10770326288750408
-0.01538618041249662
-0.10770326288750408
-0.18155692886753785
-0.2800284835075273
-0.7539228402126119
0.1015487907225221
0.1261666793825056
-0.05231301340249961
-0.1261666793825056
-0.20002034536253932
-0.1938658731975296
-0.15078456804251686
-0.1261666793825056
-0.5508252587675677
-0.36619109381755277
-0.17540245670252808
-0.18155692886753785
-0.2738740113425453
-0.2554105948475438
-0.20617481752752131
-0.18771140103251985
-0.24925612268253405
-0.23079270618753256
-0.18771140103251985
-0.16309351237253633
-0.17540245670252808
-0.24925612268253405
-0.1015487907225221
-0.033849596907498114
-0.1692479845375183
-0.1015487907225221
-0.1261666793825056
-0.10770326288750408
-0.14463009587750708
-0.18155692886753785
0.18771140103251985
0.901630172172624
-0.4585081762925601
-0.3108008443325483
-0.20617481752752131
-0.15078456804251686
-0.11385773505251384
-0.0707764298975011
-0.08308537422752059
-0.3108008443325483
-0.8462399226876194
-0.5077439536125827
-0.3292642608275498
-0.2369471783525424
-0.1692479845375183
-0.10770326288750408
-0.1261666793825056
-0.11385773505251384
-0.21848376185754081
-0.2246382340225228
-0.2246382340225228
-0.21232928969253104
-0.20617481752752131
-0.20617481752752131
-0.18771140103251985
-0.02769512474251612
-0.18155692886753785
-0.11385773505251384
-0.1261666793825056
-0.15693904020752658
-0.08923984639250257
-0.10770326288750408
-0.12001220721752358
-0.003077236082504875
-0.1261666793825056
-0.20617481752752131
-0.2246382340225228
-0.08923984639250257
-0.14463009587750708
-0.21848376185754081
-0.12001220721752358
0.0707764298975011
-0.1692479845375183
-0.21848376185754081
-0.24925612268253405
-0.2369471783525424
-0.21848376185754081
-0.24925612268253405
-0.2800284835075273
-0.26771953917753555
-0.2738740113425453
-0.32310978866254003
-0.28618295567253704
-0.3538821494875609
-0.4400447597975588
-0.4092723989725655
-0.37850003814754446
-0.26771953917753555
-0.34772767732255133
-0.3846545103125543
-0.4154268711375475
-0.34772767732255133
-0.1384756237125251
-0.32310978866254003
-0.9324025329976448
-0.0707764298975011
-0.1261666793825056
-0.26771953917753555
-0.36619109381755277
-0.3723455659825625
-0.2984919000025288
-0.2738740113425453
-0.26156506701252585
-0.1384756237125251
-0.20002034536253932
-0.1261666793825056
-0.1015487907225221
-0.15693904020752658
-0.2369471783525424
-0.21232928969253104
-0.15693904020752658
-0.14463009587750708
-0.14463009587750708
-0.16309351237253633
-0.23079270618753256
-0.1384756237125251
-0.20617481752752131
-0.26771953917753555
-0.20002034536253932
-0.1261666793825056
-0.21232928969253104
-0.20617481752752131
-0.15693904020752658
-0.10770326288750408
-0.17540245670252808
-0.16309351237253633
-0.21848376185754081
-0.18155692886753785
-0.2984919000025288
-0.28618295567253704
-0.21848376185754081
-0.21232928969253104
-0.20002034536253932
-0.2369471783525424
-0.18155692886753785
-0.14463009587750708
-0.2431016505175243
-0.20002034536253932
-0.15693904020752658
-0.1938658731975296
-0.21232928969253104
-0.2246382340225228
-0.14463009587750708
-0.15078456804251686
-0.30464637216753854
-0.20002034536253932
-0.20002034536253932
-0.1938658731975296
-0.1692479845375183
-0.16309351237253633
-0.12001220721752358
-0.13232115154751534
0.12001220721752358
0.9324025329976448
-0.37850003814754446
-0.2800284835075273
-0.18771140103251985
-0.06462195773251911
-0.14463009587750708
-0.5939065639225805
-0.6308333969125834
-0.28618295567253704
-0.23079270618753256
-0.2246382340225228
-0.21232928969253104
-0.18155692886753785
-0.17540245670252808
-0.15693904020752658
-0.2369471783525424
-0.23079270618753256
-0.21848376185754081
-0.2554105948475438
-0.28618295567253704
-0.23079270618753256
-0.17540245670252808
-0.2431016505175243
-0.20002034536253932
0.02154065257750637
-0.10770326288750408
-0.21848376185754081
-0.23079270618753256
-0.1938658731975296
-0.15693904020752658
-0.1384756237125251
-0.2554105948475438
-0.21848376185754081
-0.24925612268253405
-0.17540245670252808
-0.18771140103251985
-0.23079270618753256
-0.10770326288750408
-0.10770326288750408
-0.3108008443325483
-0.30464637216753854
-0.2738740113425453
-0.26156506701252585
-0.08308537422752059
-0.08923984639250257
-0.2369471783525424
-0.2738740113425453
-0.32310978866254003
-0.30464637216753854
-0.29233742783754685
-0.34772767732255133
-0.3108008443325483
-0.2984919000025288
-0.21232928969253104
-0.14463009587750708
-0.21848376185754081
-0.2431016505175243
-0.24925612268253405
-0.2246382340225228
-0.20617481752752131
-0.2369471783525424
-0.21232928969253104
-0.3723455659825625
-0.9077846443376336
0.040004069072507864
0.09539431855751236
-0.15693904020752658
-0.14463009587750708
-0.20002034536253932
-0.2431016505175243
-0.33541873299255964
-0.32310978866254003
-0.2984919000025288
-0.2984919000025288
-0.2800284835075273
-0.3108008443325483
-0.3415732051575415
-0.21848376185754081
-0.2554105948475438
-0.30464637216753854
-0.2431016505175243
-0.1384756237125251
-0.20617481752752131
-0.26771953917753555
-0.2431016505175243
-0.20617481752752131
-0.2984919000025288
-0.30464637216753854
-0.2984919000025288
-0.2984919000025288
-0.21848376185754081
-0.26156506701252585
-0.29233742783754685
-0.1692479845375183
-0.033849596907498114
-0.3292642608275498
-0.31695531649755804
-0.2369471783525424
-0.2246382340225228
-0.2431016505175243
-0.24925612268253405
0.5692886752625692
0.8031586175326066
-0.8093130896976164
-0.42158134330255725
-0.3108008443325483
-0.2800284835075273
-0.2554105948475438
-0.23079270618753256
-0.2431016505175243
-0.8277765061926179
-0.5815976195925888
-0.40311792680755576
-0.360036621652543
-0.31695531649755804
-0.30464637216753854
-0.2984919000025288
-0.1261666793825056
-0.21848376185754081
-0.2554105948475438
-0.21848376185754081
0.21848376185754081
0.9754838381526297
-0.390808982477564
-0.21848376185754081
-0.2738740113425453
-0.9139391165026156
-0.6246789247476012
-0.4154268711375475
-0.37850003814754446
-0.37850003814754446
-0.34772767732255133
-0.29233742783754685
-0.20002034536253932
-0.40311792680755576
-0.4154268711375475
-0.3108008443325483
-0.21848376185754081
-0.3292642608275498
-0.3846545103125543
-0.3846545103125543
-0.2431016505175243
-0.360036621652543
-0.390808982477564
-0.33541873299255964
-0.31695531649755804
-0.3415732051575415
-0.34772767732255133
-0.3292642608275498
-0.24925612268253405
-0.427735815467567
-0.4092723989725655
-0.360036621652543
-0.3846545103125543
-0.390808982477564
-0.4892805371175811
-0.427735815467567
-0.360036621652543
-0.47697159278756174
-0.4708171206225797
-0.427735815467567
-0.360036621652543
-0.30464637216753854
-0.2246382340225228
-0.2369471783525424
-0.1261666793825056
-0.34772767732255133
-0.32310978866254003
-0.01538618041249662
0.040004069072507864
-0.2431016505175243
-0.2369471783525424
-0.2984919000025288
-0.18155692886753785
-0.32310978866254003
-0.3415732051575415
-0.29233742783754685
-0.30464637216753854
-0.32310978866254003
-0.30464637216753854
-0.2800284835075273
-0.08923984639250257
-0.2431016505175243
-0.2984919000025288
-0.3292642608275498
-0.8831667556776225
0.02769512474251612
0.003077236082504875
-0.1692479845375183
-0.1261666793825056
-0.2984919000025288
-0.29233742783754685
-0.2738740113425453
-0.2554105948475438
-0.26771953917753555
-0.2738740113425453
-0.26771953917753555
-0.1384756237125251
-0.2246382340225228
0.11385773505251384
0.15693904020752658
-0.11385773505251384
-0.16309351237253633
-0.20617481752752131
-0.20617481752752131
-0.1692479845375183
-0.3108008443325483
-0.21848376185754081
-0.13232115154751534
-0.2246382340225228
-0.20617481752752131
-0.23079270618753256
-0.30464637216753854
-0.30464637216753854
-0.6985325907276074
-0.6308333969125834
-0.24925612268253405
-0.30464637216753854
-0.31695531649755804
-0.31695531649755804
-0.2984919000025288
-0.28618295567253704
-0.3723455659825625
-0.31695531649755804
-0.1938658731975296
-0.1261666793825056
-0.24925612268253405
-0.21848376185754081
-0.17540245670252808
0.12001220721752358
-0.05231301340249961
-0.18771140103251985
-0.24925612268253405
-0.26156506701252585
-0.29233742783754685
-0.2738740113425453
-0.02769512474251612
-0.08923984639250257
-0.31695531649755804
-0.2431016505175243
-0.2369471783525424
-0.21232928969253104
-0.2738740113425453
-0.033849596907498114
0.2246382340225228
-0.9139391165026156
-0.8400854505226096
-0.4092723989725655
-0.15078456804251686
-0.2554105948475438
-0.3292642608275498
-0.31695531649755804
-0.30464637216753854
-0.31695531649755804
-0.433890287632549
-0.36619109381755277
-0.20617481752752131
-0.1015487907225221
-0.31695531649755804
-0.390808982477564
-0.427735815467567
-0.427735815467567
-0.47697159278756174
-0.46466264845757
-0.4892805371175811
-0.4708171206225797
-0.4831260649525715
-0.44619923196256844
-0.21232928969253104
-0.12001220721752358
-0.433890287632549
-0.42158134330255725
-0.3846545103125543
-0.3723455659825625
-0.4154268711375475
-0.42158134330255725
-0.2554105948475438
-0.1692479845375183
-0.396963454642546
-0.4092723989725655
-0.3723455659825625
-0.37850003814754446
-0.3846545103125543
-0.3846545103125543
-0.32310978866254003
-0.29233742783754685
-0.360036621652543
-0.29233742783754685
-0.23079270618753256
-0.1015487907225221
-0.15693904020752658
-0.23079270618753256
-0.2800284835075273
-0.2246382340225228
-0.3723455659825625
-0.31695531649755804
-0.26771953917753555
-0.28618295567253704
-0.2984919000025288
-0.24925612268253405
-0.033849596907498114
-0.040004069072507864
-0.20617481752752131
-0.16309351237253633
-0.06462195773251911
-0.1015487907225221
-0.2554105948475438
-0.8523943948526291
0.06462195773251911
0.1261666793825056
-0.15078456804251686
-0.18771140103251985
-0.18771140103251985
-0.12001220721752358
-0.17540245670252808
-0.23079270618753256
-0.1938658731975296
-0.12001220721752358
0.07693090206251085
0.02769512474251612
-0.07693090206251085
-0.15693904020752658
-0.18155692886753785
-0.17540245670252808
-0.18155692886753785
-0.20002034536253932
-0.30464637216753854
-0.24925612268253405
-0.20617481752752131
-0.1938658731975296
0.01538618041249662
0.0707764298975011
-0.08308537422752059
-0.1261666793825056
0.2984919000025288
0.1015487907225221
-0.1384756237125251
-0.21232928969253104
-0.26771953917753555
-0.28618295567253704
-0.21848376185754081
-0.21232928969253104
-0.36619109381755277
-0.37850003814754446
-0.32310978866254003
-0.1261666793825056
-0.2369471783525424
-0.37850003814754446
-0.396963454642546
-0.9447114773276367
-0.7908496732026148
-0.47697159278756174
-0.46466264845757
-0.44619923196256844
-0.44619923196256844
-0.4154268711375475
-0.360036621652543
-0.1938658731975296
-0.18771140103251985
-0.3292642608275498
-0.3723455659825625
-0.3723455659825625
-0.427735815467567
-0.396963454642546
-0.18155692886753785
-0.05231301340249961
0.5569797309325777
-0.6862236463975879
-0.433890287632549
-0.18771140103251985
-0.2369471783525424
-0.3538821494875609
-0.4585081762925601
-0.9508659494926462
-0.7846952010376053
-0.6185244525825918
-0.5815976195925888
-0.5569797309325777
-0.5446707866025856
-0.07693090206251085
0.7354594237176102
-0.34772767732255133
-1.2093537804226673
-0.5446707866025856
-0.44619923196256844
-0.5446707866025856
-0.5631342030975872
-0.538516314437576
-0.4892805371175811
-0.6062155082525723
-0.5877520917575707
-0.5508252587675677
-0.5815976195925888
-0.5323618422725662
-0.7293049515526008
-0.7908496732026148
-0.5138984257775646
-0.5446707866025856
-0.5631342030975872
-0.5631342030975872
-0.5077439536125827
-0.4708171206225797
-0.44619923196256844
-0.390808982477564
-0.2431016505175243
-0.3108008443325483
-0.21848376185754081
-0.2738740113425453
-0.30464637216753854
-0.20002034536253932
0.05231301340249961
0.01538618041249662
-0.033849596907498114
-0.2246382340225228
-0.20617481752752131
-0.14463009587750708
-0.07693090206251085
-0.02769512474251612
-0.10770326288750408
-0.15078456804251686
0.26771953917753555
-0.009231708247514623
-0.20617481752752131
0.6739147020675963
0.11385773505251384
-0.08923984639250257
-0.15078456804251686
-0.05846748556750937
-0.1938658731975296
-0.7908496732026148
-0.5015894814475731
-0.2984919000025288
-0.2554105948475438
-0.20002034536253932
-0.16309351237253633
-0.1692479845375183
-0.12001220721752358
-0.2738740113425453
-0.21232928969253104
0.09539431855751236
-0.15078456804251686
-0.2554105948475438
-0.21848376185754081
-0.23079270618753256
-0.15078456804251686
-0.3292642608275498
-0.31695531649755804
-0.2738740113425453
-0.30464637216753854
-0.33541873299255964
-0.3538821494875609
-0.2369471783525424
-0.02154065257750637
-0.24925612268253405
-0.26156506701252585
-0.2800284835075273
-0.26771953917753555
-0.2431016505175243
-0.1384756237125251
-0.18771140103251985
-0.0707764298975011
-0.2554105948475438
-0.24925612268253405
-0.20002034536253932
-0.20617481752752131
-0.20617481752752131
-0.20002034536253932
-0.15078456804251686
0.04615854123751762
-0.20002034536253932
-0.29233742783754685
-0.1384756237125251
-0.20002034536253932
-0.2246382340225228
-0.18771140103251985
-0.16309351237253633
-0.06462195773251911
-0.2369471783525424
-0.20617481752752131
-0.15078456804251686
-0.13232115154751534
-0.12001220721752358
-0.10770326288750408
-0.1261666793825056
0.11385773505251384
0.7477683680476023
0.396963454642546
0.4708171206225797
1.1539635309376628
-0.13232115154751534
-0.05231301340249961
-0.05231301340249961
-0.29233742783754685
-0.6554512855725947
-0.24925612268253405
-0.16309351237253633
-0.21232928969253104
-0.15693904020752658
-0.26771953917753555
-0.7169960072226089
-0.5200528979425745
-0.21232928969253104
0.02154065257750637
-0.06462195773251911
-0.13232115154751534
-0.11385773505251384
-0.16309351237253633
-0.1938658731975296
-0.17540245670252808
-0.29233742783754685
-0.21848376185754081
-0.2800284835075273
-0.29233742783754685
-0.18155692886753785
-0.1384756237125251
-0.20002034536253932
-0.1015487907225221
-0.2984919000025288
-0.29233742783754685
-0.26771953917753555
-0.21848376185754081
-0.2738740113425453
-0.26771953917753555
-0.20617481752752131
-0.2246382340225228
-0.2431016505175243
-0.040004069072507864
-0.18155692886753785
-0.2431016505175243
-0.3415732051575415
-0.3415732051575415
-0.26156506701252585
-0.20617481752752131
-0.3538821494875609
-0.29233742783754685
-0.30464637216753854
-0.3415732051575415
-0.30464637216753854
-0.3108008443325483
-0.1261666793825056
-0.12001220721752358
-0.29233742783754685
-0.24925612268253405
-0.20002034536253932
-0.18771140103251985
-0.20617481752752131
-0.28618295567253704
-0.24925612268253405
-0.21848376185754081
-0.3108008443325483
-0.390808982477564
-0.895475700007614
0.033849596907498114
0.1692479845375183
0.02154065257750637
-0.14463009587750708
-0.18155692886753785
-0.2800284835075273
-0.1692479845375183
-0.15693904020752658
-0.26156506701252585
-0.2554105948475438
-0.2984919000025288
-0.32310978866254003
-0.24925612268253405
-0.3538821494875609
-0.36619109381755277
-0.2984919000025288
-0.1384756237125251
-0.1261666793825056
-0.23079270618753256
-0.2431016505175243
-0.3108008443325483
-0.3723455659825625
-0.2800284835075273
-0.3108008443325483
-0.34772767732255133
-0.3292642608275498
-0.3415732051575415
-0.26771953917753555
-0.23079270618753256
-0.36619109381755277
-0.30464637216753854
-0.29233742783754685
-0.33541873299255964
-0.3538821494875609
-0.30464637216753854
-0.23079270618753256
-0.2431016505175243
-0.30464637216753854
-0.3846545103125543
-0.36619109381755277
-0.3723455659825625
-0.3538821494875609
-0.3538821494875609
-0.32310978866254003
-0.3292642608275498
-0.3108008443325483
-0.2984919000025288
-0.33541873299255964
-0.3292642608275498
-0.30464637216753854
-0.3415732051575415
-0.34772767732255133
-0.5077439536125827
-0.4831260649525715
-0.34772767732255133
-0.29233742783754685
-0.28618295567253704
0.08308537422752059
0.7539228402126119
-0.4708171206225797
-0.7477683680476023
-0.6369878690775933
-0.34772767732255133
-0.2369471783525424
-0.1938658731975296
-0.2431016505175243
-0.1384756237125251
-0.05846748556750937
-0.21848376185754081
-0.2246382340225228
-0.11385773505251384
-0.12001220721752358
-0.18771140103251985
-0.15693904020752658
-0.16309351237253633
-0.15078456804251686
-0.20617481752752131
-0.30464637216753854
-0.2800284835075273
-0.2800284835075273
-0.2984919000025288
-0.26771953917753555
-0.23079270618753256
-0.1938658731975296
-0.2246382340225228
-0.2800284835075273
-0.26771953917753555
-0.15693904020752658
-0.16309351237253633
-0.2431016505175243
-0.26156506701252585
-0.21848376185754081
-0.2554105948475438
-0.26771953917753555
-0.28618295567253704
-0.3415732051575415
-0.30464637216753854
-0.36619109381755277
-0.360036621652543
-0.31695531649755804
-0.3846545103125543
-0.433890287632549
-0.4154268711375475
-0.3846545103125543
-0.37850003814754446
-0.427735815467567
-0.5015894814475731
-0.44619923196256844
-0.4708171206225797
-0.5692886752625692
-0.5877520917575707
-0.5631342030975872
-0.6062155082525723
-0.6677602299025862
-0.6616057577376044
0.3415732051575415
-0.5138984257775646
-1.4062968897027015
-0.8339309783576276
-0.7108415350575992
-0.7785407288726233
-1.2955163907326928
-0.4400447597975588
-0.47697159278756174
-0.7662317845426038
-0.8400854505226096
-0.7416138958825924
-0.8031586175326066
-0.8093130896976164
-0.7846952010376053
-0.8462399226876194
-0.8154675618626261
-0.9262480608326351
-0.9139391165026156
-0.7416138958825924
-0.7785407288726233
-0.7846952010376053
-0.7785407288726233
-0.7539228402126119
-0.6492968134075847
-0.6554512855725947
-0.4585081762925601
-0.4523537041275505
-0.40311792680755576
-0.28618295567253704
-0.2554105948475438
-0.21232928969253104
-0.15078456804251686
-0.2554105948475438
-0.26771953917753555
-0.2246382340225228
-0.17540245670252808
-0.1692479845375183
-0.11385773505251384
-0.1015487907225221
-0.003077236082504875
0.05846748556750937
-0.09539431855751236
-0.15078456804251686
-0.16309351237253633
-0.18771140103251985
-0.23079270618753256
-0.26156506701252585
-0.11385773505251384
-0.26771953917753555
-0.29233742783754685
-0.26771953917753555
-0.23079270618753256
-0.23079270618753256
-0.2738740113425453
-0.32310978866254003
-0.21232928969253104
-0.37850003814754446
-0.427735815467567
-0.4400447597975588
-0.4154268711375475
-0.3538821494875609
-0.433890287632549
-0.4400447597975588
0.040004069072507864
0.5015894814475731
-0.6308333969125834
-0.36619109381755277
-0.3538821494875609
-0.30464637216753854
-0.30464637216753854
-0.24925612268253405
-0.11385773505251384
-1.0493375041326358
-0.901630172172624
-0.18155692886753785
-0.40311792680755576
-0.3415732051575415
-0.427735815467567
-0.390808982477564
-0.5508252587675677
-0.9385570051626267
-0.4831260649525715
-0.0707764298975011
-0.18771140103251985
-0.360036621652543
-0.34772767732255133
-0.2984919000025288
-0.30464637216753854
-0.433890287632549
-0.4092723989725655
-0.396963454642546
-0.37850003814754446
-0.32310978866254003
-0.3538821494875609
-0.33541873299255964
-0.06462195773251911
-0.23079270618753256
-0.2800284835075273
-0.2246382340225228
-0.2800284835075273
-0.3292642608275498
-0.3415732051575415
-0.2800284835075273
-0.20002034536253932
-0.3538821494875609
-0.34772767732255133
-0.3415732051575415
-0.32310978866254003
-0.23079270618753256
-0.2984919000025288
-0.32310978866254003
-0.24925612268253405
-0.4092723989725655
-0.3723455659825625
-0.390808982477564
-0.2984919000025288
-0.26156506701252585
-0.3292642608275498
-0.21232928969253104
-0.13232115154751534
-0.3846545103125543
-0.4154268711375475
-0.360036621652543
-0.33541873299255964
-0.3292642608275498
-0.29233742783754685
-0.21848376185754081
-0.17540245670252808
-0.2800284835075273
-0.36619109381755277
-0.433890287632549
-0.427735815467567
-0.3723455659825625
-0.3538821494875609
-0.6431423412426027
-0.6800691742326057
0.26771953917753555
-0.1015487907225221
-0.2369471783525424
-0.3723455659825625
-0.427735815467567
-0.3846545103125543
-0.3108008443325483
-0.26771953917753555
-0.37850003814754446
-0.3292642608275498
-0.34772767732255133
-0.36619109381755277
-0.3415732051575415
-0.30464637216753854
-0.2554105948475438
-0.1384756237125251
-0.32310978866254003
-0.24925612268253405
-0.16309351237253633
-0.02769512474251612
-0.08923984639250257
-0.09539431855751236
-0.05846748556750937
-0.09539431855751236
-0.14463009587750708
-0.01538618041249662
-0.04615854123751762
-0.0707764298975011
-0.08923984639250257
-0.040004069072507864
-0.009231708247514623
-0.003077236082504875
-0.04615854123751762
0.02769512474251612
0.0707764298975011
0.1384756237125251
0.11385773505251384
0.16309351237253633
0.1015487907225221
0.16309351237253633
0.08923984639250257
0.16309351237253633
0.2984919000025288
0.13232115154751534
0.02769512474251612
0.1261666793825056
0.13232115154751534
0.10770326288750408
-0.009231708247514623
0.4585081762925601
1.1908903639276658
0.033849596907498114
0.1384756237125251
0.17540245670252808
0.21848376185754081
-0.3538821494875609
-0.3415732051575415
0.003077236082504875
0.07693090206251085
0.13232115154751534
0.12001220721752358
0.07693090206251085
0.10770326288750408
0.13232115154751534
-0.08923984639250257
0.11385773505251384
0.1692479845375183
0.003077236082504875
-0.11385773505251384
-0.0707764298975011
-0.06462195773251911
-0.009231708247514623
-0.20617481752752131
-0.21848376185754081
-0.1692479845375183
-0.11385773505251384
-0.15693904020752658
-0.20002034536253932
-0.10770326288750408
-0.13232115154751534
-0.1938658731975296
-0.16309351237253633
-0.13232115154751534
-0.1015487907225221
-0.040004069072507864
-0.003077236082504875
-0.02769512474251612
-0.11385773505251384
-0.18771140103251985
-0.1692479845375183
-0.12001220721752358
-0.12001220721752358
-0.20002034536253932
-0.29233742783754685
-0.26771953917753555
-0.2800284835075273
-0.3723455659825625
-0.36619109381755277
-0.30464637216753854
-0.2800284835075273
-0.26771953917753555
-0.32310978866254003
-0.26771953917753555
-0.3538821494875609
-0.433890287632549
-0.3846545103125543
-0.29233742783754685
-0.3415732051575415
-0.390808982477564
-0.360036621652543
-0.2984919000025288
-0.31695531649755804
-0.4708171206225797
-1.0185651433076426
-0.08308537422752059
-0.1015487907225221
-0.28618295567253704
-0.3108008443325483
-0.29233742783754685
-0.37850003814754446
-0.396963454642546
-0.4154268711375475
-0.360036621652543
-0.360036621652543
-0.33541873299255964
-0.3538821494875609
-0.3538821494875609
-0.4400447597975588
-0.433890287632549
-0.28618295567253704
-0.390808982477564
-0.46466264845757
-0.433890287632549
-0.3723455659825625
-0.2800284835075273
-0.3415732051575415
-0.32310978866254003
-0.31695531649755804
-0.33541873299255964
-0.36619109381755277
-0.32310978866254003
-0.33541873299255964
0.2369471783525424
-0.20002034536253932
-0.6246789247476012
-0.4831260649525715
-0.4523537041275505
-0.4154268711375475
-0.390808982477564
-0.3846545103125543
-0.32310978866254003
-0.4708171206225797
-0.433890287632549
-0.360036621652543
-0.44619923196256844
-0.46466264845757
-0.4523537041275505
-0.4092723989725655
-0.37850003814754446
-0.4831260649525715
-0.4892805371175811
-0.4400447597975588
-0.40311792680755576
-0.4154268711375475
-0.4400447597975588
-0.4154268711375475
-0.3108008443325483
-0.4831260649525715
-0.4092723989725655
-0.360036621652543
-0.396963454642546
-0.09539431855751236
0.5815976195925888
-0.6554512855725947
-0.5692886752625692
-1.0124106711426328
-0.6862236463975879
-0.5015894814475731
-0.46466264845757
-0.4092723989725655
-0.396963454642546
-0.34772767732255133
-0.24925612268253405
-0.3108008443325483
-0.33541873299255964
-0.28618295567253704
-0.29233742783754685
-0.23079270618753256
-0.21848376185754081
-0.18771140103251985
-0.1261666793825056
-0.2738740113425453
-0.24925612268253405
-0.21232928969253104
-0.15693904020752658
-0.14463009587750708
-0.12001220721752358
-0.10770326288750408
-0.11385773505251384
-0.24925612268253405
-0.2800284835075273
-0.2800284835075273
-0.26771953917753555
-0.2431016505175243
-0.1692479845375183
-0.31695531649755804
-0.2369471783525424
-0.3846545103125543
-0.33541873299255964
-0.28618295567253704
-0.26771953917753555
-0.18771140103251985
-0.23079270618753256
-0.20617481752752131
-0.05846748556750937
-0.28618295567253704
-0.3108008443325483
-0.2738740113425453
-0.26156506701252585
-0.2738740113425453
-0.24925612268253405
-0.2431016505175243
-0.0707764298975011
-0.26156506701252585
-0.29233742783754685
-0.2369471783525424
-0.21848376185754081
-0.2246382340225228
-0.2984919000025288
-0.2800284835075273
-0.20617481752752131
-0.32310978866254003
-0.3538821494875609
-0.3108008443325483
-0.3292642608275498
-0.8708578113476306
0.01538618041249662
0.06462195773251911
-0.0707764298975011
-0.29233742783754685
-0.28618295567253704
-0.2369471783525424
-0.23079270618753256
-0.16309351237253633
-0.1692479845375183
-0.15078456804251686
-0.009231708247514623
-0.16309351237253633
-0.1692479845375183
-0.18155692886753785
-0.21848376185754081
-0.16309351237253633
-0.09539431855751236
-0.15693904020752658
0.6308333969125834
0.05231301340249961
-0.1938658731975296
-0.15693904020752658
-0.20002034536253932
-0.20002034536253932
-0.17540245670252808
-0.11385773505251384
-0.33541873299255964
-0.7293049515526008
-0.390808982477564
-0.3108008443325483
-0.26156506701252585
-0.2554105948475438
-0.2369471783525424
-0.15693904020752658
-0.17540245670252808
-0.33541873299255964
-0.2800284835075273
-0.2554105948475438
-0.2246382340225228
-0.20002034536253932
-0.24925612268253405
-0.24925612268253405
-0.20617481752752131
-0.28618295567253704
-0.26156506701252585
-0.15693904020752658
-0.2246382340225228
-0.16309351237253633
-0.18771140103251985
-0.21232928969253104
-0.17540245670252808
-0.2246382340225228
-0.21848376185754081
-0.23079270618753256
-0.18155692886753785
-0.08923984639250257
-0.1261666793825056
0.12001220721752358
0.6862236463975879
-0.2369471783525424
-0.13232115154751534
-0.18771140103251985
-0.17540245670252808
-0.1384756237125251
-0.09539431855751236
-0.15078456804251686
-0.5323618422725662
-0.6862236463975879
-0.3292642608275498
-0.17540245670252808
-0.1692479845375183
-0.13232115154751534
-0.15078456804251686
-0.30464637216753854
-0.32310978866254003
-0.26771953917753555
-0.17540245670252808
-0.16309351237253633
-0.12001220721752358
-0.10770326288750408
-0.13232115154751534
-0.08923984639250257
-0.05231301340249961
-0.15078456804251686
-0.08308537422752059
-0.11385773505251384
-0.15078456804251686
-0.09539431855751236
0.05231301340249961
-0.04615854123751762
-0.06462195773251911
-0.20002034536253932
-0.20617481752752131
-0.21232928969253104
-0.18155692886753785
-0.09539431855751236
-0.13232115154751534
-0.17540245670252808
-0.13232115154751534
-0.2246382340225228
-0.21232928969253104
-0.2369471783525424
-0.2554105948475438
-0.3538821494875609
-0.4092723989725655
-0.15693904020752658
-0.17540245670252808
-0.29233742783754685
-0.2984919000025288
-0.34772767732255133
-0.33541873299255964
-0.26771953917753555
-0.26771953917753555
-0.29233742783754685
-0.2984919000025288
-0.33541873299255964
-0.31695531649755804
-0.2246382340225228
-0.05846748556750937
-0.23079270618753256
-0.3415732051575415
-0.8093130896976164
0.11385773505251384
0.05231301340249961
-0.17540245670252808
-0.21232928969253104
-0.23079270618753256
-0.2246382340225228
-0.20617481752752131
-0.17540245670252808
-0.18771140103251985
-0.2431016505175243
-0.17540245670252808
-0.1692479845375183
-0.14463009587750708
-0.14463009587750708
-0.14463009587750708
-0.1384756237125251
-0.18155692886753785
-0.20617481752752131
-0.21848376185754081
-0.20617481752752131
-0.05846748556750937
0.003077236082504875
-0.18155692886753785
-0.17540245670252808
-0.20002034536253932
-0.2738740113425453
-0.21232928969253104
-0.2369471783525424
-0.23079270618753256
-0.24925612268253405
-0.26771953917753555
-0.23079270618753256
-0.21232928969253104
-0.26156506701252585
-0.2984919000025288
-0.26771953917753555
-0.21848376185754081
-0.2369471783525424
-0.26156506701252585
-0.23079270618753256
-0.29233742783754685
-0.33541873299255964
-0.31695531649755804
-0.33541873299255964
-0.29233742783754685
-0.28618295567253704
-0.23079270618753256
-0.1692479845375183
-0.21848376185754081
-0.2369471783525424
-0.21232928969253104
-0.23079270618753256
-0.18771140103251985
-0.1384756237125251
-0.15078456804251686
-0.1692479845375183
-0.29233742783754685
0.07693090206251085
0.7785407288726233
-0.40311792680755576
-0.21848376185754081
-0.1692479845375183
-0.12001220721752358
-0.12001220721752358
-0.6616057577376044
-0.47697159278756174
-0.21232928969253104
-0.1261666793825056
-0.11385773505251384
-0.10770326288750408
-0.08308537422752059
0.44619923196256844
-0.0707764298975011
-0.46466264845757
-0.21232928969253104
-0.15693904020752658
-0.04615854123751762
-0.05846748556750937
-0.033849596907498114
0.033849596907498114
-0.05846748556750937
-0.05846748556750937
-0.003077236082504875
-0.01538618041249662
0.01538618041249662
0.07693090206251085
-0.009231708247514623
0.04615854123751762
-0.0707764298975011
-0.08923984639250257
-0.040004069072507864
-0.05231301340249961
0.02769512474251612
0.08308537422752059
0.07693090206251085
0.033849596907498114
-0.10770326288750408
-0.1261666793825056
-0.05846748556750937
0.01538618041249662
-0.01538618041249662
0.01538618041249662
0.10770326288750408
0.12001220721752358
-0.09539431855751236
-0.1261666793825056
-0.12001220721752358
-0.07693090206251085
-0.05231301340249961
-0.12001220721752358
-0.040004069072507864
0.08923984639250257
-0.033849596907498114
0.009231708247514623
0.040004069072507864
0.12001220721752358
0.15078456804251686
0.02769512474251612
0.08308537422752059
0.06462195773251911
-0.16309351237253633
-0.6431423412426027
0.31695531649755804
0.40311792680755576
0.18771140103251985
0.21232928969253104
0.2738740113425453
0.28618295567253704
0.08923984639250257
0.02769512474251612
0.1261666793825056
0.0707764298975011
-0.003077236082504875
0.08308537422752059
0.14463009587750708
0.2369471783525424
0.06462195773251911
0.10770326288750408
0.18771140103251985
0.2800284835075273
0.2984919000025288
0.23079270618753256
0.20617481752752131
0.2800284835075273
0.01538618041249662
-0.01538618041249662
0.01538618041249662
0.07693090206251085
0.15693904020752658
0.14463009587750708
0.15693904020752658
0.37850003814754446
0.21232928969253104
0.15078456804251686
0.09539431855751236
0.12001220721752358
0.15693904020752658
0.08923984639250257
0.05231301340249961
0.1015487907225221
0.009231708247514623
0.04615854123751762
0.02769512474251612
0.05231301340249961
0.06462195773251911
0.08308537422752059
0.07693090206251085
0.18155692886753785
0.05846748556750937
0.02154065257750637
0.07693090206251085
0.08308537422752059
0.07693090206251085
0.009231708247514623
0.1015487907225221
0.20002034536253932
0.1261666793825056
0.14463009587750708
0.1015487907225221
0.3415732051575415
1.000101726812641
-0.12001220721752358
-0.009231708247514623
-0.24925612268253405
-0.5262073701075842
-0.1261666793825056
-0.05231301340249961
-0.0707764298975011
-0.08308537422752059
-0.0707764298975011
-0.09539431855751236
-0.1384756237125251
-0.18155692886753785
-0.1261666793825056
-0.14463009587750708
-0.15078456804251686
-0.1384756237125251
-0.15078456804251686
-0.13232115154751534
-0.0707764298975011
-0.1384756237125251
-0.11385773505251384
-0.08308537422752059
-0.02769512474251612
-0.06462195773251911
-0.11385773505251384
-0.1261666793825056
-0.033849596907498114
-0.2369471783525424
-0.1384756237125251
-0.11385773505251384
-0.09539431855751236
-0.10770326288750408
-0.09539431855751236
0.05846748556750937
0.7908496732026148
-0.7293049515526008
0.05846748556750937
0.1692479845375183
-0.02769512474251612
-0.13232115154751534
-0.15693904020752658
-0.1261666793825056
-0.3723455659825625
-0.6185244525825918
-0.2984919000025288
-0.21232928969253104
-0.20617481752752131
-0.21232928969253104
-0.1938658731975296
-0.1692479845375183
-0.14463009587750708
-0.21848376185754081
-0.18155692886753785
-0.14463009587750708
-0.1384756237125251
-0.1938658731975296
-0.26156506701252585
-0.20002034536253932
-0.14463009587750708
-0.26156506701252585
-0.20617481752752131
-0.21848376185754081
-0.26156506701252585
-0.24925612268253405
-0.2246382340225228
-0.15693904020752658
-0.05231301340249961
-0.23079270618753256
-0.20002034536253932
-0.1261666793825056
-0.2246382340225228
-0.23079270618753256
-0.21232928969253104
-0.1938658731975296
-0.21232928969253104
-0.26156506701252585
-0.23079270618753256
-0.21848376185754081
-0.21232928969253104
-0.20002034536253932
-0.2246382340225228
-0.18155692886753785
-0.18155692886753785
-0.24925612268253405
-0.18771140103251985
-0.2431016505175243
-0.20617481752752131
-0.15693904020752658
-0.18771140103251985
-0.1261666793825056
-0.1015487907225221
-0.2431016505175243
-0.18771140103251985
-0.18771140103251985
-0.18771140103251985
-0.18155692886753785
-0.16309351237253633
-0.6246789247476012
-0.3108008443325483
0.2800284835075273
-0.08308537422752059
-0.20617481752752131
-0.20002034536253932
-0.20002034536253932
-0.24925612268253405
-0.18771140103251985
-0.15693904020752658
-0.18155692886753785
-0.13232115154751534
-0.15693904020752658
-0.15693904020752658
-0.08923984639250257
-0.11385773505251384
-0.07693090206251085
0.009231708247514623
0.2431016505175243
0.07693090206251085
-0.05846748556750937
-0.12001220721752358
-0.1261666793825056
0.21232928969253104
0.6923781185625978
-0.7908496732026148
-0.49543500928256323
-0.2554105948475438
-0.1938658731975296
-0.2246382340225228
-0.20617481752752131
-0.18771140103251985
-0.1384756237125251
-0.34772767732255133
-0.32310978866254003
-0.21232928969253104
-0.21232928969253104
-0.18155692886753785
-0.1261666793825056
-0.17540245670252808
-0.17540245670252808
-0.1938658731975296
-0.20617481752752131
-0.16309351237253633
-0.18771140103251985
-0.1938658731975296
-0.14463009587750708
-0.02154065257750637
0.23079270618753256
0.033849596907498114
-0.1384756237125251
-0.20002034536253932
-0.18771140103251985
-0.1692479845375183
-0.1692479845375183
-0.15693904020752658
-0.10770326288750408
-0.1692479845375183
-0.2431016505175243
-0.2431016505175243
-0.20617481752752131
-0.20002034536253932
-0.24925612268253405
-0.1938658731975296
-0.13232115154751534
-0.18771140103251985
-0.2369471783525424
-0.24925612268253405
-0.28618295567253704
-0.30464637216753854
-0.2431016505175243
-0.20002034536253932
-0.1938658731975296
-0.24925612268253405
-0.24925612268253405
-0.21848376185754081
-0.2246382340225228
-0.3723455659825625
-0.6677602299025862
-0.42158134330255725
-0.26156506701252585
-0.33541873299255964
-0.26771953917753555
-0.2738740113425453
-0.31695531649755804
-0.30464637216753854
-0.3723455659825625
-0.9139391165026156
0.02769512474251612
0.08308537422752059
-0.21848376185754081
-0.26771953917753555
-0.18155692886753785
0.04615854123751762
-0.1015487907225221
-0.17540245670252808
-0.08923984639250257
-0.2369471783525424
-0.2738740113425453
-0.2369471783525424
-0.2800284835075273
-0.26771953917753555
-0.26156506701252585
-0.2246382340225228
-0.15078456804251686
-0.26771953917753555
-0.30464637216753854
-0.3108008443325483
-0.5569797309325777
-0.40311792680755576
-0.32310978866254003
-0.26771953917753555
-0.14463009587750708
-0.3292642608275498
-0.31695531649755804
-0.2554105948475438
-0.26156506701252585
-0.2554105948475438
-0.24925612268253405
-0.26771953917753555
-0.20002034536253932
-0.31695531649755804
-0.23079270618753256
-0.14463009587750708
-0.2431016505175243
-0.2738740113425453
-0.2431016505175243
-0.2246382340225228
-0.13232115154751534
-0.26771953917753555
-0.30464637216753854
-0.2984919000025288
-0.2554105948475438
-0.2369471783525424
-0.2369471783525424
-0.2369471783525424
-0.16309351237253633
-0.2369471783525424
-0.23079270618753256
-0.26156506701252585
-0.24925612268253405
-0.2369471783525424
-0.21232928969253104
-0.1015487907225221
-0.04615854123751762
0.04615854123751762
0.6062155082525723
-0.3415732051575415
-0.20617481752752131
-0.20002034536253932
-0.1938658731975296
-0.21232928969253104
-0.3846545103125543
-0.8031586175326066
-0.40311792680755576
-0.24925612268253405
-0.20002034536253932
-0.17540245670252808
-0.15078456804251686
-0.1692479845375183
-0.10770326288750408
-0.2554105948475438
-0.2431016505175243
-0.28618295567253704
-0.2984919000025288
-0.26771953917753555
-0.28618295567253704
-0.26771953917753555
-0.12001220721752358
-0.2984919000025288
-0.2431016505175243
-0.21848376185754081
-0.24925612268253405
-0.24925612268253405
-0.26156506701252585
-0.2738740113425453
-0.18155692886753785
-0.3723455659825625
-0.3292642608275498
-0.20617481752752131
-0.04615854123751762
-0.1938658731975296
-0.16309351237253633
-0.23079270618753256
-0.17540245670252808
-0.3846545103125543
-0.360036621652543
-0.3108008443325483
-0.3292642608275498
-0.30464637216753854
-0.26771953917753555
-0.2369471783525424
-0.18771140103251985
-0.2984919000025288
-0.2984919000025288
-0.2738740113425453
-0.29233742783754685
-0.2554105948475438
-0.3108008443325483
-0.21848376185754081
-0.05846748556750937
-0.2800284835075273
-0.21232928969253104
-0.23079270618753256
-0.20617481752752131
-0.16309351237253633
-0.21232928969253104
-0.23079270618753256
-0.2738740113425453
-0.9816383103176396
0.02154065257750637
0.07693090206251085
-0.08923984639250257
-0.08308537422752059
-0.1938658731975296
-0.2369471783525424
-0.17540245670252808
-0.3292642608275498
-0.31695531649755804
-0.29233742783754685
-0.26156506701252585
-0.2554105948475438
-0.21232928969253104
-0.11385773505251384
-0.12001220721752358
-0.2369471783525424
-0.1938658731975296
-0.2431016505175243
-0.28618295567253704
-0.26156506701252585
-0.2369471783525424
-0.18155692886753785
-0.15078456804251686
-0.3538821494875609
-0.2984919000025288
-0.21848376185754081
-0.1384756237125251
-0.15693904020752658
-0.18771140103251985
-0.15693904020752658
-0.09539431855751236
-0.1938658731975296
-0.14463009587750708
-0.1015487907225221
-0.18155692886753785
-0.23079270618753256
-0.26771953917753555
-0.2738740113425453
-0.2738740113425453
-0.37850003814754446
-0.2738740113425453
-0.26156506701252585
-0.2800284835075273
-0.26156506701252585
-0.2369471783525424
-0.1384756237125251
0.8277765061926179
-0.32310978866254003
-0.30464637216753854
-0.2246382340225228
-0.2800284835075273
-0.28618295567253704
-0.28618295567253704
-0.30464637216753854
-0.7539228402126119
-0.8031586175326066
-0.4831260649525715
-0.05231301340249961
0.5077439536125827
-0.4523537041275505
-0.3108008443325483
-0.3292642608275498
-0.7354594237176102
-0.7108415350575992
-0.396963454642546
-0.36619109381755277
-0.33541873299255964
-0.31695531649755804
-0.24925612268253405
-0.23079270618753256
-0.23079270618753256
-0.40311792680755576
-0.3415732051575415
-0.2984919000025288
-0.28618295567253704
-0.28618295567253704
-0.2554105948475438
-0.14463009587750708
-0.32310978866254003
-0.33541873299255964
-0.2554105948475438
-0.26156506701252585
-0.2369471783525424
-0.26156506701252585
-0.23079270618753256
-0.18155692886753785
-0.20617481752752131
-0.26156506701252585
-0.2369471783525424
-0.2431016505175243
-0.2431016505175243
-0.31695531649755804
-0.2738740113425453
-0.24925612268253405
-0.30464637216753854
-0.4154268711375475
-0.36619109381755277
-0.31695531649755804
-0.2984919000025288
-0.26771953917753555
-0.26771953917753555
-0.20617481752752131
-0.2738740113425453
-0.3292642608275498
-0.2738740113425453
-0.2369471783525424
-0.2738740113425453
-0.1015487907225221
-0.040004069072507864
-0.16309351237253633
-0.21848376185754081
-0.29233742783754685
-0.28618295567253704
-0.3108008443325483
-0.2984919000025288
-0.2984919000025288
-0.34772767732255133
-0.3108008443325483
-0.32310978866254003
-0.390808982477564
-0.49543500928256323
-1.0493375041326358
-0.30464637216753854
-0.3108008443325483
-0.42158134330255725
-0.4154268711375475
-0.4585081762925601
-0.4585081762925601
-0.4400447597975588
-0.40311792680755576
-0.37850003814754446
-0.33541873299255964
-0.32310978866254003
-0.29233742783754685
-0.3415732051575415
-0.3723455659825625
-0.3108008443325483
-0.3108008443325483
-0.3292642608275498
-0.33541873299255964
-0.33541873299255964
-0.28618295567253704
-0.33541873299255964
-0.3415732051575415
-0.360036621652543
-0.3415732051575415
-0.3292642608275498
-0.33541873299255964
-0.3108008443325483
0.20002034536253932
-0.1692479845375183
-0.6062155082525723
-0.33541873299255964
-0.2431016505175243
-0.18155692886753785
-0.1938658731975296
-0.2554105948475438
-0.14463009587750708
-0.2800284835075273
-0.29233742783754685
-0.2369471783525424
-0.2246382340225228
-0.21232928969253104
-0.20617481752752131
-0.1938658731975296
-0.1384756237125251
-0.2431016505175243
-0.2246382340225228
-0.21848376185754081
-0.20617481752752131
-0.20617481752752131
-0.21232928969253104
-0.2554105948475438
-0.16309351237253633
-0.2431016505175243
-0.28618295567253704
-0.2431016505175243
-0.24925612268253405
-0.2554105948475438
0.09539431855751236
0.6062155082525723
-0.49543500928256323
-0.7662317845426038
-0.4400447597975588
-0.2984919000025288
-0.2431016505175243
-0.2246382340225228
-0.21848376185754081
-0.20617481752752131
-0.08308537422752059
-0.2554105948475438
-0.29233742783754685
-0.28618295567253704
-0.29233742783754685
-0.29233742783754685
-0.26771953917753555
-0.24925612268253405
-0.09539431855751236
-0.2800284835075273
-0.26771953917753555
-0.23079270618753256
-0.2431016505175243
-0.21232928969253104
-0.2431016505175243
-0.24925612268253405
-0.15693904020752658
-0.31695531649755804
-0.3292642608275498
-0.2800284835075273
-0.2431016505175243
-0.2800284835075273
-0.2984919000025288
-0.26156506701252585
-0.14463009587750708
-0.32310978866254003
-0.2984919000025288
-0.26156506701252585
-0.2984919000025288
-0.33541873299255964
-0.30464637216753854
-0.2738740113425453
-0.14463009587750708
-0.3538821494875609
-0.3415732051575415
-0.32310978866254003
-0.3108008443325483
-0.3415732051575415
-0.31695531649755804
-0.29233742783754685
-0.20617481752752131
-0.5323618422725662
-0.5446707866025856
-0.4585081762925601
-0.4154268711375475
-0.3415732051575415
-0.2984919000025288
-0.29233742783754685
-0.26156506701252585
-0.427735815467567
-0.47697159278756174
-0.4400447597975588
-0.4400447597975588
-0.49543500928256323
-1.073955392792647
-0.2246382340225228
-0.05846748556750937
-0.40311792680755576
-0.36619109381755277
-0.3415732051575415
-0.3108008443325483
-0.4092723989725655
-0.390808982477564
-0.31695531649755804
-0.21848376185754081
-0.37850003814754446
-0.28618295567253704
-0.26771953917753555
-0.2984919000025288
-0.396963454642546
-0.34772767732255133
-0.2738740113425453
-0.20002034536253932
-0.3292642608275498
-0.2800284835075273
-0.2554105948475438
-0.2246382340225228
-0.23079270618753256
-0.23079270618753256
-0.21848376185754081
-0.14463009587750708
-0.2554105948475438
-0.2800284835075273
-0.2984919000025288
-0.24925612268253405
-0.24925612268253405
-0.21848376185754081
-0.17540245670252808
-0.05846748556750937
-0.32310978866254003
-0.29233742783754685
-0.23079270618753256
-0.18771140103251985
-0.15078456804251686
-0.2431016505175243
-0.26771953917753555
-0.2246382340225228
-0.37850003814754446
-0.3292642608275498
-0.23079270618753256
-0.29233742783754685
-0.2431016505175243
-0.2431016505175243
-0.2554105948475438
-0.2554105948475438
-0.4585081762925601
-0.31695531649755804
-0.28618295567253704
-0.2431016505175243
-0.21848376185754081
-0.2431016505175243
-0.24925612268253405
0.15078456804251686
0.8093130896976164
-0.4400447597975588
-0.2984919000025288
-0.23079270618753256
-0.1938658731975296
-0.1938658731975296
-0.2246382340225228
-0.5815976195925888
-0.6739147020675963
-0.32310978866254003
-0.20002034536253932
-0.2246382340225228
-0.2246382340225228
-0.20002034536253932
-0.11385773505251384
-0.07693090206251085
-0.30464637216753854
-0.23079270618753256
-0.21232928969253104
-0.20002034536253932
-0.18155692886753785
-0.1692479845375183
-0.1261666793825056
-0.15693904020752658
-0.24925612268253405
-0.2554105948475438
-0.30464637216753854
-0.2431016505175243
-0.21848376185754081
-0.2554105948475438
-0.0707764298975011
-0.06462195773251911
-0.1692479845375183
-0.1692479845375183
-0.18155692886753785
-0.21848376185754081
-0.26771953917753555
-0.26156506701252585
-0.1938658731975296
-0.13232115154751534
-0.21232928969253104
-0.24925612268253405
-0.2738740113425453
-0.21848376185754081
-0.2369471783525424
-0.31695531649755804
-0.32310978866254003
-0.2369471783525424
-0.32310978866254003
-0.29233742783754685
-0.2800284835075273
-0.2554105948475438
-0.2800284835075273
-0.28618295567253704
-0.2246382340225228
-0.20617481752752131
-0.2431016505175243
-0.13232115154751534
-0.08923984639250257
-0.12001220721752358
-0.18771140103251985
-0.23079270618753256
-0.02154065257750637
0.360036621652543
-0.6985325907276074
0.31695531649755804
0.08308537422752059
-0.07693090206251085
-0.05231301340249961
-0.04615854123751762
-0.1384756237125251
-0.6185244525825918
-0.5569797309325777
-0.2554105948475438
-0.20617481752752131
-0.11385773505251384
-0.2246382340225228
-0.2246382340225228
-0.18155692886753785
-0.21848376185754081
-0.26156506701252585
-0.1938658731975296
-0.18771140103251985
-0.20002034536253932
-0.20617481752752131
-0.23079270618753256
-0.21232928969253104
-0.2369471783525424
-0.2554105948475438
-0.16309351237253633
-0.23079270618753256
-0.040004069072507864
-0.15693904020752658
-0.26156506701252585
-0.21848376185754081
-0.23079270618753256
-0.29233742783754685
-0.2554105948475438
-0.2554105948475438
-0.2431016505175243
-0.23079270618753256
-0.2431016505175243
-0.26156506701252585
-0.32310978866254003
-0.31695531649755804
-0.2431016505175243
-0.24925612268253405
-0.26156506701252585
-0.2984919000025288
-0.28618295567253704
-0.2369471783525424
-0.29233742783754685
-0.2984919000025288
-0.2246382340225228
-0.24925612268253405
-0.2984919000025288
-0.28618295567253704
-0.2554105948475438
-0.14463009587750708
-0.20617481752752131
-0.2800284835075273
0.02154065257750637
0.538516314437576
-0.4154268711375475
-0.21232928969253104
-0.21848376185754081
-0.3723455659825625
-0.901630172172624
-0.7046870628925892
-0.4708171206225797
-0.390808982477564
-0.360036621652543
-0.34772767732255133
-0.34772767732255133
-0.2738740113425453
-0.37850003814754446
-0.46466264845757
-0.47697159278756174
-0.4092723989725655
-0.42158134330255725
-0.427735815467567
-0.396963454642546
-0.34772767732255133
-0.4523537041275505
-0.4585081762925601
-0.42158134330255725
-0.396963454642546
-0.36619109381755277
-0.47697159278756174
-0.46466264845757
-0.34772767732255133
-0.5138984257775646
-0.5200528979425745
-0.5077439536125827
-0.538516314437576
-0.5138984257775646
-0.5200528979425745
-0.4400447597975588
-0.433890287632549
-0.5815976195925888
-0.5631342030975872
-0.538516314437576
-0.5077439536125827
-0.44619923196256844
-0.44619923196256844
-0.433890287632549
-0.360036621652543
-0.5015894814475731
-0.5138984257775646
-0.49543500928256323
-0.4523537041275505
-0.390808982477564
-0.36619109381755277
-0.34772767732255133
-0.32310978866254003
-0.46466264845757
-0.4585081762925601
-0.427735815467567
-0.3538821494875609
-0.31695531649755804
-0.29233742783754685
-0.26156506701252585
-0.18771140103251985
-0.3108008443325483
-0.3723455659825625
-0.901630172172624
-0.003077236082504875
-0.009231708247514623
-0.21848376185754081
-0.26156506701252585
-0.12001220721752358
-0.29233742783754685
-0.28618295567253704
-0.28618295567253704
-0.26771953917753555
-0.10770326288750408
-0.1938658731975296
-0.24925612268253405
-0.23079270618753256
-0.3723455659825625
-0.3723455659825625
-0.32310978866254003
-0.28618295567253704
-0.2738740113425453
-0.30464637216753854
-0.2984919000025288
-0.23079270618753256
-0.4092723989725655
-0.4400447597975588
-0.390808982477564
-0.17540245670252808
-0.26156506701252585
-0.427735815467567
-0.4154268711375475
-0.2984919000025288
-0.44619923196256844
-0.31695531649755804
-0.3723455659825625
-0.31695531649755804
-0.29233742783754685
-0.360036621652543
-0.37850003814754446
-0.3292642608275498
-0.4892805371175811
-0.4708171206225797
-0.7970041453676248
-0.6800691742326057
-0.44619923196256844
-0.4092723989725655
-0.42158134330255725
-0.3415732051575415
-0.5262073701075842
-0.46466264845757
-0.4523537041275505
-0.433890287632549
-0.42158134330255725
-0.390808982477564
-0.31695531649755804
-0.2431016505175243
-0.32310978866254003
-0.29233742783754685
-0.2800284835075273
-0.2984919000025288
-0.040004069072507864
0.40311792680755576
-0.538516314437576
-0.6308333969125834
-0.9693293659876481
-0.5631342030975872
-0.36619109381755277
-0.26771953917753555
-0.2554105948475438
-0.18155692886753785
-0.2246382340225228
-0.09539431855751236
0.10770326288750408
-0.02769512474251612
-0.23079270618753256
-0.31695531649755804
-0.3292642608275498
-0.30464637216753854
-0.28618295567253704
-0.2984919000025288
-0.40311792680755576
-0.34772767732255133
-0.3538821494875609
-0.3538821494875609
-0.37850003814754446
-0.396963454642546
-0.44619923196256844
-0.8277765061926179
-0.7600773123775938
-0.5138984257775646
-0.4585081762925601
-0.4708171206225797
-0.46466264845757
-0.4400447597975588
-0.33541873299255964
-0.2984919000025288
-0.4400447597975588
-0.37850003814754446
-0.3538821494875609
-0.360036621652543
-0.29233742783754685
-0.24925612268253405
-0.2800284835075273
-0.21848376185754081
-0.3292642608275498
-0.29233742783754685
-0.3415732051575415
-0.37850003814754446
-0.396963454642546
-0.3415732051575415
-0.2738740113425453
-0.30464637216753854
-0.42158134330255725
-0.3723455659825625
-0.34772767732255133
-0.3292642608275498
-0.31695531649755804
-0.31695531649755804
-0.360036621652543
-0.32310978866254003
-0.44619923196256844
-0.33541873299255964
-0.3723455659825625
-0.4892805371175811
-0.9631748938226381
-0.01538618041249662
-0.05846748556750937
-0.2369471783525424
-0.32310978866254003
-0.3292642608275498
-0.31695531649755804
-0.31695531649755804
-0.33541873299255964
-0.33541873299255964
-0.26156506701252585
-0.28618295567253704
-0.3415732051575415
-0.2800284835075273
-0.3108008443325483
-0.32310978866254003
-0.32310978866254003
-0.3292642608275498
-0.2246382340225228
-0.21232928969253104
-0.36619109381755277
-0.2800284835075273
-0.1938658731975296
0.14463009587750708
0.009231708247514623
-0.1384756237125251
-0.21848376185754081
-0.23079270618753256
-0.2431016505175243
-0.2246382340225228
-0.23079270618753256
-0.2246382340225228
-0.21232928969253104
-0.21848376185754081
-0.23079270618753256
-0.2246382340225228
-0.24925612268253405
-0.3108008443325483
-0.575443147427579
-0.4154268711375475
-0.32310978866254003
-0.34772767732255133
-0.21232928969253104
-0.2431016505175243
-0.360036621652543
-0.31695531649755804
-0.28618295567253704
-0.26156506701252585
-0.2738740113425453
-0.24925612268253405
-0.10770326288750408
-0.1938658731975296
-0.2369471783525424
-0.2800284835075273
-0.30464637216753854
-0.23079270618753256
-0.24925612268253405
-0.2984919000025288
0.04615854123751762
0.5446707866025856
-0.33541873299255964
-0.18771140103251985
-0.18771140103251985
-0.24925612268253405
-0.23079270618753256
-0.1938658731975296
-0.2554105948475438
-0.6923781185625978
-0.5200528979425745
-0.29233742783754685
-0.18771140103251985
-0.16309351237253633
-0.16309351237253633
-0.13232115154751534
0.17540245670252808
0.47697159278756174
-0.7416138958825924
0.28618295567253704
0.05846748556750937
-0.08308537422752059
-0.13232115154751534
-0.15693904020752658
-0.1261666793825056
-0.6739147020675963
-0.4831260649525715
-0.18155692886753785
-0.10770326288750408
-0.15078456804251686
-0.16309351237253633
-0.1261666793825056
-0.08308537422752059
-0.02154065257750637
0.04615854123751762
-0.040004069072507864
-0.11385773505251384
-0.1384756237125251
-0.09539431855751236
-0.01538618041249662
0.06462195773251911
-0.08923984639250257
-0.11385773505251384
-0.08308537422752059
-0.05231301340249961
-0.06462195773251911
-0.08308537422752059
-0.11385773505251384
0.3538821494875609
-0.09539431855751236
-0.5077439536125827
-0.2738740113425453
-0.20002034536253932
-0.1261666793825056
-0.20002034536253932
-0.26156506701252585
-0.09539431855751236
-0.18155692886753785
-0.15078456804251686
0.009231708247514623
-0.06462195773251911
-0.12001220721752358
-0.15693904020752658
-0.15078456804251686
-0.07693090206251085
-0.21232928969253104
-0.20002034536253932
-0.17540245670252808
-0.18155692886753785
-0.033849596907498114
0.24925612268253405
0.02154065257750637
-0.02769512474251612
-0.16309351237253633
-0.20002034536253932
-0.18155692886753785
-0.16309351237253633
-0.12001220721752358
-0.1692479845375183
-0.3415732051575415
-0.7662317845426038
0.13232115154751534
0.13232115154751534
-0.15693904020752658
-0.2554105948475438
-0.33541873299255964
-0.2431016505175243
-0.20617481752752131
-0.13232115154751534
-0.23079270618753256
-0.1938658731975296
-0.21232928969253104
-0.21232928969253104
-0.07693090206251085
-0.11385773505251384
-0.16309351237253633
-0.12001220721752358
-0.1938658731975296
-0.13232115154751534
-0.16309351237253633
-0.3108008443325483
-0.21848376185754081
-0.20617481752752131
-0.20002034536253932
-0.1015487907225221
-0.21848376185754081
-0.21232928969253104
-0.23079270618753256
-0.18155692886753785
-0.07693090206251085
0.06462195773251911
-0.02154065257750637
0.01538618041249662
-0.20617481752752131
-0.1015487907225221
-0.21232928969253104
-0.26771953917753555
-0.1938658731975296
-0.15078456804251686
-0.18771140103251985
-0.1384756237125251
-0.2738740113425453
0.02769512474251612
0.5815976195925888
-0.33541873299255964
-0.17540245670252808
-0.1261666793825056
-0.05846748556750937
-0.30464637216753854
-0.7970041453676248
-0.4585081762925601
-0.2800284835075273
-0.21848376185754081
-0.21848376185754081
-0.21232928969253104
-0.16309351237253633
-0.12001220721752358
-0.28618295567253704
-0.23079270618753256
-0.2246382340225228
-0.2246382340225228
-0.21848376185754081
-0.08923984639250257
-0.12001220721752358
-0.07693090206251085
-0.40311792680755576
-0.31695531649755804
-0.24925612268253405
-0.20617481752752131
-0.16309351237253633
-0.16309351237253633
-0.15693904020752658
-0.01538618041249662
-0.21848376185754081
-0.21848376185754081
-0.16309351237253633
0.04615854123751762
0.07693090206251085
-0.08923984639250257
-0.003077236082504875
0.18771140103251985
-0.1384756237125251
-0.20617481752752131
-0.18771140103251985
-0.15693904020752658
-0.23079270618753256
-0.20617481752752131
-0.17540245670252808
-0.12001220721752358
-0.1692479845375183
-0.13232115154751534
-0.08923984639250257
0.05231301340249961
0.02769512474251612
0.02154065257750637
-0.18771140103251985
-0.15078456804251686
-0.24925612268253405
-0.21232928969253104
-0.15693904020752658
-0.15693904020752658
-0.17540245670252808
-0.13232115154751534
0.003077236082504875
0.06462195773251911
-0.2369471783525424
-0.7169960072226089
0.2554105948475438
0.20002034536253932
0.15078456804251686
0.13232115154751534
-0.040004069072507864
-0.06462195773251911
-0.1692479845375183
-0.12001220721752358
-0.13232115154751534
-0.08923984639250257
-0.10770326288750408
-0.1384756237125251
-0.0707764298975011
0.1261666793825056
-0.06462195773251911
-0.06462195773251911
-0.040004069072507864
-0.0707764298975011
-0.1015487907225221
-0.08308537422752059
-0.02769512474251612
0.04615854123751762
-0.1015487907225221
-0.10770326288750408
-0.14463009587750708
-0.09539431855751236
-0.05846748556750937
-0.14463009587750708
-0.1261666793825056
-0.033849596907498114
-0.06462195773251911
-0.11385773505251384
-0.08308537422752059
-0.14463009587750708
-0.1384756237125251
-0.14463009587750708
-0.1384756237125251
-0.1015487907225221
-0.20617481752752131
-0.18155692886753785
-0.12001220721752358
0.05846748556750937
0.16309351237253633
0.01538618041249662
-0.02769512474251612
-0.0707764298975011
-0.18155692886753785
-0.02769512474251612
0.02154065257750637
-0.08308537422752059
-0.18771140103251985
-0.1692479845375183
-0.17540245670252808
-0.1384756237125251
-0.23079270618753256
-0.21848376185754081
-0.16309351237253633
0.32310978866254003
0.7785407288726233
-0.26156506701252585
-0.14463009587750708
-0.575443147427579
-0.396963454642546
-0.2431016505175243
-0.2431016505175243
-0.20002034536253932
-0.18155692886753785
-0.1938658731975296
-0.18771140103251985
-0.18771140103251985
-0.2246382340225228
-0.18155692886753785
-0.10770326288750408
0.02154065257750637
-0.02154065257750637
-0.12001220721752358
-0.08923984639250257
-0.0707764298975011
-0.2246382340225228
-0.21848376185754081
-0.20617481752752131
-0.17540245670252808
-0.17540245670252808
-0.23079270618753256
-0.13232115154751534
-0.10770326288750408
-0.2738740113425453
-0.13232115154751534
-0.0707764298975011
-0.15693904020752658
-0.1015487907225221
-0.15693904020752658
-0.16309351237253633
-0.1938658731975296
-0.20002034536253932
-0.1692479845375183
-0.11385773505251384
-0.12001220721752358
-0.13232115154751534
-0.1384756237125251
-0.08308537422752059
-0.11385773505251384
-0.0707764298975011
-0.0707764298975011
-0.12001220721752358
-0.10770326288750408
-0.17540245670252808
-0.12001220721752358
-0.09539431855751236
-0.12001220721752358
-0.1938658731975296
-0.15078456804251686
-0.14463009587750708
-0.13232115154751534
-0.09539431855751236
-0.1261666793825056
-0.17540245670252808
-0.18771140103251985
-0.17540245670252808
-0.20617481752752131
-0.28618295567253704
-0.7908496732026148
0.18771140103251985
0.32310978866254003
-0.003077236082504875
-0.11385773505251384
-0.10770326288750408
-0.0707764298975011
-0.06462195773251911
-0.05846748556750937
-0.05231301340249961
-0.05231301340249961
-0.02769512474251612
-0.1261666793825056
-0.13232115154751534
-0.13232115154751534
-0.13232115154751534
-0.21232928969253104
-0.21848376185754081
-0.11385773505251384
0.396963454642546
-0.08308537422752059
-0.4523537041275505
-0.1938658731975296
-0.0707764298975011
-0.15078456804251686
-0.12001220721752358
-0.06462195773251911
0.34772767732255133
0.8216220340276081
-0.30464637216753854
-0.15078456804251686
-0.18771140103251985
-0.26156506701252585
-0.1692479845375183
-0.1384756237125251
-0.2738740113425453
-0.7785407288726233
-0.44619923196256844
-0.2431016505175243
-0.18155692886753785
-0.16309351237253633
-0.1384756237125251
-0.1261666793825056
-0.02154065257750637
-0.1384756237125251
-0.14463009587750708
-0.09539431855751236
-0.06462195773251911
-0.05846748556750937
-0.033849596907498114
-0.05846748556750937
0.06462195773251911
-0.05231301340249961
-0.06462195773251911
-0.01538618041249662
-0.003077236082504875
-0.009231708247514623
0.003077236082504875
0.34772767732255133
0.7539228402126119
-0.8031586175326066
-0.26156506701252585
-0.11385773505251384
-0.0707764298975011
-0.02154065257750637
0.06462195773251911
0.02154065257750637
0.05846748556750937
-0.040004069072507864
-0.08923984639250257
-0.003077236082504875
0.08923984639250257
0.02154065257750637
0.01538618041249662
0.02154065257750637
0.07693090206251085
-0.09539431855751236
-0.02154065257750637
0.003077236082504875
0.033849596907498114
0.05231301340249961
0.040004069072507864
0.10770326288750408
0.29233742783754685
0.003077236082504875
-0.02154065257750637
0.01538618041249662
0.08923984639250257
0.0707764298975011
0.02154065257750637
0.02769512474251612
0.16309351237253633
-0.02154065257750637
-0.040004069072507864
-0.05846748556750937
-0.09539431855751236
-0.0707764298975011
-0.06462195773251911
-0.02769512474251612
0.1015487907225221
-0.08308537422752059
-0.1015487907225221
0.01538618041249662
0.05846748556750937
0.02154065257750637
-0.040004069072507864
-0.003077236082504875
0.05231301340249961
-0.08923984639250257
-0.040004069072507864
-0.02154065257750637
-0.033849596907498114
0.009231708247514623
0.01538618041249662
-0.01538618041249662
0.040004069072507864
-0.1384756237125251
-0.13232115154751534
-0.13232115154751534
-0.1015487907225221
-0.1384756237125251
-0.21848376185754081
-0.6246789247476012
0.2738740113425453
0.1261666793825056
-0.08923984639250257
-0.14463009587750708
-0.11385773505251384
-0.15078456804251686
-0.14463009587750708
-0.10770326288750408
0.01538618041249662
-0.15693904020752658
-0.16309351237253633
-0.14463009587750708
-0.09539431855751236
-0.09539431855751236
-0.1015487907225221
-0.1261666793825056
-0.05846748556750937
-0.11385773505251384
-0.06462195773251911
-0.01538618041249662
0.02154065257750637
0.08923984639250257
0.1261666793825056
0.08308537422752059
0.15693904020752658
0.01538618041249662
0.033849596907498114
-0.04615854123751762
-0.08308537422752059
-0.08308537422752059
-0.05231301340249961
0.009231708247514623
0.08308537422752059
-0.003077236082504875
0.040004069072507864
0.04615854123751762
0.040004069072507864
0.02769512474251612
-0.05846748556750937
-0.0707764298975011
-0.003077236082504875
-0.08923984639250257
-0.04615854123751762
-0.003077236082504875
0.0707764298975011
0.04615854123751762
0.05231301340249961
0.1015487907225221
0.13232115154751534
0.04615854123751762
0.08923984639250257
0.08923984639250257
0.06462195773251911
0.1261666793825056
0.1261666793825056
0.09539431855751236
0.11385773505251384
0.3108008443325483
0.9754838381526297
-0.15078456804251686
0.12001220721752358
0.08923984639250257
0.0707764298975011
0.0707764298975011
-0.33541873299255964
-0.44619923196256844
-0.07693090206251085
0.06462195773251911
0.08308537422752059
0.08308537422752059
0.05231301340249961
0.10770326288750408
0.18155692886753785
0.08923984639250257
0.040004069072507864
0.0707764298975011
0.07693090206251085
0.0707764298975011
0.040004069072507864
0.05231301340249961
0.040004069072507864
-0.033849596907498114
0.033849596907498114
0.08923984639250257
0.14463009587750708
0.12001220721752358
0.0707764298975011
0.09539431855751236
0.08308537422752059
-0.13232115154751534
-0.0707764298975011
-0.0707764298975011
-0.09539431855751236
-0.07693090206251085
-0.05231301340249961
-0.040004069072507864
-0.02769512474251612
-0.05846748556750937
-0.01538618041249662
-0.009231708247514623
-0.01538618041249662
-0.01538618041249662
-0.02154065257750637
-0.02769512474251612
-0.12001220721752358
-0.1938658731975296
-0.11385773505251384
0.003077236082504875
0.10770326288750408
0.04615854123751762
-0.033849596907498114
-0.04615854123751762
-0.02769512474251612
-0.16309351237253633
-0.12001220721752358
-0.1015487907225221
-0.1261666793825056
-0.15693904020752658
-0.18771140103251985
-0.12001220721752358
-0.20002034536253932
-0.7723862567076134
0.15078456804251686
0.16309351237253633
-0.1015487907225221
-0.14463009587750708
-0.15693904020752658
-0.07693090206251085
-0.0707764298975011
-0.09539431855751236
-0.02154065257750637
0.009231708247514623
0.02154065257750637
0.05231301340249961
0.04615854123751762
0.05846748556750937
0.01538618041249662
-0.05231301340249961
-0.033849596907498114
-0.003077236082504875
0.01538618041249662
-0.02154065257750637
-0.040004069072507864
-0.009231708247514623
-0.1015487907225221
-0.23079270618753256
-0.18771140103251985
-0.15078456804251686
-0.11385773505251384
-0.05846748556750937
0.05846748556750937
0.08923984639250257
0.033849596907498114
-0.009231708247514623
-0.040004069072507864
-0.05846748556750937
-0.06462195773251911
-0.08923984639250257
-0.13232115154751534
-0.05846748556750937
-0.10770326288750408
-0.20002034536253932
-0.17540245670252808
-0.360036621652543
-0.31695531649755804
-0.24925612268253405
-0.2800284835075273
-0.2431016505175243
-0.2800284835075273
-0.3108008443325483
-0.30464637216753854
-0.2738740113425453
-0.26156506701252585
-0.2738740113425453
-0.2369471783525424
-0.17540245670252808
-0.21232928969253104
-0.17540245670252808
-0.01538618041249662
0.21848376185754081
0.8339309783576276
-0.433890287632549
-0.2984919000025288
0.15693904020752658
-0.7354594237176102
-0.8708578113476306
-0.3846545103125543
-0.3108008443325483
-0.2800284835075273
-0.26771953917753555
-0.23079270618753256
-0.1692479845375183
-0.26771953917753555
-0.24925612268253405
-0.23079270618753256
-0.26156506701252585
-0.26156506701252585
-0.2554105948475438
-0.2738740113425453
-0.18155692886753785
-0.2984919000025288
-0.36619109381755277
-0.34772767732255133
-0.3538821494875609
-0.3292642608275498
-0.31695531649755804
-0.34772767732255133
-0.24925612268253405
-0.3538821494875609
-0.433890287632549
-0.396963454642546
-0.396963454642546
-0.3723455659825625
-0.390808982477564
-0.396963454642546
-0.30464637216753854
-0.44619923196256844
-0.46466264845757
-0.4092723989725655
-0.4092723989725655
-0.4092723989725655
-0.37850003814754446
-0.3538821494875609
0.05231301340249961
-0.360036621652543
-0.7108415350575992
0.0707764298975011
-0.28618295567253704
-0.4092723989725655
-0.427735815467567
-0.4092723989725655
-0.5508252587675677
-1.0062561989776508
-0.6800691742326057
-0.538516314437576
-0.47697159278756174
-0.4523537041275505
-0.37850003814754446
-0.427735815467567
-0.36619109381755277
-0.46466264845757
-0.47697159278756174
-0.427735815467567
-0.40311792680755576
-0.37850003814754446
-0.3292642608275498
-0.36619109381755277
-0.26771953917753555
-0.42158134330255725
-0.42158134330255725
-0.4092723989725655
-0.3846545103125543
-0.40311792680755576
-0.36619109381755277
-0.36619109381755277
-0.29233742783754685
-0.4523537041275505
-0.4154268711375475
-0.390808982477564
-0.390808982477564
-0.4092723989725655
-0.396963454642546
-0.396963454642546
-0.2800284835075273
-0.4585081762925601
-0.427735815467567
-0.3846545103125543
-0.3846545103125543
-0.427735815467567
-0.44619923196256844
-0.40311792680755576
-0.26771953917753555
-0.44619923196256844
-0.40311792680755576
-0.360036621652543
-0.3292642608275498
-0.32310978866254003
-0.29233742783754685
-0.2738740113425453
-0.20617481752752131
-0.4092723989725655
-0.360036621652543
-0.3108008443325483
-0.30464637216753854
-0.3292642608275498
-0.32310978866254003
-0.5200528979425745
-0.8277765061926179
0.05846748556750937
-0.1015487907225221
-0.2738740113425453
-0.3108008443325483
-0.2738740113425453
-0.2800284835075273
-0.28618295567253704
-0.2369471783525424
-0.36619109381755277
-0.3415732051575415
-0.36619109381755277
-0.3538821494875609
-0.3415732051575415
-0.033849596907498114
0.6308333969125834
-0.8523943948526291
-0.9693293659876481
-0.538516314437576
-0.396963454642546
-0.3723455659825625
-0.360036621652543
-0.34772767732255133
-0.3538821494875609
-0.2800284835075273
-0.36619109381755277
-0.4831260649525715
-0.49543500928256323
-0.4400447597975588
-0.427735815467567
-0.433890287632549
-0.37850003814754446
-0.4585081762925601
-0.4708171206225797
-0.44619923196256844
-0.4400447597975588
-0.433890287632549
-0.433890287632549
-0.42158134330255725
-0.3846545103125543
-0.1692479845375183
-0.13232115154751534
-0.2246382340225228
-0.3292642608275498
-0.396963454642546
-0.427735815467567
-0.44619923196256844
-0.44619923196256844
-0.3846545103125543
-0.5077439536125827
-0.49543500928256323
-0.46466264845757
-0.44619923196256844
-0.44619923196256844
-0.4585081762925601
-0.433890287632549
-0.5077439536125827
-0.5323618422725662
-0.46466264845757
-0.5015894814475731
-0.5015894814475731
-0.4831260649525715
-0.4585081762925601
-0.42158134330255725
-0.40311792680755576
-0.4892805371175811
-0.4154268711375475
-0.4400447597975588
-0.427735815467567
-0.396963454642546
-0.26156506701252585
0.05231301340249961
-0.16309351237253633
-0.36619109381755277
-0.36619109381755277
-0.3723455659825625
-0.36619109381755277
-0.4585081762925601
-1.0370285598026439
-0.09539431855751236
-0.02769512474251612
-0.34772767732255133
-0.427735815467567
-0.4400447597975588
-0.4154268711375475
-0.5815976195925888
-0.9077846443376336
-0.6123699804175822
-0.4585081762925601
-0.4892805371175811
-0.44619923196256844
-0.46466264845757
-0.4523537041275505
-0.37850003814754446
-0.3415732051575415
-0.33541873299255964
-0.33541873299255964
-0.42158134330255725
-0.3846545103125543
-0.37850003814754446
-0.33541873299255964
-0.28618295567253704
-0.34772767732255133
-0.32310978866254003
-0.360036621652543
-0.4523537041275505
-0.3846545103125543
-0.3538821494875609
-0.360036621652543
-0.36619109381755277
-0.360036621652543
-0.3292642608275498
-0.31695531649755804
-0.31695531649755804
-0.44619923196256844
-0.390808982477564
-0.396963454642546
-0.4154268711375475
-0.390808982477564
-0.31695531649755804
-0.30464637216753854
-0.4092723989725655
-0.390808982477564
-0.396963454642546
-0.37850003814754446
-0.396963454642546
-0.427735815467567
-0.36619109381755277
-0.4092723989725655
-0.5569797309325777
-0.4400447597975588
-0.4708171206225797
-0.49543500928256323
-0.44619923196256844
-0.433890287632549
-0.396963454642546
-0.08923984639250257
0.5939065639225805
-0.6000610360875902
-0.433890287632549
-0.360036621652543
-0.32310978866254003
-0.31695531649755804
-0.36619109381755277
-0.8708578113476306
-0.6369878690775933
-0.37850003814754446
-0.360036621652543
-0.31695531649755804
-0.3108008443325483
-0.28618295567253704
-0.2554105948475438
-0.31695531649755804
-0.3538821494875609
-0.33541873299255964
-0.33541873299255964
-0.3723455659825625
-0.360036621652543
-0.3415732051575415
-0.31695531649755804
-0.2738740113425453
-0.2246382340225228
-0.2800284835075273
-0.23079270618753256
-0.20002034536253932
-0.1938658731975296
-0.20002034536253932
-0.16309351237253633
-0.18155692886753785
-0.17540245670252808
-0.1692479845375183
-0.20002034536253932
-0.2431016505175243
-0.3108008443325483
-0.34772767732255133
-0.40311792680755576
-0.6246789247476012
-0.5138984257775646
-0.33541873299255964
-0.26771953917753555
-0.2554105948475438
-0.29233742783754685
-0.32310978866254003
-0.26771953917753555
-0.396963454642546
-0.47697159278756174
-0.427735815467567
-0.390808982477564
-0.3538821494875609
-0.433890287632549
-0.3538821494875609
-0.4585081762925601
-0.7108415350575992
-0.7477683680476023
-0.6923781185625978
-0.6369878690775933
-0.6000610360875902
-0.5446707866025856
-0.575443147427579
-0.6677602299025862
-1.2585895577426898
-0.31695531649755804
-0.26156506701252585
-0.4523537041275505
-0.5323618422725662
-0.5692886752625692
-0.6923781185625978
-0.5569797309325777
-0.6062155082525723
-0.6000610360875902
-0.6308333969125834
-0.6062155082525723
-0.6185244525825918
-0.6431423412426027
-0.5939065639225805
-0.4892805371175811
-0.5692886752625692
-0.5200528979425745
-0.5323618422725662
-0.5508252587675677
-0.47697159278756174
-0.44619923196256844
-0.433890287632549
-0.3415732051575415
-0.4154268711375475
-0.40311792680755576
-0.3723455659825625
-0.32310978866254003
-0.30464637216753854
-0.28618295567253704
-0.26771953917753555
-0.1261666793825056
-0.2800284835075273
-0.2554105948475438
-0.20002034536253932
-0.09539431855751236
-0.1261666793825056
-0.07693090206251085
-0.02154065257750637
0.08923984639250257
0.04615854123751762
0.06462195773251911
0.14463009587750708
0.20002034536253932
0.1938658731975296
0.2431016505175243
0.3108008443325483
0.40311792680755576
0.2738740113425453
0.3108008443325483
0.24925612268253405
0.15078456804251686
0.21848376185754081
0.18155692886753785
0.11385773505251384
0.6923781185625978
0.5508252587675677
-0.05846748556750937
0.30464637216753854
0.5262073701075842
-0.6308333969125834
-0.20617481752752131
-0.06462195773251911
-0.14463009587750708
-0.6000610360875902
-0.09539431855751236
0.04615854123751762
0.003077236082504875
-0.02154065257750637
-0.05231301340249961
-0.0707764298975011
0.003077236082504875
-0.12001220721752358
-0.1261666793825056
-0.1261666793825056
-0.12001220721752358
-0.1261666793825056
-0.12001220721752358
-0.12001220721752358
-0.06462195773251911
-0.3846545103125543
-0.4154268711375475
-0.2369471783525424
-0.1938658731975296
-0.20617481752752131
-0.21232928969253104
-0.21232928969253104
-0.1261666793825056
-0.20617481752752131
-0.2554105948475438
-0.2431016505175243
-0.2431016505175243
-0.2554105948475438
-0.2431016505175243
-0.21232928969253104
0.01538618041249662
-0.20002034536253932
-0.2738740113425453
-0.2800284835075273
-0.2984919000025288
-0.3108008443325483
-0.3415732051575415
-0.32310978866254003
-0.20617481752752131
-0.360036621652543
-0.29233742783754685
-0.29233742783754685
-0.3108008443325483
-0.2984919000025288
-0.29233742783754685
-0.2554105948475438
-0.2369471783525424
-0.3723455659825625
-0.36619109381755277
-0.3108008443325483
-0.2738740113425453
-0.2431016505175243
-0.28618295567253704
-0.2984919000025288
-0.2738740113425453
-0.34772767732255133
-0.42158134330255725
-0.9262480608326351
0.003077236082504875
0.02769512474251612
-0.08923984639250257
-0.1015487907225221
-0.20617481752752131
-0.433890287632549
-0.360036621652543
-0.3108008443325483
-0.2800284835075273
-0.30464637216753854
-0.3292642608275498
-0.29233742783754685
-0.20617481752752131
-0.3108008443325483
-0.2554105948475438
-0.21232928969253104
-0.17540245670252808
-0.23079270618753256
-0.2554105948475438
-0.21848376185754081
-0.13232115154751534
-0.23079270618753256
-0.16309351237253633
-0.10770326288750408
-0.05231301340249961
-0.040004069072507864
-0.11385773505251384
-0.13232115154751534
-0.1692479845375183
-0.2431016505175243
-0.20002034536253932
-0.1692479845375183
-0.1015487907225221
-0.14463009587750708
-0.1015487907225221
-0.05846748556750937
-0.04615854123751762
-0.1261666793825056
-0.1261666793825056
-0.1384756237125251
-0.08923984639250257
-0.1384756237125251
-0.12001220721752358
-0.07693090206251085
-0.05231301340249961
-0.18771140103251985
-0.14463009587750708
-0.20002034536253932
-0.26156506701252585
-0.2738740113425453
-0.20617481752752131
-0.1261666793825056
-0.1261666793825056
-0.2738740113425453
-0.20617481752752131
-0.17540245670252808
-0.13232115154751534
0.29233742783754685
1.0493375041326358
-0.26771953917753555
-0.5939065639225805
-0.5077439536125827
-0.1015487907225221
-0.09539431855751236
-0.1015487907225221
-0.07693090206251085
-0.08923984639250257
-0.04615854123751762
-0.02769512474251612
-0.18155692886753785
-0.14463009587750708
-0.1261666793825056
-0.1384756237125251
-0.11385773505251384
-0.1261666793825056
-0.10770326288750408
-0.08923984639250257
-0.18771140103251985
-0.18155692886753785
-0.15078456804251686
-0.13232115154751534
-0.13232115154751534
-0.11385773505251384
-0.05231301340249961
-0.0707764298975011
-0.13232115154751534
-0.11385773505251384
-0.12001220721752358
-0.12001220721752358
-0.10770326288750408
-0.1261666793825056
-0.08308537422752059
0.02154065257750637
-0.17540245670252808
-0.18771140103251985
-0.17540245670252808
-0.16309351237253633
-0.1692479845375183
-0.1692479845375183
-0.12001220721752358
-0.15693904020752658
-0.20002034536253932
-0.18771140103251985
-0.1692479845375183
-0.15078456804251686
-0.12001220721752358
-0.15693904020752658
-0.1384756237125251
-0.18771140103251985
-0.26771953917753555
-0.18155692886753785
-0.18155692886753785
-0.2369471783525424
-0.2431016505175243
-0.21848376185754081
-0.14463009587750708
-0.21848376185754081
-0.1938658731975296
-0.17540245670252808
-0.16309351237253633
-0.2431016505175243
-0.7046870628925892
0.7723862567076134
0.6739147020675963
0.08923984639250257
-0.033849596907498114
-0.08308537422752059
-0.11385773505251384
-0.14463009587750708
-0.15078456804251686
-0.15693904020752658
-0.09539431855751236
-0.1015487907225221
-0.11385773505251384
-0.07693090206251085
-0.05846748556750937
-0.1261666793825056
-0.6369878690775933
-0.5077439536125827
0.23079270618753256
-0.09539431855751236
-0.46466264845757
-0.1938658731975296
-0.1384756237125251
-0.1384756237125251
-0.11385773505251384
-0.1261666793825056
-0.07693090206251085
-0.13232115154751534
-0.1261666793825056
-0.09539431855751236
-0.06462195773251911
-0.003077236082504875
-0.14463009587750708
-0.12001220721752358
-0.08308537422752059
-0.18771140103251985
-0.1938658731975296
-0.1938658731975296
-0.1938658731975296
-0.21232928969253104
-0.1938658731975296
-0.20002034536253932
-0.04615854123751762
-0.14463009587750708
-0.1692479845375183
-0.1692479845375183
-0.13232115154751534
-0.18155692886753785
-0.15693904020752658
-0.15693904020752658
-0.02769512474251612
-0.17540245670252808
-0.28618295567253704
-0.2431016505175243
-0.21232928969253104
-0.1938658731975296
-0.18771140103251985
-0.17540245670252808
0.21232928969253104
0.8093130896976164
-0.46466264845757
-0.2800284835075273
-0.20617481752752131
-0.15693904020752658
-0.1692479845375183
-0.16309351237253633
-0.2984919000025288
-0.7908496732026148
-0.4585081762925601
-0.2738740113425453
-0.2431016505175243
-0.2246382340225228
-0.17540245670252808
-0.15078456804251686
-0.10770326288750408
-0.15693904020752658
-0.033849596907498114
-0.040004069072507864
-0.1015487907225221
-0.15078456804251686
-0.1692479845375183
-0.16309351237253633
-0.04615854123751762
-0.18771140103251985
-0.17540245670252808
-0.14463009587750708
-0.15693904020752658
-0.13232115154751534
-0.14463009587750708
-0.17540245670252808
-0.0707764298975011
-0.1938658731975296
-0.2554105948475438
-0.15693904020752658
-0.16309351237253633
-0.1938658731975296
-0.17540245670252808
-0.15693904020752658
-0.02769512474251612
-0.2369471783525424
-0.2246382340225228
-0.15078456804251686
-0.18771140103251985
-0.16309351237253633
-0.1261666793825056
-0.16309351237253633
-0.1384756237125251
-0.2246382340225228
-0.20617481752752131
-0.1692479845375183
-0.12001220721752358
-0.1384756237125251
-0.15693904020752658
-0.1261666793825056
-0.02154065257750637
-0.2369471783525424
-0.21232928969253104
-0.1384756237125251
-0.15693904020752658
-0.15693904020752658
-0.08923984639250257
-0.20002034536253932
-0.7539228402126119
0.08308537422752059
0.1384756237125251
-0.13232115154751534
-0.17540245670252808
-0.1938658731975296
-0.18155692886753785
-0.12001220721752358
0.7046870628925892
0.16309351237253633
-0.2246382340225228
-0.15078456804251686
-0.13232115154751534
-0.12001220721752358
-0.20002034536253932
-0.15078456804251686
-0.427735815467567
-0.7354594237176102
-0.32310978866254003
-0.21848376185754081
-0.18771140103251985
-0.20617481752752131
-0.23079270618753256
-0.18155692886753785
-0.0707764298975011
-0.26156506701252585
-0.21232928969253104
-0.16309351237253633
-0.18155692886753785
-0.17540245670252808
-0.1692479845375183
-0.15078456804251686
-0.08308537422752059
-0.26156506701252585
-0.21848376185754081
-0.16309351237253633
-0.17540245670252808
-0.1692479845375183
-0.15693904020752658
-0.12001220721752358
-0.04615854123751762
-0.2369471783525424
-0.20002034536253932
-0.15078456804251686
-0.0707764298975011
-0.11385773505251384
-0.1384756237125251
-0.15693904020752658
-0.1261666793825056
-0.24925612268253405
-0.18771140103251985
-0.1384756237125251
-0.13232115154751534
-0.18771140103251985
-0.1938658731975296
-0.13232115154751534
-0.1261666793825056
-0.23079270618753256
0.16309351237253633
0.8277765061926179
-0.433890287632549
-0.21848376185754081
-0.14463009587750708
-0.1384756237125251
-0.5200528979425745
-0.6123699804175822
-0.28618295567253704
-0.1938658731975296
-0.1938658731975296
-0.21232928969253104
-0.18771140103251985
-0.15693904020752658
-0.1261666793825056
-0.23079270618753256
-0.2369471783525424
-0.18155692886753785
-0.1384756237125251
-0.09539431855751236
-0.08923984639250257
-0.08923984639250257
-0.09539431855751236
-0.1938658731975296
-0.21848376185754081
-0.23079270618753256
-0.2800284835075273
-0.3292642608275498
-0.31695531649755804
-0.26156506701252585
-0.18155692886753785
-0.21232928969253104
-0.20617481752752131
-0.20617481752752131
-0.21232928969253104
-0.21232928969253104
-0.26771953917753555
-0.24925612268253405
-0.2246382340225228
-0.2984919000025288
-0.23079270618753256
-0.16309351237253633
-0.15078456804251686
11.53655807329418
21.4206403702856
4.089646753643067
1.4493781948577145
0.5939065639225805
0.3292642608275498
0.14463009587750708
0.040004069072507864
-0.08923984639250257
-0.10770326288750408
-0.11385773505251384
-0.16309351237253633
-0.20617481752752131
-0.1938658731975296
-0.20002034536253932
-0.21232928969253104
-0.20617481752752131
-0.10770326288750408
0.08923984639250257
-0.02769512474251612
-0.29233742783754685
-0.8647033391826209
0.07693090206251085
0.1015487907225221
-0.18155692886753785
-0.23079270618753256
-0.20617481752752131
-0.2554105948475438
-0.3292642608275498
-0.30464637216753854
-0.26771953917753555
-0.3108008443325483
-0.3538821494875609
-0.46466264845757
-0.3292642608275498
-0.31695531649755804
-0.3538821494875609
-0.30464637216753854
-0.31695531649755804
-0.3108008443325483
-0.28618295567253704
-0.2984919000025288
-0.21232928969253104
-0.30464637216753854
-0.3538821494875609
-0.31695531649755804
-0.32310978866254003
-0.30464637216753854
-0.2369471783525424
-0.2800284835075273
-0.26771953917753555
-0.30464637216753854
-0.3538821494875609
-0.36619109381755277
-0.33541873299255964
-0.3415732051575415
-0.360036621652543
-0.36619109381755277
-0.32310978866254003
-0.360036621652543
-0.40311792680755576
-0.37850003814754446
-0.46466264845757
-0.575443147427579
-0.4831260649525715
-0.44619923196256844
-0.36619109381755277
-0.433890287632549
-0.433890287632549
-0.4092723989725655
-0.40311792680755576
-0.3846545103125543
-0.3846545103125543
-0.3846545103125543
-0.3292642608275498
-0.4154268711375475
-0.4523537041275505
-0.4092723989725655
-0.46466264845757
-0.14463009587750708
0.5877520917575707
-0.6677602299025862
-0.09539431855751236
-0.9200935886676254
-1.0124106711426328
-0.5446707866025856
-0.4400447597975588
-0.396963454642546
-0.433890287632549
-0.37850003814754446
-0.28618295567253704
-0.4154268711375475
-0.42158134330255725
-0.3415732051575415
-0.37850003814754446
-0.40311792680755576
-0.40311792680755576
-0.3846545103125543
-0.2554105948475438
-0.360036621652543
-0.4092723989725655
-0.37850003814754446
-0.3723455659825625
-0.360036621652543
-0.37850003814754446
-0.360036621652543
-0.28618295567253704
-0.4523537041275505
-0.42158134330255725
-0.3846545103125543
-0.3723455659825625
-0.36619109381755277
-0.360036621652543
-0.3415732051575415
-0.26156506701252585
-0.427735815467567
-0.427735815467567
-0.3846545103125543
-0.390808982477564
-0.4154268711375475
-0.36619109381755277
-0.37850003814754446
-0.18155692886753785
-0.15693904020752658
-0.360036621652543
-0.34772767732255133
-0.360036621652543
-0.3415732051575415
-0.3846545103125543
-0.4092723989725655
-0.28618295567253704
-0.427735815467567
-0.433890287632549
-0.427735815467567
-0.427735815467567
-0.4092723989725655
-0.4092723989725655
-0.6308333969125834
-0.5692886752625692
-0.5508252587675677
-0.49543500928256323
-0.44619923196256844
-0.5631342030975872
-1.0862643371226666
-0.17540245670252808
-0.1384756237125251
-0.2738740113425453
-0.44619923196256844
-0.44619923196256844
-0.4154268711375475
-0.40311792680755576
-0.44619923196256844
-0.4831260649525715
-0.4400447597975588
-0.29233742783754685
-0.5138984257775646
-0.5015894814475731
-0.427735815467567
-0.4154268711375475
-0.42158134330255725
-0.433890287632549
-0.4154268711375475
-0.3538821494875609
-0.4523537041275505
-0.4154268711375475
-0.427735815467567
-0.4708171206225797
-0.427735815467567
-0.37850003814754446
-0.4092723989725655
-0.33541873299255964
-0.46466264845757
-0.42158134330255725
-0.427735815467567
-0.42158134330255725
-0.4092723989725655
-0.390808982477564
-0.396963454642546
-0.3723455659825625
-0.4708171206225797
-0.4400447597975588
-0.4523537041275505
-0.49543500928256323
-0.4708171206225797
-0.42158134330255725
-0.390808982477564
-0.3292642608275498
-0.4585081762925601
-0.4523537041275505
-0.4585081762925601
-0.4708171206225797
-0.433890287632549
-0.42158134330255725
-0.3846545103125543
-0.2738740113425453
-0.44619923196256844
-0.40311792680755576
-0.34772767732255133
-0.427735815467567
-0.42158134330255725
-0.433890287632549
-0.08923984639250257
0.5138984257775646
-0.6800691742326057
-0.4154268711375475
-0.3538821494875609
-0.34772767732255133
-0.360036621652543
-0.36619109381755277
-0.3538821494875609
-0.5692886752625692
-0.895475700007614
-0.4400447597975588
-0.3723455659825625
-0.36619109381755277
-0.360036621652543
-0.3723455659825625
-0.360036621652543
-0.31695531649755804
-0.4154268711375475
-0.390808982477564
-0.360036621652543
-0.3723455659825625
-0.3846545103125543
-0.36619109381755277
-0.30464637216753854
0.4092723989725655
-1.0185651433076426
-0.1015487907225221
-0.08308537422752059
-0.3292642608275498
-0.3292642608275498
-0.33541873299255964
-0.3292642608275498
-0.7108415350575992
-0.889321227842632
-0.5077439536125827
-0.4092723989725655
-0.4154268711375475
-0.390808982477564
-0.37850003814754446
-0.37850003814754446
-0.30464637216753854
-0.36619109381755277
-0.3723455659825625
-0.3846545103125543
-0.390808982477564
-0.390808982477564
-0.3723455659825625
-0.3846545103125543
-0.30464637216753854
-0.4523537041275505
-0.4523537041275505
-0.4400447597975588
-0.390808982477564
-0.360036621652543
-0.3846545103125543
-0.30464637216753854
-0.23079270618753256
-0.33541873299255964
-0.31695531649755804
-0.3292642608275498
-0.31695531649755804
-0.3538821494875609
-0.33541873299255964
-0.2554105948475438
-0.2431016505175243
-0.3292642608275498
-0.26156506701252585
-0.24925612268253405
-0.2369471783525424
-0.2738740113425453
-0.3108008443325483
-0.390808982477564
-0.40311792680755576
-0.4708171206225797
-0.44619923196256844
-0.46466264845757
-0.433890287632549
-0.427735815467567
-0.4154268711375475
-0.3292642608275498
-0.28618295567253704
-0.4154268711375475
-0.3846545103125543
-0.3415732051575415
-0.3108008443325483
-0.23079270618753256
-0.390808982477564
-0.8462399226876194
-0.4831260649525715
0.08923984639250257
-0.2431016505175243
-0.3415732051575415
-0.40311792680755576
-0.396963454642546
-0.40311792680755576
-0.34772767732255133
-0.33541873299255964
-0.37850003814754446
-0.3292642608275498
-0.3108008443325483
-0.30464637216753854
-0.31695531649755804
-0.3415732051575415
-0.2738740113425453
-0.30464637216753854
-0.4523537041275505
-0.4092723989725655
-0.4092723989725655
-0.390808982477564
-0.390808982477564
-0.3846545103125543
-0.3292642608275498
-0.36619109381755277
-0.360036621652543
-0.33541873299255964
-0.2984919000025288
-0.2984919000025288
-0.3538821494875609
-0.3538821494875609
-0.33541873299255964
-0.3538821494875609
-0.08923984639250257
0.42158134330255725
-0.5446707866025856
-0.360036621652543
-0.3723455659825625
-0.36619109381755277
-0.396963454642546
-0.8708578113476306
-0.6923781185625978
-0.3723455659825625
-0.5200528979425745
-0.4523537041275505
-0.390808982477564
-0.3846545103125543
-0.3538821494875609
-0.3723455659825625
-0.433890287632549
-0.3846545103125543
-0.33541873299255964
-0.33541873299255964
-0.3723455659825625
-0.3723455659825625
-0.2984919000025288
-0.31695531649755804
-0.26771953917753555
-0.3723455659825625
-0.3723455659825625
-0.36619109381755277
-0.31695531649755804
-0.30464637216753854
-0.2738740113425453
-0.3846545103125543
-0.390808982477564
-0.3723455659825625
-0.34772767732255133
-0.33541873299255964
-0.37850003814754446
-0.3723455659825625
0.14463009587750708
-0.3108008443325483
-0.7662317845426038
-0.46466264845757
-0.40311792680755576
-0.390808982477564
-0.37850003814754446
-0.390808982477564
-0.3538821494875609
-0.4585081762925601
-0.4892805371175811
-0.433890287632549
-0.42158134330255725
-0.4400447597975588
-0.4154268711375475
-0.396963454642546
-0.28618295567253704
-0.40311792680755576
-0.4400447597975588
-0.433890287632549
-0.433890287632549
-0.4154268711375475
-0.4154268711375475
-0.36619109381755277
-0.2984919000025288
-0.5877520917575707
-1.104727753617668
-0.13232115154751534
-0.08923984639250257
-0.31695531649755804
-0.3415732051575415
-0.37850003814754446
-0.4523537041275505
-0.4523537041275505
-0.4154268711375475
-0.3723455659825625
-0.396963454642546
-0.390808982477564
-0.34772767732255133
-0.3846545103125543
-0.360036621652543
-0.433890287632549
-0.42158134330255725
-0.3846545103125543
-0.37850003814754446
-0.4154268711375475
-0.36619109381755277
-0.40311792680755576
-0.3538821494875609
-0.4523537041275505
-0.42158134330255725
-0.390808982477564
-0.36619109381755277
-0.36619109381755277
-0.3846545103125543
-0.3415732051575415
-0.23079270618753256
-0.4400447597975588
-0.433890287632549
-0.3846545103125543
-0.3846545103125543
-0.390808982477564
-0.4523537041275505
-0.40311792680755576
-0.2800284835075273
-0.4400447597975588
-0.396963454642546
-0.360036621652543
-0.3723455659825625
-0.36619109381755277
-0.3723455659825625
-0.36619109381755277
-0.26156506701252585
-0.46466264845757
-0.4400447597975588
-0.3723455659825625
-0.390808982477564
-0.4154268711375475
-0.37850003814754446
-0.37850003814754446
-0.24925612268253405
-0.4092723989725655
-0.4092723989725655
-0.3723455659825625
-0.0707764298975011
0.4708171206225797
-0.5138984257775646
-0.360036621652543
-0.538516314437576
-0.9200935886676254
-0.538516314437576
-0.32310978866254003
-0.3415732051575415
-0.3846545103125543
-0.3538821494875609
-0.3415732051575415
-0.2984919000025288
-0.433890287632549
-0.4154268711375475
-0.37850003814754446
-0.3415732051575415
-0.3846545103125543
-0.40311792680755576
-0.360036621652543
-0.2800284835075273
-0.4400447597975588
-0.5877520917575707
-0.5877520917575707
-0.390808982477564
-0.390808982477564
-0.427735815467567
-0.360036621652543
-0.30464637216753854
-0.427735815467567
-0.3846545103125543
-0.36619109381755277
-0.32310978866254003
-0.3538821494875609
-0.37850003814754446
-0.34772767732255133
-0.18771140103251985
