-1.7201749701177547
-1.7201749701177547
-1.7140204979527456
-1.7078660257877356
-1.7140204979527456
-1.7078660257877356
-1.7078660257877356
-1.7017115536227536
-1.7017115536227536
-1.7017115536227536
-1.7078660257877356
-1.7263294422827367
-1.7324839144477464
-1.7447928587777384
-1.7509473309427481
-1.7755652196027594
-1.7755652196027594
-1.7940286360977609
-1.8124920525927626
-1.8248009969227534
-1.8371099412527454
-1.849418885582765
-1.861727829912757
-1.861727829912757
-1.8740367742427766
-1.8740367742427766
-1.8863457185727683
-1.8801912464077586
-1.892500190737778
-1.892500190737778
-1.892500190737778
-1.8863457185727683
-1.892500190737778
-1.8863457185727683
-1.8863457185727683
-1.89865466290276
-1.89865466290276
-1.892500190737778
-1.9048091350677696
-1.892500190737778
-1.89865466290276
-1.892500190737778
-1.89865466290276
-1.89865466290276
-1.9048091350677696
-1.89865466290276
-1.89865466290276
-1.89865466290276
-1.89865466290276
-1.892500190737778
-1.89865466290276
-1.8863457185727683
-1.892500190737778
-1.8801912464077586
-1.8863457185727683
-1.892500190737778
-1.892500190737778
-1.8863457185727683
-1.8863457185727683
-1.89865466290276
-1.892500190737778
-1.89865466290276
-1.9048091350677696
-1.8801912464077586
-1.892500190737778
-1.8863457185727683
-1.8863457185727683
-1.892500190737778
-1.9048091350677696
-1.9171180793977614
-1.9355814958927628
-1.9294270237277809
-1.9232725515627715
-1.91096360723278
-1.9171180793977614
-1.9171180793977614
-1.9171180793977614
-1.91096360723278
-1.9171180793977614
-1.9048091350677696
-1.9171180793977614
-1.91096360723278
-1.9171180793977614
-1.9171180793977614
-1.91096360723278
-1.9171180793977614
-1.9048091350677696
-1.9048091350677696
-1.9171180793977614
-1.91096360723278
-1.9048091350677696
-1.91096360723278
-1.9048091350677696
-1.91096360723278
-1.9171180793977614
-1.91096360723278
-1.89865466290276
-1.9048091350677696
-1.89865466290276
-1.91096360723278
-1.89865466290276
-1.91096360723278
-1.91096360723278
-1.9048091350677696
-1.91096360723278
-1.91096360723278
-1.91096360723278
-1.9048091350677696
-1.91096360723278
-1.91096360723278
-1.91096360723278
-1.9171180793977614
-1.9171180793977614
-1.9171180793977614
-1.91096360723278
-1.9171180793977614
-1.91096360723278
-1.91096360723278
-1.9171180793977614
-1.9171180793977614
-1.91096360723278
-1.9048091350677696
-1.91096360723278
-1.9048091350677696
-1.9171180793977614
-1.9232725515627715
-1.9048091350677696
-1.9048091350677696
-1.9048091350677696
-1.9048091350677696
-1.91096360723278
-1.89865466290276
-1.91096360723278
-1.9048091350677696
-1.91096360723278
-1.89865466290276
-1.9048091350677696
-1.91096360723278
-1.9048091350677696
-1.9048091350677696
-1.892500190737778
-1.892500190737778
-1.892500190737778
-1.8863457185727683
-1.8863457185727683
-1.8863457185727683
-1.8801912464077586
-1.8678823020777668
-1.8678823020777668
-1.861727829912757
-1.855573357747775
-1.855573357747775
-1.8678823020777668
-1.861727829912757
-1.8678823020777668
-1.8801912464077586
-1.8863457185727683
-1.8863457185727683
-1.8863457185727683
-1.892500190737778
-1.89865466290276
-1.892500190737778
-1.892500190737778
-1.892500190737778
-1.9048091350677696
-1.9048091350677696
-1.9048091350677696
-1.9048091350677696
-1.89865466290276
-1.892500190737778
-1.892500190737778
-1.89865466290276
-1.892500190737778
-1.89865466290276
-1.892500190737778
-1.8863457185727683
-1.8863457185727683
-1.861727829912757
-1.8740367742427766
-1.8801912464077586
-1.89865466290276
-1.9232725515627715
-1.9232725515627715
-1.9048091350677696
-1.855573357747775
-1.7201749701177547
-1.6032399989827366
-1.504768444342719
-1.467841611352716
-1.4863050278477177
-1.5601586938277234
-1.683248137127724
-1.7940286360977609
-1.9294270237277809
-2.077134355687793
-2.175605910327811
-2.2186872154828228
-2.194069326822812
-2.120215660842805
-2.009435161872797
-1.9417359680577726
-1.9232725515627715
-1.9048091350677696
-1.9048091350677696
-1.89865466290276
-1.9048091350677696
-1.892500190737778
-1.8863457185727683
-1.8863457185727683
-1.8863457185727683
-1.8863457185727683
-1.8801912464077586
-1.8801912464077586
-1.8801912464077586
-1.8740367742427766
-1.8740367742427766
-1.8740367742427766
-1.8740367742427766
-1.8801912464077586
-1.8801912464077586
-1.8801912464077586
-1.8801912464077586
-1.8740367742427766
-1.8801912464077586
-1.8740367742427766
-1.8801912464077586
-1.8740367742427766
-1.8863457185727683
-1.8863457185727683
-1.8801912464077586
-1.8863457185727683
-1.8863457185727683
-1.8863457185727683
-1.8801912464077586
-1.8801912464077586
-1.8863457185727683
-1.8740367742427766
-1.8801912464077586
-1.8740367742427766
-1.8740367742427766
-1.8740367742427766
-1.8740367742427766
-1.8740367742427766
-1.8678823020777668
-1.8740367742427766
-1.861727829912757
-1.861727829912757
-1.8678823020777668
-1.855573357747775
-1.8432644134177558
-1.8432644134177558
-1.830955469087764
-1.8248009969227534
-1.8248009969227534
-1.8124920525927626
-1.8124920525927626
-1.8124920525927626
-1.8001831082627426
-1.8001831082627426
-1.7940286360977609
-1.7817196917677414
-1.7755652196027594
-1.7755652196027594
-1.7694107474377496
-1.7694107474377496
-1.7755652196027594
-1.7940286360977609
-1.7694107474377496
-1.7632562752727399
-1.7817196917677414
-1.7940286360977609
-1.8124920525927626
-1.818646524757745
-1.8432644134177558
-1.8740367742427766
-1.892500190737778
-1.89865466290276
-1.89865466290276
-1.9048091350677696
-1.9171180793977614
-1.9171180793977614
-1.9232725515627715
-1.9232725515627715
-1.9355814958927628
-1.9294270237277809
-1.9355814958927628
-1.9294270237277809
-1.9232725515627715
-1.9294270237277809
-1.9355814958927628
-1.9232725515627715
-1.9355814958927628
-1.9294270237277809
-1.9294270237277809
-1.9232725515627715
-1.9171180793977614
-1.9171180793977614
-1.9232725515627715
-1.9232725515627715
-1.9232725515627715
-1.9171180793977614
-1.9171180793977614
-1.9048091350677696
-1.91096360723278
-1.9048091350677696
-1.91096360723278
-1.91096360723278
-1.8863457185727683
-1.8801912464077586
-1.892500190737778
-1.8863457185727683
-1.8863457185727683
-1.8863457185727683
-1.91096360723278
-1.9355814958927628
-1.91096360723278
-1.89865466290276
-1.9048091350677696
-1.89865466290276
-1.892500190737778
-1.892500190737778
-1.892500190737778
-1.892500190737778
-1.892500190737778
-1.892500190737778
-1.892500190737778
-1.8863457185727683
-1.8863457185727683
-1.892500190737778
-1.8863457185727683
-1.8863457185727683
-1.8863457185727683
-1.8863457185727683
-1.892500190737778
-1.8863457185727683
-1.8863457185727683
-1.892500190737778
-1.8801912464077586
-1.8801912464077586
-1.8801912464077586
-1.892500190737778
-1.8863457185727683
-1.8863457185727683
-1.8863457185727683
-1.8801912464077586
-1.8801912464077586
-1.8863457185727683
-1.8863457185727683
-1.8801912464077586
-1.8740367742427766
-1.8801912464077586
-1.8740367742427766
-1.8740367742427766
-1.8801912464077586
-1.8801912464077586
-1.8801912464077586
-1.8740367742427766
-1.8801912464077586
-1.8740367742427766
-1.8801912464077586
-1.8863457185727683
-1.8863457185727683
-1.8740367742427766
-1.8740367742427766
-1.8740367742427766
-1.8740367742427766
-1.8740367742427766
-1.8801912464077586
-1.8801912464077586
-1.8863457185727683
-1.8801912464077586
-1.8740367742427766
-1.8740367742427766
-1.8740367742427766
-1.8801912464077586
-1.8801912464077586
-1.8801912464077586
-1.8863457185727683
-1.8801912464077586
-1.8740367742427766
-1.8801912464077586
-1.8801912464077586
-1.8740367742427766
-1.8740367742427766
-1.8801912464077586
-1.8678823020777668
-1.8740367742427766
-1.8801912464077586
-1.8740367742427766
-1.8740367742427766
-1.8801912464077586
-1.8740367742427766
-1.8740367742427766
-1.8740367742427766
-1.8801912464077586
-1.8801912464077586
-1.8740367742427766
-1.8740367742427766
-1.8740367742427766
-1.8678823020777668
-1.855573357747775
-1.861727829912757
-1.861727829912757
-1.855573357747775
-1.849418885582765
-1.8371099412527454
-1.830955469087764
-1.8371099412527454
-1.8432644134177558
-1.8432644134177558
-1.849418885582765
-1.849418885582765
-1.849418885582765
-1.861727829912757
-1.8801912464077586
-1.8740367742427766
-1.8740367742427766
-1.8678823020777668
-1.8740367742427766
-1.8801912464077586
-1.8740367742427766
-1.8678823020777668
-1.8678823020777668
-1.8678823020777668
-1.8678823020777668
-1.861727829912757
-1.861727829912757
-1.8678823020777668
-1.8801912464077586
-1.849418885582765
-1.855573357747775
-1.8740367742427766
-1.89865466290276
-1.8863457185727683
-1.8801912464077586
-1.8740367742427766
-1.8678823020777668
-1.8863457185727683
-1.89865466290276
-1.9048091350677696
-1.8678823020777668
-1.7940286360977609
-1.683248137127724
-1.5663131659927332
-1.4616871391877062
-1.4309147783627132
-1.473996083517698
-1.5663131659927332
-1.683248137127724
-1.8001831082627426
-1.9417359680577726
-2.083288827852803
-2.1694514381628007
-2.1571424938328088
-2.083288827852803
-1.9601993845527748
-1.892500190737778
-1.8801912464077586
-1.8740367742427766
-1.8740367742427766
-1.8740367742427766
-1.8678823020777668
-1.861727829912757
-1.861727829912757
-1.861727829912757
-1.849418885582765
-1.849418885582765
-1.8432644134177558
-1.8432644134177558
-1.8432644134177558
-1.8371099412527454
-1.8432644134177558
-1.8371099412527454
-1.8371099412527454
-1.8432644134177558
-1.830955469087764
-1.8432644134177558
-1.8432644134177558
-1.8432644134177558
-1.8371099412527454
-1.830955469087764
-1.8371099412527454
-1.8248009969227534
-1.8248009969227534
-1.8248009969227534
-1.8248009969227534
-1.8371099412527454
-1.830955469087764
-1.8248009969227534
-1.818646524757745
-1.8248009969227534
-1.8248009969227534
-1.8063375804277528
-1.8063375804277528
-1.8124920525927626
-1.8063375804277528
-1.8124920525927626
-1.8063375804277528
-1.8063375804277528
-1.8063375804277528
-1.8063375804277528
-1.7940286360977609
-1.7878741639327511
-1.7878741639327511
-1.7878741639327511
-1.7817196917677414
-1.7755652196027594
-1.7694107474377496
-1.7632562752727399
-1.757101803107758
-1.7509473309427481
-1.7447928587777384
-1.7324839144477464
-1.7263294422827367
-1.7324839144477464
-1.7263294422827367
-1.7201749701177547
-1.7140204979527456
-1.7017115536227536
-1.7078660257877356
-1.6955570814577436
-1.7017115536227536
-1.7017115536227536
-1.7017115536227536
-1.7140204979527456
-1.7140204979527456
-1.7386383866127564
-1.7386383866127564
-1.7509473309427481
-1.7694107474377496
-1.7817196917677414
-1.7940286360977609
-1.8124920525927626
-1.8248009969227534
-1.8432644134177558
-1.8432644134177558
-1.861727829912757
-1.8678823020777668
-1.8740367742427766
-1.8740367742427766
-1.8801912464077586
-1.8863457185727683
-1.892500190737778
-1.8863457185727683
-1.8863457185727683
-1.89865466290276
-1.892500190737778
-1.892500190737778
-1.892500190737778
-1.89865466290276
-1.89865466290276
-1.8863457185727683
-1.8863457185727683
-1.892500190737778
-1.892500190737778
-1.892500190737778
-1.892500190737778
-1.91096360723278
-1.9294270237277809
-1.9171180793977614
-1.9171180793977614
-1.91096360723278
-1.89865466290276
-1.89865466290276
-1.89865466290276
-1.89865466290276
-1.892500190737778
-1.89865466290276
-1.9048091350677696
-1.89865466290276
-1.892500190737778
-1.89865466290276
-1.89865466290276
-1.89865466290276
-1.892500190737778
-1.8863457185727683
-1.892500190737778
-1.8863457185727683
-1.8801912464077586
-1.8801912464077586
-1.8863457185727683
-1.892500190737778
-1.8801912464077586
-1.861727829912757
-1.8740367742427766
-1.8740367742427766
-1.8801912464077586
-1.8801912464077586
-1.8863457185727683
-1.9171180793977614
-1.9171180793977614
-1.9048091350677696
-1.89865466290276
-1.89865466290276
-1.892500190737778
-1.892500190737778
-1.89865466290276
-1.89865466290276
-1.892500190737778
-1.8863457185727683
-1.8863457185727683
-1.8863457185727683
-1.8863457185727683
-1.8863457185727683
-1.8863457185727683
-1.8801912464077586
-1.8863457185727683
-1.8801912464077586
-1.8801912464077586
-1.8863457185727683
-1.8863457185727683
-1.8863457185727683
-1.8801912464077586
-1.8801912464077586
-1.8740367742427766
-1.8801912464077586
-1.8740367742427766
-1.8740367742427766
-1.8740367742427766
-1.8801912464077586
-1.8801912464077586
-1.8863457185727683
-1.8801912464077586
-1.8801912464077586
-1.8740367742427766
-1.8863457185727683
-1.8863457185727683
-1.8801912464077586
-1.8801912464077586
-1.8740367742427766
-1.8740367742427766
-1.8801912464077586
-1.8863457185727683
-1.8863457185727683
-1.8801912464077586
-1.8801912464077586
-1.8801912464077586
-1.8863457185727683
-1.8863457185727683
-1.8801912464077586
-1.8863457185727683
-1.8863457185727683
-1.8801912464077586
-1.8801912464077586
-1.892500190737778
-1.8863457185727683
-1.8801912464077586
-1.8863457185727683
-1.8863457185727683
-1.892500190737778
-1.892500190737778
-1.892500190737778
-1.89865466290276
-1.892500190737778
-1.89865466290276
-1.892500190737778
-1.89865466290276
-1.89865466290276
-1.89865466290276
-1.8801912464077586
-1.8863457185727683
-1.89865466290276
-1.8863457185727683
-1.892500190737778
-1.8863457185727683
-1.8863457185727683
-1.8863457185727683
-1.8801912464077586
-1.8801912464077586
-1.8801912464077586
-1.8740367742427766
-1.8801912464077586
-1.8801912464077586
-1.849418885582765
-1.8371099412527454
-1.855573357747775
-1.8740367742427766
-1.8678823020777668
-1.8678823020777668
-1.8678823020777668
-1.861727829912757
-1.8740367742427766
-1.8801912464077586
-1.892500190737778
-1.892500190737778
-1.89865466290276
-1.892500190737778
-1.89865466290276
-1.892500190737778
-1.89865466290276
-1.89865466290276
-1.89865466290276
-1.89865466290276
-1.89865466290276
-1.89865466290276
-1.892500190737778
-1.89865466290276
-1.89865466290276
-1.892500190737778
-1.89865466290276
-1.89865466290276
-1.892500190737778
-1.892500190737778
-1.892500190737778
-1.892500190737778
-1.892500190737778
-1.9048091350677696
-1.9232725515627715
-1.9417359680577726
-1.9417359680577726
-1.9048091350677696
-1.818646524757745
-1.689402609292734
-1.5601586938277234
-1.4493781948577145
-1.4247603061977032
-1.473996083517698
-1.578622110322725
-1.7017115536227536
-1.8371099412527454
-1.9971262175427773
-2.1448335495027893
-2.2186872154828228
-2.2063782711528033
-2.1079067165127863
-1.990971745377768
-1.9355814958927628
-1.9171180793977614
-1.91096360723278
-1.91096360723278
-1.9171180793977614
-1.9048091350677696
-1.892500190737778
-1.892500190737778
-1.8863457185727683
-1.8863457185727683
-1.8801912464077586
-1.8801912464077586
-1.8863457185727683
-1.8740367742427766
-1.8801912464077586
-1.8740367742427766
-1.8801912464077586
-1.8740367742427766
-1.8678823020777668
-1.8740367742427766
-1.8801912464077586
-1.8678823020777668
-1.8678823020777668
-1.8678823020777668
-1.8740367742427766
-1.8678823020777668
-1.8740367742427766
-1.8740367742427766
-1.8678823020777668
-1.8678823020777668
-1.8740367742427766
-1.8678823020777668
-1.8678823020777668
-1.861727829912757
-1.861727829912757
-1.861727829912757
-1.849418885582765
-1.849418885582765
-1.855573357747775
-1.849418885582765
-1.8432644134177558
-1.849418885582765
-1.849418885582765
-1.8432644134177558
-1.8371099412527454
-1.8371099412527454
-1.830955469087764
-1.8248009969227534
-1.818646524757745
-1.8248009969227534
-1.818646524757745
-1.8124920525927626
-1.8063375804277528
-1.8001831082627426
-1.7940286360977609
-1.7878741639327511
-1.7817196917677414
-1.7694107474377496
-1.7755652196027594
-1.7694107474377496
-1.757101803107758
-1.7632562752727399
-1.7509473309427481
-1.7447928587777384
-1.757101803107758
-1.7509473309427481
-1.7632562752727399
-1.7694107474377496
-1.7694107474377496
-1.7632562752727399
-1.7755652196027594
-1.7878741639327511
-1.8001831082627426
-1.818646524757745
-1.830955469087764
-1.861727829912757
-1.89865466290276
-1.8863457185727683
-1.8863457185727683
-1.89865466290276
-1.91096360723278
-1.9171180793977614
-1.9232725515627715
-1.9232725515627715
-1.9355814958927628
-1.9417359680577726
-1.9417359680577726
-1.9478904402227823
-1.9478904402227823
-1.9417359680577726
-1.9417359680577726
-1.9355814958927628
-1.9355814958927628
-1.9478904402227823
-1.9417359680577726
-1.9417359680577726
-1.9417359680577726
-1.9355814958927628
-1.9355814958927628
-1.9355814958927628
-1.9478904402227823
-1.9478904402227823
-1.9355814958927628
-1.9417359680577726
-1.9294270237277809
-1.9294270237277809
-1.9294270237277809
-1.9417359680577726
-1.9355814958927628
-1.9294270237277809
-1.9232725515627715
-1.9355814958927628
-1.9355814958927628
-1.9294270237277809
-1.9355814958927628
-1.9294270237277809
-1.9232725515627715
-1.9232725515627715
-1.9171180793977614
-1.9171180793977614
-1.9232725515627715
-1.9171180793977614
-1.9171180793977614
-1.9232725515627715
-1.91096360723278
-1.91096360723278
-1.9171180793977614
-1.91096360723278
-1.9171180793977614
-1.9232725515627715
-1.9232725515627715
-1.9294270237277809
-1.9232725515627715
-1.9232725515627715
-1.9232725515627715
-1.9171180793977614
-1.9232725515627715
-1.9232725515627715
-1.9232725515627715
-1.9171180793977614
-1.9232725515627715
-1.9232725515627715
-1.9232725515627715
-1.9171180793977614
-1.9232725515627715
-1.9171180793977614
-1.9232725515627715
-1.9232725515627715
-1.9232725515627715
-1.9171180793977614
-1.9171180793977614
-1.9232725515627715
-1.9171180793977614
-1.9171180793977614
-1.91096360723278
-1.9171180793977614
-1.9171180793977614
-1.91096360723278
-1.9171180793977614
-1.9171180793977614
-1.9171180793977614
-1.91096360723278
-1.9171180793977614
-1.9171180793977614
-1.9171180793977614
-1.9171180793977614
-1.9171180793977614
-1.9171180793977614
-1.91096360723278
-1.9171180793977614
-1.9171180793977614
-1.892500190737778
-1.892500190737778
-1.9048091350677696
-1.9048091350677696
-1.91096360723278
-1.91096360723278
-1.9232725515627715
-1.954044912387765
-1.9355814958927628
-1.9294270237277809
-1.9232725515627715
-1.91096360723278
-1.9171180793977614
-1.91096360723278
-1.91096360723278
-1.9171180793977614
-1.9171180793977614
-1.9048091350677696
-1.91096360723278
-1.91096360723278
-1.892500190737778
-1.892500190737778
-1.91096360723278
-1.9355814958927628
-1.9171180793977614
-1.9048091350677696
-1.91096360723278
-1.9048091350677696
-1.89865466290276
-1.9048091350677696
-1.892500190737778
-1.89865466290276
-1.892500190737778
-1.89865466290276
-1.892500190737778
-1.8801912464077586
-1.8740367742427766
-1.861727829912757
-1.855573357747775
-1.8678823020777668
-1.8740367742427766
-1.8740367742427766
-1.8678823020777668
-1.8801912464077586
-1.8863457185727683
-1.8863457185727683
-1.892500190737778
-1.89865466290276
-1.89865466290276
-1.892500190737778
-1.892500190737778
-1.89865466290276
-1.89865466290276
-1.892500190737778
-1.892500190737778
-1.89865466290276
-1.89865466290276
-1.89865466290276
-1.9048091350677696
-1.89865466290276
-1.892500190737778
-1.89865466290276
-1.89865466290276
-1.89865466290276
-1.89865466290276
-1.89865466290276
-1.8863457185727683
-1.89865466290276
-1.91096360723278
-1.9294270237277809
-1.9417359680577726
-1.9294270237277809
-1.8801912464077586
-1.7755652196027594
-1.6463213041377216
-1.5355408051677124
-1.437069250527695
-1.4555326670226965
-1.5293863330027024
-1.6401668319727392
-1.7632562752727399
-1.9048091350677696
-2.064825411357801
-2.175605910327811
-2.2309961598128147
-2.2186872154828228
-2.1448335495027893
-2.0278985783677985
-1.954044912387765
-1.9355814958927628
-1.9232725515627715
-1.9232725515627715
-1.9171180793977614
-1.91096360723278
-1.9048091350677696
-1.89865466290276
-1.89865466290276
-1.892500190737778
-1.8863457185727683
-1.892500190737778
-1.892500190737778
-1.8863457185727683
-1.8801912464077586
-1.8801912464077586
-1.8801912464077586
-1.8740367742427766
-1.8801912464077586
-1.8678823020777668
-1.8801912464077586
-1.8863457185727683
-1.8801912464077586
-1.8801912464077586
-1.8801912464077586
-1.8740367742427766
-1.8740367742427766
-1.8678823020777668
-1.8678823020777668
-1.8678823020777668
-1.8678823020777668
-1.8740367742427766
-1.8740367742427766
-1.8678823020777668
-1.861727829912757
-1.8678823020777668
-1.861727829912757
-1.8678823020777668
-1.855573357747775
-1.855573357747775
-1.861727829912757
-1.855573357747775
-1.855573357747775
-1.855573357747775
-1.849418885582765
-1.8432644134177558
-1.8371099412527454
-1.8371099412527454
-1.830955469087764
-1.818646524757745
-1.8124920525927626
-1.8063375804277528
-1.8063375804277528
-1.8124920525927626
-1.7755652196027594
-1.7632562752727399
-1.757101803107758
-1.757101803107758
-1.757101803107758
-1.7509473309427481
-1.7755652196027594
-1.7878741639327511
-1.7694107474377496
-1.757101803107758
-1.7509473309427481
-1.7509473309427481
-1.7447928587777384
-1.757101803107758
-1.7632562752727399
-1.7694107474377496
-1.7878741639327511
-1.8063375804277528
-1.8124920525927626
-1.830955469087764
-1.8432644134177558
-1.849418885582765
-1.8678823020777668
-1.8740367742427766
-1.8863457185727683
-1.8863457185727683
-1.89865466290276
-1.91096360723278
-1.91096360723278
-1.9171180793977614
-1.9232725515627715
-1.9232725515627715
-1.9232725515627715
-1.9294270237277809
-1.9232725515627715
-1.9294270237277809
-1.9294270237277809
-1.9294270237277809
-1.9232725515627715
-1.9232725515627715
-1.9232725515627715
-1.9294270237277809
-1.9232725515627715
-1.9171180793977614
-1.9171180793977614
-1.9171180793977614
-1.9171180793977614
-1.9294270237277809
-1.9232725515627715
-1.91096360723278
-1.9048091350677696
-1.91096360723278
-1.89865466290276
-1.9048091350677696
-1.9048091350677696
-1.9048091350677696
-1.91096360723278
-1.89865466290276
-1.9048091350677696
-1.9048091350677696
-1.91096360723278
-1.91096360723278
-1.91096360723278
-1.89865466290276
-1.89865466290276
-1.89865466290276
-1.89865466290276
-1.89865466290276
-1.9048091350677696
-1.9048091350677696
-1.9048091350677696
-1.89865466290276
-1.89865466290276
-1.9048091350677696
-1.9048091350677696
-1.91096360723278
-1.9048091350677696
-1.91096360723278
-1.9048091350677696
-1.91096360723278
-1.9048091350677696
-1.9171180793977614
-1.9048091350677696
-1.91096360723278
-1.91096360723278
-1.9048091350677696
-1.91096360723278
-1.89865466290276
-1.9048091350677696
-1.9048091350677696
-1.892500190737778
-1.89865466290276
-1.892500190737778
-1.8863457185727683
-1.89865466290276
-1.89865466290276
-1.892500190737778
-1.8863457185727683
-1.892500190737778
-1.8863457185727683
-1.892500190737778
-1.89865466290276
-1.89865466290276
-1.89865466290276
-1.89865466290276
-1.892500190737778
-1.892500190737778
-1.9048091350677696
-1.89865466290276
-1.9048091350677696
-1.89865466290276
-1.9048091350677696
-1.89865466290276
-1.89865466290276
-1.9048091350677696
-1.9048091350677696
-1.9048091350677696
-1.91096360723278
-1.9048091350677696
-1.89865466290276
-1.9048091350677696
-1.91096360723278
-1.8863457185727683
-1.892500190737778
-1.91096360723278
-1.9294270237277809
-1.9232725515627715
-1.9048091350677696
-1.9048091350677696
-1.9048091350677696
-1.9048091350677696
-1.9048091350677696
-1.91096360723278
-1.91096360723278
-1.9048091350677696
-1.9048091350677696
-1.91096360723278
-1.9048091350677696
-1.9048091350677696
-1.9048091350677696
-1.91096360723278
-1.91096360723278
-1.91096360723278
-1.9048091350677696
-1.91096360723278
-1.9048091350677696
-1.9048091350677696
-1.89865466290276
-1.9048091350677696
-1.9048091350677696
-1.9048091350677696
-1.9048091350677696
-1.89865466290276
-1.89865466290276
-1.89865466290276
-1.89865466290276
-1.892500190737778
-1.89865466290276
-1.89865466290276
-1.89865466290276
-1.892500190737778
-1.8801912464077586
-1.8740367742427766
-1.861727829912757
-1.855573357747775
-1.855573357747775
-1.861727829912757
-1.8740367742427766
-1.8740367742427766
-1.8678823020777668
-1.8740367742427766
-1.89865466290276
-1.9048091350677696
-1.8740367742427766
-1.8801912464077586
-1.8801912464077586
-1.892500190737778
-1.89865466290276
-1.89865466290276
-1.91096360723278
-1.9355814958927628
-1.9232725515627715
-1.91096360723278
-1.91096360723278
-1.91096360723278
-1.9048091350677696
-1.89865466290276
-1.89865466290276
-1.9048091350677696
-1.9048091350677696
-1.89865466290276
-1.892500190737778
-1.89865466290276
-1.89865466290276
-1.9048091350677696
-1.9171180793977614
-1.9417359680577726
-1.9417359680577726
-1.91096360723278
-1.8248009969227534
-1.7140204979527456
-1.590931054652717
-1.4863050278477177
-1.4555326670226965
-1.4986139721777092
-1.5847765824877347
-1.7140204979527456
-1.8432644134177558
-1.990971745377768
-2.1325246051727973
-2.212532743317813
-2.200223798987821
-2.1079067165127863
-1.9786628010477763
-1.9171180793977614
-1.89865466290276
-1.89865466290276
-1.89865466290276
-1.892500190737778
-1.892500190737778
-1.8863457185727683
-1.8801912464077586
-1.8740367742427766
-1.8740367742427766
-1.861727829912757
-1.861727829912757
-1.8678823020777668
-1.8678823020777668
-1.8678823020777668
-1.8678823020777668
-1.8678823020777668
-1.861727829912757
-1.861727829912757
-1.861727829912757
-1.861727829912757
-1.8678823020777668
-1.855573357747775
-1.861727829912757
-1.855573357747775
-1.855573357747775
-1.855573357747775
-1.849418885582765
-1.855573357747775
-1.849418885582765
-1.8248009969227534
-1.830955469087764
-1.830955469087764
-1.830955469087764
-1.830955469087764
-1.830955469087764
-1.855573357747775
-1.861727829912757
-1.849418885582765
-1.8432644134177558
-1.8371099412527454
-1.830955469087764
-1.830955469087764
-1.818646524757745
-1.818646524757745
-1.818646524757745
-1.818646524757745
-1.8124920525927626
-1.8063375804277528
-1.8001831082627426
-1.8001831082627426
-1.7878741639327511
-1.7817196917677414
-1.7755652196027594
-1.7755652196027594
-1.7755652196027594
-1.7632562752727399
-1.757101803107758
-1.7509473309427481
-1.7447928587777384
-1.7509473309427481
-1.7386383866127564
-1.7386383866127564
-1.7324839144477464
-1.7324839144477464
-1.7324839144477464
-1.7263294422827367
-1.7386383866127564
-1.7386383866127564
-1.7509473309427481
-1.757101803107758
-1.7632562752727399
-1.7755652196027594
-1.7878741639327511
-1.8063375804277528
-1.8124920525927626
-1.830955469087764
-1.8432644134177558
-1.855573357747775
-1.861727829912757
-1.8740367742427766
-1.892500190737778
-1.892500190737778
-1.89865466290276
-1.9048091350677696
-1.91096360723278
-1.91096360723278
-1.9171180793977614
-1.91096360723278
-1.91096360723278
-1.91096360723278
-1.9232725515627715
-1.9232725515627715
-1.9171180793977614
-1.9171180793977614
-1.91096360723278
-1.91096360723278
-1.91096360723278
-1.91096360723278
-1.9232725515627715
-1.91096360723278
-1.91096360723278
-1.91096360723278
-1.91096360723278
-1.9171180793977614
-1.9048091350677696
-1.9048091350677696
-1.9048091350677696
-1.9048091350677696
-1.91096360723278
-1.9171180793977614
-1.91096360723278
-1.9171180793977614
-1.9171180793977614
-1.9171180793977614
-1.9232725515627715
-1.9171180793977614
-1.9171180793977614
-1.91096360723278
-1.91096360723278
-1.91096360723278
-1.9171180793977614
-1.91096360723278
-1.9232725515627715
-1.9171180793977614
-1.9232725515627715
-1.9232725515627715
-1.9171180793977614
-1.9171180793977614
-1.9171180793977614
-1.9232725515627715
-1.9171180793977614
-1.9171180793977614
-1.9232725515627715
-1.9171180793977614
-1.9171180793977614
-1.9171180793977614
-1.9232725515627715
-1.9171180793977614
-1.9171180793977614
-1.9294270237277809
-1.9232725515627715
-1.9232725515627715
-1.9232725515627715
-1.9232725515627715
-1.9171180793977614
-1.9171180793977614
-1.9232725515627715
-1.9171180793977614
-1.9171180793977614
-1.9294270237277809
-1.9294270237277809
-1.9048091350677696
