-3.9111670608580615
-3.7942320897230712
-3.8865491721980785
-3.868085755703077
-3.8434678670430653
-3.812695506218072
-3.800386561888053
-3.800386561888053
-3.7757686732280415
-3.7634597288980496
-3.75730525673304
-3.7142239515780546
-3.701915007248036
-3.6772971185880525
-3.6772971185880525
-3.615752396938038
-3.701915007248036
-3.6772971185880525
-3.640370285598049
-3.6280613412680296
-3.6219068691030203
-3.560362147453033
-3.1480125123979352
-3.308028788687994
-3.492662953638009
-3.504971897968029
-3.5234353144630304
-3.5234353144630304
-3.504971897968029
-3.652679229928041
-3.9788662546730857
-3.652679229928041
-3.5234353144630304
-3.511126370133011
-3.4865084814730274
-3.4865084814730274
-3.468045064977998
-3.4434271763180146
-3.4434271763180146
-3.4188092876580036
-3.1233946237379517
-2.575646601052861
-2.261768520637808
-2.150988021667799
-2.194069326822812
-2.089443300017785
-2.064825411357801
-2.0463619948628
-2.0340530505327803
-2.015589634037779
-2.003280689707787
-2.003280689707787
-2.003280689707787
-1.954044912387765
-2.015589634037779
-1.9786628010477763
-1.9848172732127856
-1.9971262175427773
-2.0340530505327803
-2.089443300017785
-2.0463619948628
-2.0340530505327803
-2.089443300017785
-2.0709798835227837
-2.138679077337807
-2.194069326822812
-2.249459576307816
-2.2433051041428067
-2.2433051041428067
-2.3171587701228398
-2.477175046412844
-2.587955545382853
-2.661809211362886
-2.8525978484779113
-3.0618499020879373
-3.1480125123979352
-3.258793011367972
-3.375727982502991
-3.38803692683301
-3.38803692683301
-3.4188092876580036
-3.424963759823013
-3.400345871163002
-3.449581648482997
-3.357264566007989
-3.1295490959029335
-3.25263853920299
-3.375727982502991
-3.1357035680679433
-3.092622262912931
-3.2280206505429785
-3.3511100938430074
-3.0987767350779407
-3.492662953638009
-3.597288980443037
-3.424963759823013
-3.400345871163002
-3.344955621677997
-3.3326466773480057
-3.301874316522985
-3.4557361206480066
-3.6034434526080172
-3.511126370133011
-3.474199537143008
-3.449581648482997
-3.394191398997992
-3.4126548154929934
-3.394191398997992
-3.326492205182996
-3.357264566007989
-3.3511100938430074
-3.3326466773480057
-3.363419038172999
-3.338801149512988
-3.2403295948729705
-3.308028788687994
-3.0618499020879373
-3.0003051804379233
-3.117240151572942
-3.258793011367972
-3.2711019556979917
-3.2834109000279827
-3.277256427862973
-3.289565372192993
-3.7942320897230712
-3.658833702093051
-3.357264566007989
-3.2957198443579747
-3.3141832608529764
-3.406500343328012
-3.301874316522985
-3.258793011367972
-3.258793011367972
-3.2711019556979917
-3.24648406703798
-3.2280206505429785
-3.2095572340479768
-3.191093817552976
-3.1972482897179852
-3.160321456727955
-3.141858040232953
-3.178784873222984
-3.074158846417929
-2.858752320642893
-2.6433457948678853
-2.9633783474479203
-3.049540957757918
-3.24648406703798
-3.701915007248036
-3.308028788687994
-3.1664759288929645
-3.1357035680679433
-3.1295490959029335
-3.117240151572942
-3.1233946237379517
-3.117240151572942
-3.0987767350779407
-3.1295490959029335
-3.1664759288929645
-3.1295490959029335
-3.1357035680679433
-3.1480125123979352
-3.1233946237379517
-3.080313318582939
-3.141858040232953
-3.1357035680679433
-3.117240151572942
-3.1110856794079322
-3.0987767350779407
-3.117240151572942
-3.074158846417929
-3.0618499020879373
-3.160321456727955
-3.1049312072429505
-3.080313318582939
-3.0987767350779407
-3.1049312072429505
-3.080313318582939
-3.080313318582939
-3.0618499020879373
-3.1233946237379517
-3.0987767350779407
-3.0864677907479487
-3.074158846417929
-3.049540957757918
-3.043386485592936
-3.141858040232953
-3.092622262912931
-3.369573510338009
-3.923476005188081
-4.840492357773202
-5.265150937158264
-5.8436713206683475
-6.643752702118451
-7.160728363978519
-7.462297500063581
-7.480760916558581
-7.474606444393572
-7.499224333053581
-7.505378805218594
-7.671549553673606
-7.634622720683605
-7.646931665013596
-7.7023219144986
-7.7392487474886025
-7.690012970168608
-7.720785330993602
-7.7146308588286185
-7.640777192848613
-7.554614582538587
-7.5299966938785765
-7.6038503598585825
-7.665395081508597
-7.610004832023592
-7.474606444393572
-7.314590168103541
-7.160728363978519
-7.105338114493516
-7.099183642328533
-7.105338114493516
-7.123801530988516
-7.123801530988516
-7.117647058823534
-7.080720225833531
-7.0068665598534965
-6.908395005213508
-6.91454947737849
-6.859159227893485
-6.809923450573491
-6.736069784593486
-6.692988479438472
-6.656061646448469
-6.569899036138444
-6.496045370158439
-6.416037232013422
-6.422191704178433
-6.379110399023419
-6.2929477887134215
-6.2498664835584075
-6.176012817578402
-6.15139492891839
-6.1390859845884
-6.0529233742783735
-6.015996541288371
-5.966760763968376
-5.954451819638357
-5.935988403143354
-5.868289209328359
-5.8436713206683475
-5.819053432008337
-5.806744487678346
-5.74519976602833
-5.677500572213335
-5.6344192670583215
-5.622110322728302
-5.6036469062333
-5.652882683553323
-5.591337961903309
-5.554411128913307
-5.505175351593311
-5.4867119350983105
-5.462094046438297
-5.4805574629333
-5.443630629943296
-5.382085908293282
-5.35131354746829
-5.369776963963291
-5.258996464993254
-5.228224104168261
-5.191297271178258
-5.160524910353237
-5.135907021693253
-5.117443605198252
-5.129752549528243
-5.178988326848265
-5.105134660868233
-5.086671244373231
-5.068207827878228
-5.031280994888226
-4.994354161898224
-4.932809440248209
-4.846646829938211
-4.7543297474632045
-4.6435492484931675
-4.489687444368147
-4.366598001068144
-4.354289056738125
-4.520459805193167
-4.698939497978172
-4.80971999694821
-4.8035655247832
-4.748175275298194
-4.698939497978172
-4.674321609318188
-4.6435492484931675
-4.6189313598331845
-4.588158999008163
-4.575850054678171
-4.5696955825131615
-4.538923221688168
-4.489687444368147
-4.452760611378142
-4.41583377838814
-4.348134584573144
-4.305053279418131
-4.268126446428129
-4.261971974263118
-4.255817502098136
-4.206581724778113
-4.163500419623101
-4.101955697973114
-4.065028864983084
-3.9850207268380964
-3.923476005188081
-3.8188499783830547
-3.5849800361130173
-3.3511100938430074
-3.0372320134279267
-2.883370209302905
-2.8402889041478923
-2.754126293837894
-2.5387197680628577
-2.446402685587851
-2.4217847969278394
-2.3663945474428347
-2.2740774649678275
-2.138679077337807
-2.1263701330077875
-2.04020752269779
-1.7755652196027594
-1.855573357747775
-1.8678823020777668
-1.7140204979527454
-1.6586302484677409
-1.6278578876427194
-1.6401668319727392
-1.6032399989827364
-1.6032399989827364
-1.6340123598077294
-1.5970855268177266
-1.467841611352716
-1.4493781948577145
-1.5663131659927332
-1.5601586938277234
-1.5847765824877347
-1.590931054652717
-1.578622110322725
-1.5970855268177266
-1.578622110322725
-1.5970855268177266
-1.5970855268177266
-1.6093944711477182
-1.6093944711477182
-1.5847765824877347
-1.677093664962742
-1.8494188855827651
-1.6709391927977324
-1.4309147783627132
-1.2462806134126705
-1.0801098649576568
-1.0554919762976458
-1.1478090587726528
-1.178581419597674
-1.073955392792647
-1.0924188092876486
-1.184735891762656
-1.1908903639276658
-1.1908903639276658
-1.1662724752676545
-1.25243508557768
-1.3201342793926762
-1.2832074464026733
-1.3078253350626845
-1.326288751557686
-1.2708985020726815
-1.2647440299076718
-1.2585895577426898
-1.2770529742376913
-1.2462806134126705
-1.1539635309376628
-1.1724269474326645
-1.2031993082576575
-1.11088222578265
-1.0801098649576568
-1.0801098649576568
-1.1601180031026725
-1.1478090587726528
-0.9816383103176396
-0.6862236463975879
-1.0862643371226666
-1.25243508557768
-1.3385976958876775
-1.855573357747775
-1.6217034154777374
-1.3878334732077002
-1.3509066402176972
-1.289361918567683
-1.2647440299076718
-1.3385976958876775
-1.25243508557768
-1.2770529742376913
-1.2278171969176688
-1.1539635309376628
-1.0985732814526583
-1.0616464484626553
-1.0431830319676536
-0.9877927824826491
-0.9508659494926462
-0.9262480608326351
-0.8708578113476306
-0.7970041453676248
-0.6739147020675963
-0.6923781185625978
-0.5692886752625692
-0.47697159278756174
-0.360036621652543
-0.2554105948475438
-0.15078456804251686
-0.04615854123751762
-0.003077236082504875
0.033849596907498114
0.07693090206251085
0.09539431855751236
0.1384756237125251
0.08308537422752059
0.11385773505251384
0.003077236082504875
0.003077236082504875
0.01538618041249662
0.009231708247514623
0.003077236082504875
0.2738740113425453
0.5877520917575707
0.02154065257750637
-0.24925612268253405
-0.16309351237253633
-0.16309351237253633
-0.2061748175275213
-0.24925612268253405
-0.6677602299025863
-0.7723862567076134
-0.46466264845757
-0.42158134330255725
-0.42158134330255725
-0.40927239897256545
-0.44619923196256844
-0.4708171206225797
-0.5015894814475731
-0.5877520917575707
-0.5877520917575707
-0.6185244525825918
-0.6246789247476013
-0.5815976195925888
-0.5015894814475731
-0.40927239897256545
-0.5200528979425745
-0.5692886752625692
-0.6185244525825918
-0.6800691742326058
-0.6862236463975879
-0.7046870628925893
-0.7354594237176103
-0.7416138958825924
-0.7908496732026148
-0.8400854505226096
-0.8277765061926179
-0.8339309783576276
-0.8585488670176111
-1.141654586607671
-0.9570204216576284
-0.8277765061926179
-0.8216220340276081
-0.8339309783576276
-0.8277765061926179
-0.8585488670176111
-0.9139391165026156
-0.9200935886676254
-0.901630172172624
-0.28618295567253704
-0.9754838381526297
-1.11088222578265
-0.6739147020675963
-0.5508252587675677
-0.7169960072226089
-0.8339309783576276
-0.9508659494926462
-0.9447114773276367
-0.9631748938226381
-0.9200935886676254
-0.9324025329976448
-0.9385570051626267
-0.9816383103176396
-1.0554919762976458
-1.073955392792647
-1.0185651433076426
-0.901630172172624
-1.0185651433076426
-1.1601180031026725
-1.1170366979476598
-1.1355001144426613
-1.1478090587726528
-1.1601180031026725
-1.1724269474326645
-1.2401261412476885
-1.2401261412476885
-1.2647440299076718
-1.2585895577426898
-1.2647440299076718
-1.215508252587677
-0.9939472546476313
-0.5692886752625692
-0.8031586175326066
-0.9693293659876481
-1.0185651433076426
-1.0308740876376343
-1.0370285598026439
-1.0185651433076426
-1.0801098649576568
-1.5970855268177266
-1.39398794537271
-1.1662724752676545
-1.1355001144426613
-1.0924188092876486
-1.0493375041326358
-1.1724269474326645
-1.215508252587677
-1.104727753617668
-1.1231911701126696
-1.1170366979476598
-1.1478090587726528
-1.2031993082576575
-1.3078253350626845
-1.473996083517698
-1.5540042216627135
-1.7017115536227536
-1.7817196917677414
-1.8124920525927626
-1.8740367742427766
-1.9294270237277809
-2.1756059103278105
-2.434093741257831
-2.7418173495078744
-3.092622262912931
-3.701915007248036
-4.323516695913132
-4.520459805193167
-4.440451667048151
-4.3727524732331275
-4.335825640243124
-4.237354085603107
-4.225045141273115
-4.181963836118102
-4.077337809313103
-4.089646753643096
-4.083492281478085
-4.0342565041580905
-4.009638615498079
-3.9665573103430942
-4.003484143333097
-3.9480938938480934
-3.9111670608580615
-3.8865491721980785
-3.849622339208075
-3.825004450548064
-3.812695506218072
-3.7942320897230712
-3.7449963124030474
-3.7696142010630598
-3.7696142010630598
-3.7142239515780546
-3.701915007248036
-3.6772971185880525
-3.6219068691030203
-3.461890592813016
-3.6465247577630313
-3.738841840238039
-3.609597924773028
-3.5849800361130173
-3.5665166196180156
-3.535744258793022
-3.4988174258030194
-3.5234353144630304
-3.5849800361130173
-3.511126370133011
-3.492662953638009
-3.492662953638009
-3.461890592813016
-3.461890592813016
-3.4311182319879947
-3.406500343328012
-3.4434271763180146
-3.4126548154929934
-3.394191398997992
-3.369573510338009
-3.326492205182996
-3.3511100938430074
-3.400345871163002
-3.369573510338009
-3.363419038172999
-3.344955621677997
-3.326492205182996
-3.3141832608529764
-3.301874316522985
-3.289565372192993
-3.308028788687994
-3.2711019556979917
-3.2834109000279827
-3.258793011367972
-3.215711706212987
-3.191093817552976
-3.2957198443579747
-3.2403295948729705
-3.215711706212987
-3.2280206505429785
-3.2218661783779687
-3.215711706212987
-3.2095572340479768
-3.191093817552976
-3.178784873222984
-3.215711706212987
-3.191093817552976
-3.092622262912931
-3.1233946237379517
-3.0987767350779407
-3.1972482897179852
-3.154166984562973
-3.1233946237379517
-3.117240151572942
-3.0864677907479487
-3.141858040232953
-3.117240151572942
-2.907988097962916
-2.4587116299178424
-3.1049312072429505
-3.0618499020879373
-3.080313318582939
-3.5234353144630304
-3.437272704153005
-3.24648406703798
-3.141858040232953
-3.092622262912931
-3.080313318582939
-3.0618499020879373
-3.0126141247679152
-2.994150708272913
-3.0680043742529195
-3.0372320134279267
-3.018768596932925
-3.0310775412629165
-3.0249230690979347
-3.0126141247679152
-2.9510694031179288
-3.055695429922928
-3.0618499020879373
-3.0126141247679152
-2.9879962361079313
-3.0249230690979347
-3.0310775412629165
-3.0126141247679152
-2.9879962361079313
-2.96953281961293
-3.006459652602933
-3.018768596932925
-2.994150708272913
-2.975687291777912
-2.944914930952919
-2.9572238752829105
-2.9879962361079313
-2.9818417639429216
-2.9879962361079313
-2.9879962361079313
-2.96953281961293
-2.9879962361079313
-3.0003051804379233
-2.9818417639429216
-2.932605986622927
-2.9141425701278982
-2.8464433763129016
-2.7910531268278973
-2.6925815721878803
-2.631036850537866
-2.631036850537866
-2.704890516517872
-2.8156710154879088
-2.9572238752829105
-2.975687291777912
-2.9572238752829105
-2.9510694031179288
-2.9510694031179288
-2.9510694031179288
-2.9387604587879093
-2.907988097962916
-2.9879962361079313
-2.944914930952919
-3.0618499020879373
-2.8895246814679143
-2.975687291777912
-3.074158846417929
-2.9510694031179288
-2.9202970422929075
-2.932605986622927
-2.907988097962916
-2.877215737137895
-2.631036850537866
-1.9417359680577726
-1.510922916507701
-1.2832074464026733
-1.0862643371226666
-0.9324025329976448
-1.0616464484626553
-1.0308740876376343
-1.0124106711426328
-1.0062561989776508
-1.000101726812641
-0.9816383103176396
-0.9693293659876481
-1.0247196154726523
-1.0247196154726523
-1.0370285598026439
-1.1355001144426613
-1.2647440299076718
-1.3570611123826792
-1.4309147783627132
-1.7386383866127564
-1.8432644134177558
-1.9848172732127856
-1.9971262175427773
-1.9417359680577726
-1.9355814958927628
-2.04020752269779
-2.138679077337807
-2.1571424938328088
-2.2063782711528033
-2.194069326822812
-2.212532743317813
-2.194069326822812
-2.2433051041428067
-2.4587116299178424
-2.3540856031128428
-2.403321380432838
-2.4217847969278394
-2.4279392690928487
-2.495638462907845
-2.495638462907845
-2.544874240227868
-2.680272627857888
-2.483329518577854
-2.194069326822812
-2.6371913227028756
-2.631036850537866
-2.581801073217871
-2.711044988682881
-2.7848986546628876
-2.7171994608478913
-2.944914930952919
-2.96953281961293
-2.9141425701278982
-2.944914930952919
-2.944914930952919
-2.994150708272913
-2.975687291777912
-3.043386485592936
-3.511126370133011
-3.504971897968029
-3.080313318582939
-2.901833625797906
-3.1049312072429505
-3.117240151572942
-3.1480125123979352
-3.1726304010579747
-3.191093817552976
-3.178784873222984
-3.1726304010579747
-3.154166984562973
-3.160321456727955
-3.178784873222984
-3.191093817552976
-3.1726304010579747
-3.2834109000279827
-3.560362147453033
-3.3203377330179857
-3.2341751227079882
-3.2034027618829675
-3.1726304010579747
-3.1664759288929645
-3.117240151572942
-3.160321456727955
-3.178784873222984
-3.1295490959029335
-3.1233946237379517
-3.117240151572942
-3.0987767350779407
-3.0680043742529195
-3.1110856794079322
-3.1664759288929645
-3.1049312072429505
-3.080313318582939
-3.092622262912931
-3.0618499020879373
-3.0680043742529195
-3.0680043742529195
-2.4648661020828517
-3.184939345387966
-3.375727982502991
-3.080313318582939
-3.0372320134279267
-2.994150708272913
-2.944914930952919
-3.018768596932925
-2.9572238752829105
-3.018768596932925
-3.006459652602933
-2.9633783474479203
-2.96953281961293
-2.96953281961293
-2.9572238752829105
-2.944914930952919
-2.778744182497905
-2.96953281961293
-3.092622262912931
-2.9633783474479203
-2.9141425701278982
-3.0126141247679152
-2.96953281961293
-2.9572238752829105
-2.9202970422929075
-2.975687291777912
-2.9633783474479203
-2.9572238752829105
-2.9510694031179288
-2.944914930952919
-3.006459652602933
-3.1726304010579747
-3.4988174258030194
-4.083492281478085
-4.3727524732331275
-4.840492357773202
-4.994354161898224
-5.283614353653265
-5.591337961903309
-5.517484295923303
-5.283614353653265
-5.20360621550825
-4.9635818010732295
-4.908191551588226
-4.791256580453207
-4.5696955825131615
-4.292744335088139
-4.058874392818101
-3.8927036443630603
-3.7942320897230712
-3.468045064977998
-3.338801149512988
-3.2403295948729705
-3.1233946237379517
-3.049540957757918
-2.9387604587879093
-2.9264515144579173
-2.9141425701278982
-2.8525978484779113
-2.8464433763129016
-2.8218254876528905
-2.8033620711578893
-2.7418173495078744
-2.871061264972913
-2.8218254876528905
-2.797207598992907
-2.797207598992907
-2.7848986546628876
-2.778744182497905
-2.778744182497905
-2.778744182497905
-2.735662877342893
-2.7848986546628876
-2.7418173495078744
-2.520256351567857
-2.1263701330077875
-2.3663945474428347
-2.2063782711528033
-2.3171587701228398
-2.760280766002876
-3.0987767350779407
-2.8156710154879088
-2.8279799598179
-2.8033620711578893
-2.760280766002876
-2.735662877342893
-2.747971821672884
-2.735662877342893
-2.7848986546628876
-3.289565372192993
-5.671346100048325
-7.363825945423563
-7.825411357798629
-7.997736578418651
-8.065435772233648
-8.096208133058669
-8.034663411408655
-7.960809745428649
-7.905419495943644
-7.831565829963639
-7.763866636148614
-7.696167442333619
-7.622313776353584
-7.542305638208595
-7.4684519722285625
-7.388443834083573
-7.32074464026855
-7.2591999186185365
-7.191500724803541
-7.117647058823534
-7.04994786500851
-6.988403143358496
-6.920703949543499
-6.853004755728476
-6.791460034078489
-6.729915312428475
-6.674525062943471
-6.606825869128446
-6.551435619643442
-6.5021998423234475
-6.446809592838443
-6.39757381551842
-6.329874621703424
-6.274484372218421
-6.219094122733386
-6.163703873248383
-6.114468095928388
-6.059077846443384
-6.003687596958379
-5.954451819638357
-5.899061570153352
-5.8559802649983395
-5.806744487678346
-5.757508710358322
-5.732890821698339
-5.683655044378315
-5.628264794893312
-5.591337961903309
-5.548256656748296
-5.505175351593311
-5.468248518603279
-5.437476157778287
-5.412858269118276
-5.388240380458292
-5.3636224917982815
-5.332850130973288
-5.308232242313277
-5.277459881488256
-5.265150937158264
-5.2466875206632615
-5.222069632003251
-5.191297271178258
-5.166679382518247
-5.135907021693253
-5.09898018870325
-5.074362300043239
-5.049744411383228
-5.012817578393225
-4.994354161898224
-4.9635818010732295
-4.926654968083227
-4.895882607258207
-4.871264718598223
-4.840492357773202
-4.80971999694821
-4.778947636123188
-4.7543297474632045
-4.705093970143182
-4.625085831998166
-4.501996388698165
-4.335825640243124
-4.083492281478085
-3.726532895908047
-3.1357035680679433
-2.6002644897128726
-2.083288827852803
-1.7324839144477464
-1.9294270237277809
-1.954044912387765
-1.8863457185727683
-1.8801912464077586
-1.8801912464077586
-1.855573357747775
-1.861727829912757
-1.8186465247577446
-1.8001831082627426
-1.8494188855827651
-1.830955469087764
-1.8186465247577446
-1.9048091350677696
-1.990971745377768
-1.8740367742427766
-1.8371099412527454
-1.8371099412527454
-1.8186465247577446
-1.8063375804277528
-1.6401668319727392
-1.5601586938277234
-2.249459576307816
-2.009435161872797
-2.1263701330077875
-2.329467714452832
-2.747971821672884
-3.38803692683301
-3.8311589227130742
-3.6219068691030203
-3.738841840238039
-3.9480938938480934
-4.188118308283112
-4.311207751583139
-4.3727524732331275
-4.440451667048151
-4.440451667048151
-4.446606139213161
-4.526614277358149
-4.5573866381831705
-4.508150860863147
-4.508150860863147
-4.4835329722031645
-4.477378500038154
-4.434297194883141
-4.385061417563146
-4.298898807253121
-4.218890669108104
-4.126573586633098
-4.0404109763231
-3.9296304773530633
-3.75730525673304
-3.6957605350830534
-3.609597924773028
-3.4803540093080176
-3.326492205182996
-3.1049312072429505
-2.96953281961293
-2.8895246814679143
-2.883370209302905
-2.9141425701278982
-2.9264515144579173
-2.8279799598179
-2.68642710002287
-2.618727906207874
-2.624882378372884
-2.5941100175478624
-2.5325652958978484
-2.4587116299178424
-2.3971669082678284
-2.378703491772827
-2.4279392690928487
-2.372549019607845
-2.3356221866178415
-2.3171587701228398
-2.3171587701228398
-2.3171587701228398
-2.323313242287822
-2.323313242287822
-2.329467714452832
-2.323313242287822
-2.3356221866178415
-2.3540856031128428
-2.3171587701228398
-1.9355814958927628
-1.7140204979527454
-2.323313242287822
-2.1263701330077875
-1.9355814958927628
-1.7755652196027594
-1.757101803107758
-1.8678823020777668
-2.2740774649678275
-2.55718318455786
-2.1325246051727973
-1.9971262175427773
-1.9601993845527748
-1.91096360723278
-1.89865466290276
-1.9171180793977614
-1.830955469087764
-1.8863457185727683
-1.861727829912757
-1.8124920525927626
-1.8124920525927626
-1.8001831082627426
-1.7940286360977609
-1.8001831082627426
-1.757101803107758
-1.7817196917677414
-1.7940286360977609
-1.7940286360977609
-1.677093664962742
-1.578622110322725
-1.7509473309427481
-1.7694107474377496
-1.7632562752727399
-1.7940286360977609
-1.7755652196027594
-1.7817196917677414
-1.7694107474377496
-1.7878741639327511
-1.8124920525927626
-1.8001831082627426
-1.7694107474377496
-1.8124920525927626
-1.8371099412527454
-2.04020752269779
-1.892500190737778
-1.7694107474377496
-1.5540042216627135
-1.2339716690826785
-0.9939472546476313
-0.8523943948526291
-0.8523943948526291
-0.9139391165026156
-0.9262480608326351
-0.9570204216576284
-1.0185651433076426
-1.073955392792647
-1.0924188092876486
-1.1355001144426613
-1.0616464484626553
-0.7477683680476023
-1.0924188092876486
-1.2031993082576575
-1.25243508557768
-1.178581419597674
-1.91096360723278
-1.5663131659927332
-1.3324432237226955
-1.3447521680526875
-1.3816790010426905
-1.3878334732077002
-1.4062968897027015
-1.4124513618677115
-1.6032399989827364
-1.5601586938277234
-1.5293863330027024
-1.5847765824877347
-1.590931054652717
-1.5663131659927332
-1.5232318608377204
-1.4801505556827075
-1.5724676381577152
-1.590931054652717
-1.590931054652717
-1.6093944711477182
-1.5478497494977315
-1.1601180031026725
-1.2093537804226673
-1.4493781948577145
-1.5170773886727107
-1.5232318608377204
-1.5293863330027024
-1.5293863330027024
-1.5416952773327222
-1.5724676381577152
-1.6093944711477182
-1.6463213041377214
-1.7078660257877356
-1.689402609292734
-1.6647847206327224
-1.9601993845527748
-2.0340530505327803
-1.7817196917677414
-1.7447928587777384
-1.7940286360977609
-1.8801912464077586
-1.8678823020777668
-1.8740367742427766
-1.892500190737778
-1.8740367742427766
-1.8248009969227539
-1.7694107474377496
-1.7324839144477464
-1.7324839144477464
-1.6278578876427194
-1.683248137127724
-1.5970855268177266
-1.5663131659927332
-1.5416952773327222
-1.4432237226927047
-1.4616871391877062
-1.504768444342719
-1.4555326670226965
-1.2832074464026733
-1.4186058340326935
-1.473996083517698
-1.3201342793926762
-1.221662724752659
-0.9939472546476313
-0.9077846443376336
-1.0370285598026439
-0.9816383103176396
-0.9200935886676254
-0.8277765061926179
-0.7539228402126119
-0.6800691742326058
-0.6862236463975879
-0.6000610360875902
-0.5262073701075842
-0.4831260649525715
-0.433890287632549
-0.396963454642546
-0.5138984257775646
-0.7416138958825924
-0.6554512855725947
-0.6000610360875902
-0.6185244525825918
-0.6431423412426028
-0.6492968134075848
-0.6862236463975879
-0.6862236463975879
-0.6616057577376044
-0.6862236463975879
-0.6677602299025863
-0.6677602299025863
-0.6923781185625978
-0.6554512855725947
-0.6062155082525723
-0.7231504793875909
-0.7231504793875909
-0.7908496732026148
-0.7846952010376053
-0.8093130896976164
-0.8216220340276081
-0.8400854505226096
-0.8462399226876194
-0.8277765061926179
-0.8708578113476306
-0.9139391165026156
-0.901630172172624
-0.9262480608326351
-1.104727753617668
-1.178581419597674
-1.1662724752676545
-1.184735891762656
-1.3078253350626845
-1.3878334732077002
-1.3755245288776807
-1.400142417537692
-1.4309147783627132
-1.4616871391877062
-1.3201342793926762
-1.0924188092876486
-2.249459576307816
-1.8863457185727683
-1.7078660257877356
-1.8248009969227539
-1.8432644134177558
-1.8801912464077586
-1.9232725515627715
-1.9355814958927628
-1.9417359680577726
-1.9786628010477763
-1.972508328882766
-1.966353856717784
-1.91096360723278
-1.892500190737778
-1.8432644134177558
-1.8186465247577446
-1.7878741639327511
-1.8432644134177558
-1.7324839144477464
-1.683248137127724
-1.6401668319727392
-1.615548943312728
-1.5663131659927332
-1.4186058340326935
-1.400142417537692
-1.3693700567126987
-1.4309147783627132
-1.5540042216627135
-1.6709391927977324
-1.7140204979527454
-1.6463213041377214
-1.7632562752727399
-1.8432644134177558
-1.89865466290276
-1.972508328882766
-2.015589634037779
-2.052516467027782
-2.083288827852803
-2.1017522443478045
-2.083288827852803
-2.1325246051727973
-2.1079067165127863
-2.083288827852803
-2.0586709391927913
-1.990971745377768
-2.114061188677796
-2.1263701330077875
-2.0955977721827947
-2.1817603824928202
-2.194069326822812
-2.187914854657802
-2.187914854657802
-2.1079067165127863
-1.9971262175427773
-1.89865466290276
-1.8494188855827651
-1.8801912464077586
-1.830955469087764
-1.7878741639327511
-1.8063375804277528
-1.8186465247577446
-1.7878741639327511
-1.6093944711477182
-1.7817196917677414
-1.8740367742427766
-1.7509473309427481
-1.7632562752727399
-1.7940286360977609
-1.8001831082627426
-1.830955469087764
-1.830955469087764
-1.8248009969227539
-1.8494188855827651
-1.9478904402227823
-2.052516467027782
-2.077134355687793
-2.1202156608428053
-2.1817603824928202
-2.194069326822812
-2.2186872154828228
-2.2371506319778245
-2.194069326822812
-2.150988021667799
-2.052516467027782
-1.972508328882766
-2.0709798835227837
-2.009435161872797
-1.830955469087764
-1.8248009969227539
-1.7447928587777384
-1.8124920525927626
-1.954044912387765
-2.194069326822812
-2.624882378372884
-3.2957198443579747
-3.6896060629180436
-3.825004450548064
-3.9480938938480934
-3.9542483660130747
-3.8803947000330687
-3.861931283538067
-3.8803947000330687
-3.8311589227130742
-3.812695506218072
-3.7696142010630598
-3.7511507845680576
-3.738841840238039
-3.7142239515780546
-3.6834515907530343
-3.634215813433039
-3.634215813433039
-3.6772971185880525
-3.634215813433039
-3.5911345082780266
-3.578825563948035
-3.529589786628012
-3.609597924773028
-3.560362147453033
-3.554207675288024
-3.548053203123014
-3.3141832608529764
-2.871061264972913
-3.474199537143008
-3.449581648482997
-3.449581648482997
-3.554207675288024
-4.0404109763231
-3.6772971185880525
-3.4803540093080176
-3.38803692683301
-3.4557361206480066
-3.4188092876580036
-3.38803692683301
-3.25263853920299
-2.797207598992907
-3.006459652602933
-3.394191398997992
-3.3511100938430074
-3.301874316522985
-3.2957198443579747
-3.277256427862973
-3.504971897968029
-3.868085755703077
-3.38803692683301
-3.369573510338009
-3.3203377330179857
-3.338801149512988
-3.264947483532982
-3.258793011367972
-3.24648406703798
-3.3141832608529764
-3.2957198443579747
-3.25263853920299
-3.2403295948729705
-3.215711706212987
-3.215711706212987
-3.1972482897179852
-2.9572238752829105
-2.723353933012873
-3.0310775412629165
-3.0310775412629165
-2.9818417639429216
-2.8156710154879088
-2.6371913227028756
-2.5694921288878514
-2.55102871239285
-2.624882378372884
-2.631036850537866
-2.6433457948678853
-2.649500267032867
-2.6433457948678853
-2.7418173495078744
-3.1295490959029335
-2.7910531268278973
-2.729508405177883
-2.711044988682881
-2.704890516517872
-2.667963683527869
-2.711044988682881
-2.778744182497905
-2.7848986546628876
-2.655654739197877
-2.6925815721878803
-2.661809211362886
-2.618727906207874
-2.612573434042864
-2.6433457948678853
-2.674118155692878
-2.655654739197877
-2.6371913227028756
-2.6371913227028756
-2.606418961877855
-2.612573434042864
-2.618727906207874
-2.624882378372884
-2.649500267032867
-2.624882378372884
-2.544874240227868
-2.754126293837894
-2.858752320642893
-2.8095165433228986
-2.994150708272913
-3.006459652602933
-3.0249230690979347
-2.778744182497905
-3.1233946237379517
-3.24648406703798
-3.117240151572942
-3.080313318582939
-3.1233946237379517
-3.1664759288929645
-3.154166984562973
-3.1480125123979352
-3.117240151572942
-2.9879962361079313
-3.049540957757918
-3.043386485592936
-3.0680043742529195
-3.092622262912931
-3.055695429922928
-2.96953281961293
-2.944914930952919
-2.895679153632896
-2.901833625797906
-2.932605986622927
-3.074158846417929
-3.178784873222984
-3.154166984562973
-3.080313318582939
-3.141858040232953
-3.0126141247679152
-2.8895246814679143
-2.8095165433228986
-2.8525978484779113
-2.9510694031179288
-3.080313318582939
-3.117240151572942
-3.117240151572942
-3.092622262912931
-3.0680043742529195
-3.0618499020879373
-3.018768596932925
-2.797207598992907
-2.606418961877855
-3.394191398997992
-3.264947483532982
-3.0310775412629165
-2.9879962361079313
-2.994150708272913
-2.96953281961293
-2.9510694031179288
-2.9387604587879093
-2.9572238752829105
-2.9818417639429216
-2.944914930952919
-2.9264515144579173
-2.858752320642893
-2.9572238752829105
-2.975687291777912
-2.9202970422929075
-2.9387604587879093
-2.9572238752829105
-2.932605986622927
-2.9264515144579173
-2.9387604587879093
-3.191093817552976
-3.8927036443630603
-4.637394776328185
-5.671346100048325
-6.176012817578402
-6.465273009333443
-6.748378728923477
-6.859159227893485
-6.939167366038501
-6.902240533048498
-6.656061646448469
-6.520663258818449
-6.372955926858409
-6.188321761908394
-6.034459957783372
-5.892907097988342
-5.579029017573317
-5.142061493858235
-4.760484219628186
-4.520459805193167
-4.354289056738125
-4.268126446428129
-4.052719920653092
-3.837313394878056
-3.6219068691030203
-3.381882454668
-3.191093817552976
-3.0987767350779407
-3.0372320134279267
-2.932605986622927
-2.9141425701278982
-2.8895246814679143
-2.8218254876528905
-2.747971821672884
-2.778744182497905
-2.797207598992907
-2.729508405177883
-2.735662877342893
-2.7171994608478913
-2.6987360443528896
-2.674118155692878
-2.507947407237865
-2.6987360443528896
-2.8095165433228986
-2.6925815721878803
-2.680272627857888
-2.655654739197877
-2.631036850537866
-2.618727906207874
-2.6925815721878803
-2.649500267032867
-2.674118155692878
-2.649500267032867
-2.6371913227028756
-2.6371913227028756
-2.618727906207874
-2.606418961877855
-2.606418961877855
-2.618727906207874
-2.618727906207874
-2.5941100175478624
-2.587955545382853
-2.520256351567857
-2.6433457948678853
-2.612573434042864
-2.606418961877855
-2.606418961877855
-2.606418961877855
-2.606418961877855
-2.606418961877855
-2.6002644897128726
-2.5941100175478624
-2.6002644897128726
-2.55718318455786
-2.6371913227028756
-2.618727906207874
-2.55718318455786
-2.680272627857888
-2.6371913227028756
-2.6002644897128726
-2.587955545382853
-2.55718318455786
-2.612573434042864
-2.606418961877855
-2.612573434042864
-2.5941100175478624
-2.5941100175478624
-2.606418961877855
-2.581801073217871
-2.5694921288878514
-2.544874240227868
-2.661809211362886
-2.6371913227028756
-2.606418961877855
-2.606418961877855
-2.6002644897128726
-2.587955545382853
-2.5694921288878514
-2.631036850537866
-2.434093741257831
-2.1202156608428053
-2.403321380432838
-2.507947407237865
-2.544874240227868
-2.55102871239285
-3.0372320134279267
-2.9572238752829105
-2.674118155692878
-2.624882378372884
-2.612573434042864
-2.612573434042864
-2.6002644897128726
-2.581801073217871
-2.5694921288878514
-2.581801073217871
-2.575646601052861
-2.6002644897128726
-2.581801073217871
-2.5941100175478624
-2.618727906207874
-2.587955545382853
-2.6002644897128726
-2.624882378372884
-2.6002644897128726
-2.587955545382853
-2.587955545382853
-2.6002644897128726
-2.606418961877855
-2.624882378372884
-2.6002644897128726
-2.5941100175478624
-2.581801073217871
-2.5694921288878514
-2.674118155692878
-2.667963683527869
-2.606418961877855
-2.587955545382853
-2.606418961877855
-2.655654739197877
-2.563337656722869
-2.6002644897128726
-2.6002644897128726
-2.618727906207874
-2.606418961877855
-2.606418961877855
-2.6433457948678853
-2.612573434042864
-2.581801073217871
-2.631036850537866
-2.631036850537866
-2.6371913227028756
-2.618727906207874
-2.581801073217871
-2.674118155692878
-2.631036850537866
-2.6371913227028756
-2.6433457948678853
-2.6371913227028756
-2.618727906207874
-2.5941100175478624
-2.563337656722869
-2.5141018794028467
-2.544874240227868
-2.2433051041428067
-2.329467714452832
-2.434093741257831
-2.4402482134228407
-2.544874240227868
-2.618727906207874
-2.6925815721878803
-2.661809211362886
-2.661809211362886
-2.661809211362886
-2.735662877342893
-3.018768596932925
-3.3326466773480057
-4.028102031993082
-4.409679306223158
-4.797411052618189
-5.400549324788284
-5.683655044378315
-6.046768902113364
-6.3052567330434135
-6.354492510363407
-6.163703873248383
-6.582207980468463
-6.705297423768464
-6.686834007273461
-6.674525062943471
-6.6622161186134505
-6.631443757788458
-6.674525062943471
-6.803768978408481
-6.717606368098483
-6.6622161186134505
-6.612980341293456
-6.508354314488429
-6.3914193433534106
-6.336029093868406
-6.299102260878403
-6.2621754278884
-6.188321761908394
-6.102159151598396
-6.059077846443384
-6.059077846443384
-6.003687596958379
-5.935988403143354
-5.942142875308365
-5.929833930978346
-5.8436713206683475
-5.702118460873318
-5.499020879428301
-5.388240380458292
-5.3636224917982815
-5.289768825818275
-5.086671244373231
-4.9881996897332135
-4.908191551588226
-4.6189313598331845
-4.145037003128099
-3.720378423743037
-3.1726304010579747
-2.55718318455786
-2.975687291777912
-2.907988097962916
-2.520256351567857
-2.4217847969278394
-2.3540856031128428
-2.304849825792821
-2.3171587701228398
-2.261768520637808
-2.2186872154828228
-2.2925408814628288
-2.2802319371328093
-2.2371506319778245
-2.2186872154828228
-2.2309961598128147
-2.224841687647805
-2.200223798987821
-2.2063782711528033
-2.2186872154828228
-2.2063782711528033
-2.200223798987821
-2.194069326822812
-2.194069326822812
-2.1571424938328088
-2.150988021667799
-2.224841687647805
-2.2186872154828228
-2.194069326822812
-2.1694514381628007
-2.083288827852803
-1.8801912464077586
-1.683248137127724
-1.6340123598077294
-1.6278578876427194
-1.5478497494977315
-1.437069250527695
-1.3693700567126987
-1.3324432237226955
-1.3139798072276945
-1.4062968897027015
-1.3385976958876775
-1.4616871391877062
-1.6032399989827364
-1.6586302484677409
-1.6647847206327224
-1.6955570814577436
-1.7324839144477464
-1.7694107474377496
-1.7755652196027594
-1.8186465247577446
-1.91096360723278
-1.9601993845527748
-1.954044912387765
-2.212532743317813
-2.2925408814628288
-2.1756059103278105
-2.0709798835227837
-2.1325246051727973
-2.1017522443478045
-2.0955977721827947
-2.1632969659978185
-2.1694514381628007
-2.052516467027782
-2.0278985783677985
-2.3171587701228398
-2.403321380432838
-2.083288827852803
-1.972508328882766
-1.8740367742427766
-1.8678823020777668
-1.7940286360977609
-1.6647847206327224
-1.5293863330027024
-1.6647847206327224
-1.677093664962742
-1.504768444342719
-1.3447521680526875
-1.2585895577426898
-1.1539635309376628
-1.0616464484626553
-0.9447114773276367
-0.9877927824826491
-0.9447114773276367
-0.8400854505226096
-0.7785407288726233
-0.7970041453676248
-0.7970041453676248
-0.8339309783576276
-0.8585488670176111
-0.8523943948526291
-0.8339309783576276
-0.8585488670176111
-0.889321227842632
-0.8770122835126126
-0.8647033391826209
-0.9447114773276367
-1.000101726812641
-1.0062561989776508
-1.0185651433076426
-1.0308740876376343
-1.0493375041326358
-1.0062561989776508
-0.9816383103176396
-0.7169960072226089
-1.0185651433076426
-1.1293456422776516
-1.0124106711426328
-0.9754838381526297
-0.9816383103176396
-1.0493375041326358
-1.1170366979476598
-1.073955392792647
-1.104727753617668
-1.1478090587726528
-1.1908903639276658
-1.1662724752676545
-1.1601180031026725
-1.1908903639276658
-1.2278171969176688
-1.289361918567683
-1.39398794537271
-1.184735891762656
-0.7539228402126119
-1.4309147783627132
-1.504768444342719
-1.5170773886727107
-1.5663131659927332
-2.0278985783677985
-2.1202156608428053
-1.7878741639327511
-1.7263294422827367
-1.7263294422827367
-1.7263294422827367
-1.7324839144477464
-1.7386383866127564
-1.6647847206327224
-1.6524757763027311
-1.5478497494977315
-1.6217034154777374
-1.5724676381577152
-1.5232318608377204
-1.5293863330027024
-1.504768444342719
-1.3755245288776807
-1.2401261412476885
-1.1355001144426613
-1.104727753617668
-1.1539635309376628
-1.3201342793926762
-1.4616871391877062
-1.5355408051677124
-1.5478497494977315
-1.6955570814577436
-1.6278578876427194
-1.6524757763027311
-1.7017115536227536
-1.7817196917677414
-1.8494188855827651
-1.8432644134177558
-1.91096360723278
-1.966353856717784
-1.9786628010477763
-1.9786628010477763
-1.966353856717784
-1.954044912387765
-1.954044912387765
-2.1632969659978185
-2.015589634037779
-1.9786628010477763
-1.9786628010477763
-1.966353856717784
-1.9355814958927628
-1.8863457185727683
-1.861727829912757
-1.7386383866127564
-1.7694107474377496
-1.7386383866127564
-1.6647847206327224
-1.6217034154777374
-1.437069250527695
-1.4555326670226965
-1.4616871391877062
-1.4062968897027015
-1.467841611352716
-1.437069250527695
-1.2708985020726815
-1.4186058340326935
-1.5170773886727107
-1.3816790010426905
-1.3755245288776807
-1.3139798072276945
-1.3878334732077002
-1.39398794537271
-1.3509066402176972
-1.400142417537692
-1.3878334732077002
-1.363215584547689
-1.3139798072276945
-1.2770529742376913
-1.3509066402176972
-1.3201342793926762
-1.2708985020726815
-1.2708985020726815
-1.2647440299076718
-1.25243508557768
-1.2462806134126705
-1.2401261412476885
-1.3324432237226955
-1.5478497494977315
-1.9048091350677696
-2.3540856031128428
-3.074158846417929
-3.548053203123014
-3.9665573103430942
-4.194272780448122
-4.237354085603107
-4.16965489178811
-4.101955697973114
-4.052719920653092
-4.0219475598280985
-3.9419394216830828
-3.8803947000330687
-3.9050125886930798
-3.9173215330230713
-3.837313394878056
-3.8188499783830547
-3.800386561888053
-3.7757686732280415
-3.7696142010630598
-3.7757686732280415
-3.701915007248036
-3.701915007248036
-3.6896060629180436
-3.664988174258033
-3.6465247577630313
-3.609597924773028
-3.597288980443037
-3.6280613412680296
-3.597288980443037
-3.5665166196180156
-3.5418987309580316
-3.535744258793022
-3.529589786628012
-3.3326466773480057
-3.0126141247679152
-3.609597924773028
-3.935784949518073
-3.5665166196180156
-3.474199537143008
-3.4434271763180146
-3.394191398997992
-3.468045064977998
-3.4126548154929934
-3.381882454668
-3.4126548154929934
-3.381882454668
-3.369573510338009
-3.363419038172999
-3.3511100938430074
-3.308028788687994
-3.2957198443579747
-3.277256427862973
-3.326492205182996
-3.2711019556979917
-3.2403295948729705
-3.344955621677997
-3.289565372192993
-3.264947483532982
-3.2403295948729705
-3.2403295948729705
-3.301874316522985
-3.25263853920299
-3.2341751227079882
-3.2403295948729705
-3.2403295948729705
-3.2280206505429785
-3.1480125123979352
-2.723353933012873
-2.772589710332896
-3.074158846417929
-3.2341751227079882
-3.1664759288929645
-3.1480125123979352
-3.141858040232953
-3.277256427862973
-3.75730525673304
-3.394191398997992
-3.2034027618829675
-3.178784873222984
-3.1664759288929645
-3.1480125123979352
-3.141858040232953
-3.1110856794079322
-3.117240151572942
-3.117240151572942
-3.1049312072429505
-3.1110856794079322
-3.1110856794079322
-3.1049312072429505
-3.092622262912931
-3.0372320134279267
-3.092622262912931
-3.092622262912931
-3.080313318582939
-3.080313318582939
-3.055695429922928
-3.074158846417929
-3.1664759288929645
-3.055695429922928
-3.0987767350779407
-3.080313318582939
-3.055695429922928
-3.043386485592936
-3.0126141247679152
-3.055695429922928
-3.0310775412629165
-2.994150708272913
-3.0680043742529195
-3.0372320134279267
-3.0003051804379233
-2.96953281961293
-2.9879962361079313
-3.043386485592936
-2.9879962361079313
-2.975687291777912
-3.006459652602933
-2.9818417639429216
-2.9818417639429216
-2.9879962361079313
-2.9818417639429216
-2.975687291777912
-2.9572238752829105
-2.9510694031179288
-2.994150708272913
-2.932605986622927
-2.9510694031179288
-3.018768596932925
-2.9572238752829105
-2.944914930952919
-2.9202970422929075
-2.7910531268278973
-2.907988097962916
-3.1049312072429505
-2.975687291777912
-2.9510694031179288
-2.9572238752829105
-2.9387604587879093
-2.9141425701278982
-2.9264515144579173
-2.9510694031179288
-3.0126141247679152
-2.944914930952919
-2.9202970422929075
-2.883370209302905
-2.8218254876528905
-2.729508405177883
-2.680272627857888
-2.5941100175478624
-2.544874240227868
-2.624882378372884
-2.754126293837894
-2.871061264972913
-2.901833625797906
-2.8279799598179
-2.9202970422929075
-2.735662877342893
-2.403321380432838
-2.704890516517872
-2.8033620711578893
-2.83413443198291
-2.83413443198291
-3.0310775412629165
-2.975687291777912
-2.0709798835227837
-1.757101803107758
-1.6463213041377214
-1.5847765824877347
-1.5540042216627135
-1.6524757763027311
-1.5724676381577152
-1.5355408051677124
-1.5170773886727107
-1.510922916507701
-1.5355408051677124
-1.5601586938277234
-1.5601586938277234
-1.5540042216627135
-1.510922916507701
-1.5970855268177266
-1.6340123598077294
-1.7017115536227536
-1.677093664962742
-1.8063375804277528
-1.8740367742427766
-1.9417359680577726
-2.052516467027782
-2.1694514381628007
-2.1694514381628007
-2.2186872154828228
-2.2679229928028177
-2.298695353627811
-2.329467714452832
-2.3417766587828237
-2.391012436102846
-2.4217847969278394
-2.2309961598128147
-1.9971262175427773
-2.2186872154828228
-2.2186872154828228
-2.2063782711528033
-2.1756059103278105
-2.1817603824928202
-2.150988021667799
-2.1571424938328088
-2.2063782711528033
-2.200223798987821
-2.249459576307816
-2.378703491772827
-2.4894839907428636
-2.649500267032867
-3.055695429922928
-2.9264515144579173
-2.877215737137895
-2.901833625797906
-2.96953281961293
-3.080313318582939
-2.877215737137895
-3.2280206505429785
-3.2711019556979917
-3.092622262912931
-3.178784873222984
-3.2403295948729705
-3.184939345387966
-3.160321456727955
-3.0987767350779407
-3.25263853920299
-3.184939345387966
-3.154166984562973
-3.1664759288929645
-3.1295490959029335
-3.049540957757918
-3.0126141247679152
-2.9879962361079313
-3.080313318582939
-3.1233946237379517
-3.1357035680679433
-3.1233946237379517
-3.1049312072429505
-3.092622262912931
-3.154166984562973
-3.080313318582939
-3.1357035680679433
-3.055695429922928
-2.8895246814679143
-2.766435238167886
-2.655654739197877
-2.4648661020828517
-2.495638462907845
-2.624882378372884
-2.747971821672884
-2.883370209302905
-2.9818417639429216
-3.1233946237379517
-3.2280206505429785
-3.191093817552976
-3.178784873222984
-3.184939345387966
-3.184939345387966
-3.1726304010579747
-3.1664759288929645
-3.141858040232953
-3.1233946237379517
-3.117240151572942
-3.1110856794079322
-3.1110856794079322
-3.1049312072429505
-3.0126141247679152
-2.994150708272913
-3.0864677907479487
-3.0680043742529195
-3.074158846417929
-3.0680043742529195
-3.074158846417929
-3.0680043742529195
-3.049540957757918
-3.049540957757918
-3.049540957757918
-2.8649067928079033
-2.5325652958978484
-3.043386485592936
-3.6034434526080172
-3.363419038172999
-3.117240151572942
-3.055695429922928
-3.0372320134279267
-3.0310775412629165
-3.006459652602933
-2.9818417639429216
-3.0249230690979347
-3.0310775412629165
-3.0126141247679152
-2.9818417639429216
-2.9818417639429216
-2.96953281961293
-2.8033620711578893
-2.55102871239285
-2.8402889041478923
-2.9264515144579173
-2.9510694031179288
-2.9387604587879093
-2.9264515144579173
-2.9510694031179288
-2.9141425701278982
-2.9387604587879093
-2.9633783474479203
-2.9510694031179288
-2.944914930952919
-2.932605986622927
-3.0310775412629165
-3.381882454668
-3.1049312072429505
-2.96953281961293
-2.994150708272913
-2.9572238752829105
-2.944914930952919
-2.932605986622927
-2.9202970422929075
-2.901833625797906
-2.895679153632896
-2.8895246814679143
-2.9510694031179288
-2.907988097962916
-2.895679153632896
-2.8895246814679143
-2.9510694031179288
-2.9202970422929075
-2.9141425701278982
-2.9264515144579173
-2.9202970422929075
-2.9202970422929075
-2.9141425701278982
-2.907988097962916
-2.895679153632896
-2.8895246814679143
-2.8649067928079033
-2.871061264972913
-2.8895246814679143
-2.83413443198291
-2.932605986622927
-2.901833625797906
-2.871061264972913
-2.6987360443528896
-2.871061264972913
-2.994150708272913
-2.8895246814679143
-2.877215737137895
-2.871061264972913
-2.858752320642893
-2.8218254876528905
-2.7848986546628876
-2.68642710002287
-2.655654739197877
-2.5941100175478624
-2.5141018794028467
-2.680272627857888
-2.778744182497905
-2.8649067928079033
-2.9141425701278982
-2.8525978484779113
-2.9141425701278982
-2.877215737137895
-2.8649067928079033
-2.871061264972913
-2.877215737137895
-2.8649067928079033
-2.83413443198291
-2.932605986622927
-2.895679153632896
-2.8895246814679143
-2.871061264972913
-2.8525978484779113
-2.8464433763129016
-2.8525978484779113
-2.8402889041478923
-2.8218254876528905
-2.8649067928079033
-2.8402889041478923
-2.8464433763129016
-2.8279799598179
-2.735662877342893
-2.8218254876528905
-2.7910531268278973
-2.347931130947833
-2.6002644897128726
-2.711044988682881
-2.772589710332896
-2.797207598992907
-2.8095165433228986
-2.8033620711578893
-2.883370209302905
-3.400345871163002
-3.1233946237379517
-2.895679153632896
-2.8156710154879088
-2.9202970422929075
-2.877215737137895
-2.8402889041478923
-2.83413443198291
-2.8464433763129016
-2.674118155692878
-2.3540856031128428
-2.631036850537866
-2.723353933012873
-2.760280766002876
-2.766435238167886
-2.944914930952919
-3.369573510338009
-2.9879962361079313
-3.0249230690979347
-2.895679153632896
-2.8095165433228986
-2.8095165433228986
-2.8033620711578893
-2.7848986546628876
-2.8156710154879088
-2.7910531268278973
-2.778744182497905
-2.7848986546628876
-2.7910531268278973
-2.797207598992907
-2.7848986546628876
-2.729508405177883
-2.667963683527869
-2.778744182497905
-2.8095165433228986
-2.8156710154879088
-2.83413443198291
-2.8218254876528905
-2.8156710154879088
-2.7848986546628876
-2.8649067928079033
-2.8525978484779113
-2.8156710154879088
-2.8156710154879088
-2.8033620711578893
-2.772589710332896
-2.8218254876528905
-2.858752320642893
-2.8402889041478923
-2.8218254876528905
-2.8156710154879088
-2.7910531268278973
-2.8033620711578893
-2.8218254876528905
-2.8156710154879088
-2.778744182497905
-2.8525978484779113
-2.8279799598179
-2.8033620711578893
-2.778744182497905
-2.766435238167886
-2.8649067928079033
-2.8156710154879088
-2.7910531268278973
-2.8218254876528905
-2.8095165433228986
-2.7910531268278973
-2.7910531268278973
-2.7848986546628876
-2.7848986546628876
-2.797207598992907
-2.7910531268278973
-2.772589710332896
-2.606418961877855
-2.8095165433228986
-2.9633783474479203
-2.8218254876528905
-2.797207598992907
-2.797207598992907
-2.797207598992907
-2.772589710332896
-2.7848986546628876
-2.7848986546628876
-2.778744182497905
-2.778744182497905
-2.7910531268278973
-2.778744182497905
-2.723353933012873
-2.723353933012873
-2.858752320642893
-2.8156710154879088
-2.8033620711578893
-2.797207598992907
-2.778744182497905
-2.747971821672884
-2.797207598992907
-2.778744182497905
-2.7910531268278973
-2.772589710332896
-2.7910531268278973
-2.7848986546628876
-2.760280766002876
-2.7418173495078744
-2.901833625797906
-2.8095165433228986
-2.7848986546628876
-2.7848986546628876
-2.778744182497905
-2.772589710332896
-2.778744182497905
-2.754126293837894
-2.8095165433228986
-2.7848986546628876
-2.772589710332896
-2.772589710332896
-2.747971821672884
-2.704890516517872
-2.6925815721878803
-2.7171994608478913
-2.772589710332896
-2.754126293837894
-2.729508405177883
-2.680272627857888
-2.495638462907845
-2.298695353627811
-2.2802319371328093
-2.3110042979578305
-2.304849825792821
-2.2433051041428067
-2.2063782711528033
-2.2063782711528033
-2.1571424938328088
-1.9355814958927628
-2.261768520637808
-2.8402889041478923
-2.5941100175478624
-2.434093741257831
-2.409475852597848
-2.471020574247862
-2.507947407237865
-2.520256351567857
-2.4648661020828517
-2.4402482134228407
-2.409475852597848
-2.2925408814628288
-2.2802319371328093
-2.2925408814628288
-2.2433051041428067
-2.200223798987821
-2.1017522443478045
-2.0278985783677985
-2.0586709391927913
-2.083288827852803
-2.083288827852803
-2.04020752269779
-2.04020752269779
-2.0955977721827947
-2.052516467027782
-1.9848172732127856
-1.7632562752727399
-1.9171180793977614
-2.089443300017785
-2.249459576307816
-2.4525571577528327
-2.606418961877855
-2.6002644897128726
-2.631036850537866
-2.655654739197877
-2.655654739197877
-2.7171994608478913
-2.772589710332896
-2.766435238167886
-2.735662877342893
-2.877215737137895
-2.907988097962916
-2.754126293837894
-2.680272627857888
-2.6002644897128726
-2.6925815721878803
-2.7910531268278973
-2.8402889041478923
-2.8218254876528905
-2.877215737137895
-2.858752320642893
-2.8464433763129016
-2.7910531268278973
-2.7418173495078744
-2.5941100175478624
-2.631036850537866
-2.563337656722869
-2.5941100175478624
-2.6433457948678853
-2.612573434042864
-2.5141018794028467
-2.495638462907845
-2.347931130947833
-2.483329518577854
-2.563337656722869
-2.446402685587851
-2.3417766587828237
-2.261768520637808
-2.1448335495027893
-2.150988021667799
-2.1571424938328088
-2.064825411357801
-2.0340530505327803
-2.052516467027782
-2.0278985783677985
-2.052516467027782
-2.077134355687793
-2.1202156608428053
-2.150988021667799
-1.8494188855827651
-2.224841687647805
-2.304849825792821
-2.0217441062027888
-2.0278985783677985
-1.9601993845527748
-1.8186465247577446
-1.6955570814577436
-1.5847765824877347
-1.5601586938277234
-1.4986139721777092
-1.467841611352716
-1.4801505556827075
-1.590931054652717
-1.6093944711477182
-1.7078660257877356
-1.8001831082627426
-1.7447928587777384
-1.8248009969227539
-1.8801912464077586
-1.7324839144477464
-1.590931054652717
-1.5601586938277234
-1.504768444342719
-1.473996083517698
-1.5663131659927332
-1.5478497494977315
-1.6278578876427194
-1.7755652196027594
-1.8740367742427766
-1.966353856717784
-1.972508328882766
-1.972508328882766
-2.1694514381628007
-2.194069326822812
-2.2309961598128147
-2.261768520637808
-2.3110042979578305
-2.3110042979578305
-2.249459576307816
-2.1632969659978185
-1.990971745377768
-1.6032399989827364
-2.2309961598128147
-2.2063782711528033
-2.2433051041428067
-2.360240075277825
-2.446402685587851
-2.871061264972913
-2.5387197680628577
-2.298695353627811
-2.2679229928028177
-2.2925408814628288
-2.3171587701228398
-2.3356221866178415
-2.298695353627811
-2.2740774649678275
-2.255614048472826
-2.2679229928028177
-2.2433051041428067
-2.224841687647805
-2.298695353627811
-2.261768520637808
-2.2925408814628288
-2.2925408814628288
-2.3540856031128428
-2.409475852597848
-2.4279392690928487
-2.446402685587851
-2.446402685587851
-2.477175046412844
-2.4648661020828517
-2.4648661020828517
-2.3971669082678284
-2.3110042979578305
-2.2802319371328093
-2.089443300017785
-2.009435161872797
-1.9417359680577726
-1.8371099412527454
-1.8001831082627426
-1.9848172732127856
-2.877215737137895
-4.0219475598280985
-4.151191475293109
-4.071183337148093
-3.9604028381780845
-3.874240227868059
-3.8188499783830547
-3.8803947000330687
-3.806541034053063
-3.75730525673304
-3.726532895908047
-3.6957605350830534
-3.6465247577630313
-3.043386485592936
-3.2095572340479768
-3.609597924773028
-3.6896060629180436
-3.5726710917830253
-3.554207675288024
-3.529589786628012
-3.4865084814730274
-4.065028864983084
-3.868085755703077
-3.597288980443037
-3.535744258793022
-3.492662953638009
-3.4865084814730274
-3.468045064977998
-3.437272704153005
-3.4188092876580036
-3.4311182319879947
-3.400345871163002
-3.406500343328012
-3.375727982502991
-3.3203377330179857
-3.338801149512988
-3.3511100938430074
-3.357264566007989
-3.326492205182996
-3.308028788687994
-3.2957198443579747
-3.289565372192993
-3.2957198443579747
-3.2834109000279827
-3.2957198443579747
-3.258793011367972
-3.24648406703798
-3.24648406703798
-3.25263853920299
-3.160321456727955
-3.25263853920299
-3.24648406703798
-3.2218661783779687
-3.2341751227079882
-3.2341751227079882
-3.2218661783779687
-3.215711706212987
-3.215711706212987
-3.2034027618829675
-3.1972482897179852
-3.1664759288929645
-3.1664759288929645
-3.154166984562973
-3.2957198443579747
-3.2403295948729705
-3.184939345387966
-3.1664759288929645
-3.154166984562973
-3.1110856794079322
-3.1726304010579747
-3.1357035680679433
-3.1049312072429505
-3.043386485592936
-2.994150708272913
-2.9264515144579173
-2.8402889041478923
-2.661809211362886
-2.6371913227028756
-3.055695429922928
-3.049540957757918
-3.117240151572942
-2.901833625797906
-2.434093741257831
-3.092622262912931
-3.5726710917830253
-3.4126548154929934
-3.1357035680679433
-3.092622262912931
-3.080313318582939
-3.0680043742529195
-3.043386485592936
-2.9633783474479203
-3.0372320134279267
-3.0680043742529195
-3.043386485592936
-3.0249230690979347
-3.0310775412629165
-3.0310775412629165
-3.0249230690979347
-3.0003051804379233
-3.0618499020879373
-3.049540957757918
-3.0249230690979347
-3.0249230690979347
-3.0126141247679152
-2.9879962361079313
-3.0864677907479487
-3.049540957757918
-2.975687291777912
-3.006459652602933
-3.0126141247679152
-3.0003051804379233
-3.0003051804379233
-2.9879962361079313
-2.9818417639429216
-2.975687291777912
-3.0003051804379233
-2.994150708272913
-2.9818417639429216
-2.994150708272913
-3.006459652602933
-2.9879962361079313
-2.9633783474479203
-2.9141425701278982
-3.006459652602933
-2.975687291777912
-2.9510694031179288
-2.9510694031179288
-2.944914930952919
-2.9264515144579173
-2.9387604587879093
-2.901833625797906
-2.9510694031179288
-2.83413443198291
-2.944914930952919
-2.932605986622927
-2.901833625797906
-2.907988097962916
-2.8895246814679143
-2.877215737137895
-2.9202970422929075
-2.895679153632896
-2.895679153632896
-2.901833625797906
-2.901833625797906
-2.735662877342893
-2.907988097962916
-3.0249230690979347
-2.944914930952919
-2.9387604587879093
-2.907988097962916
-2.9141425701278982
-2.9264515144579173
-2.9202970422929075
-2.9141425701278982
-2.9264515144579173
-2.9264515144579173
-2.9141425701278982
-2.9264515144579173
-2.9387604587879093
-2.907988097962916
-2.895679153632896
-2.9264515144579173
-2.9387604587879093
-2.944914930952919
-2.9202970422929075
-2.9202970422929075
-2.9202970422929075
-2.9264515144579173
-2.895679153632896
-2.9387604587879093
-2.9141425701278982
-2.895679153632896
-2.883370209302905
-2.877215737137895
-2.8464433763129016
-2.8649067928079033
-2.944914930952919
-2.883370209302905
-2.901833625797906
-2.901833625797906
-2.907988097962916
-2.895679153632896
-2.895679153632896
-2.883370209302905
-2.8649067928079033
-2.8279799598179
-2.895679153632896
-2.877215737137895
-2.871061264972913
-2.8464433763129016
-2.895679153632896
-2.8895246814679143
-2.877215737137895
-2.8649067928079033
-2.871061264972913
-2.871061264972913
-2.883370209302905
-2.8649067928079033
-2.8649067928079033
-2.858752320642893
-2.83413443198291
-2.8402889041478923
-2.655654739197877
-2.249459576307816
-2.8649067928079033
-2.83413443198291
-2.8218254876528905
-2.83413443198291
-2.883370209302905
-3.363419038172999
-3.2034027618829675
-2.932605986622927
-2.901833625797906
-2.877215737137895
-2.8649067928079033
-2.8464433763129016
-2.8402889041478923
-2.766435238167886
-2.8895246814679143
-2.55102871239285
-2.2186872154828228
-2.1694514381628007
-2.187914854657802
-2.2371506319778245
-2.298695353627811
-2.2802319371328093
-2.249459576307816
-2.224841687647805
-2.2309961598128147
-2.249459576307816
-2.2433051041428067
-2.2309961598128147
-2.3356221866178415
-2.3540856031128428
-2.378703491772827
-2.3540856031128428
-2.3848579639378364
-2.3971669082678284
-2.378703491772827
-2.409475852597848
-2.3848579639378364
-2.409475852597848
-2.4525571577528327
-2.4587116299178424
-2.4648661020828517
-2.5141018794028467
-2.612573434042864
-2.612573434042864
-2.5941100175478624
-2.723353933012873
-2.7910531268278973
-2.895679153632896
-3.074158846417929
-3.1295490959029335
-3.1357035680679433
-3.0618499020879373
-3.0003051804379233
-3.0249230690979347
-2.9879962361079313
-2.877215737137895
-2.711044988682881
-2.9141425701278982
-2.96953281961293
-2.9572238752829105
-2.877215737137895
-2.7848986546628876
-2.606418961877855
-2.747971821672884
-2.7910531268278973
-2.661809211362886
-2.606418961877855
-2.618727906207874
-2.649500267032867
-2.729508405177883
-2.8895246814679143
-2.8033620711578893
-2.766435238167886
-2.83413443198291
-2.8279799598179
-2.8279799598179
-2.883370209302905
-2.9818417639429216
-2.9510694031179288
-2.9510694031179288
-2.9633783474479203
-2.9510694031179288
-2.907988097962916
-2.8218254876528905
-2.7171994608478913
-2.68642710002287
-2.618727906207874
-2.680272627857888
-2.8402889041478923
-2.944914930952919
-2.9818417639429216
-2.9387604587879093
-2.96953281961293
-2.9510694031179288
-2.9264515144579173
-2.9264515144579173
-2.9141425701278982
-2.901833625797906
-2.8895246814679143
-2.9510694031179288
-2.9633783474479203
-2.9264515144579173
-2.883370209302905
-2.9387604587879093
-2.9141425701278982
-2.907988097962916
-2.8895246814679143
-2.858752320642893
-2.907988097962916
-2.895679153632896
-2.883370209302905
-2.8649067928079033
-2.8218254876528905
-2.907988097962916
-2.883370209302905
-2.8525978484779113
-2.883370209302905
-2.871061264972913
-2.871061264972913
-2.8649067928079033
-2.667963683527869
-2.2371506319778245
-2.8402889041478923
-2.932605986622927
-2.9387604587879093
-2.729508405177883
-2.747971821672884
-2.895679153632896
-2.8649067928079033
-2.858752320642893
-2.877215737137895
-3.344955621677997
-3.264947483532982
-2.9510694031179288
-2.901833625797906
-2.883370209302905
-2.8525978484779113
-2.8402889041478923
-2.8464433763129016
-2.8279799598179
-2.7848986546628876
-2.858752320642893
-2.83413443198291
-2.8033620711578893
-2.8279799598179
-2.8095165433228986
-2.766435238167886
-2.8033620711578893
-2.83413443198291
-2.7910531268278973
-2.7910531268278973
-2.7910531268278973
-2.7910531268278973
-2.797207598992907
-2.766435238167886
-2.8156710154879088
-2.8464433763129016
-2.8095165433228986
-2.8156710154879088
-2.8279799598179
-2.83413443198291
-2.8464433763129016
-2.6371913227028756
-2.901833625797906
-2.975687291777912
-2.871061264972913
-2.8525978484779113
-2.83413443198291
-2.8033620711578893
-2.8649067928079033
-2.883370209302905
-2.877215737137895
-2.858752320642893
-2.83413443198291
-2.8402889041478923
-2.8402889041478923
-2.8402889041478923
-2.83413443198291
-2.8095165433228986
-2.8525978484779113
-2.8525978484779113
-2.83413443198291
-2.778744182497905
-2.766435238167886
-2.83413443198291
-2.8033620711578893
-2.6987360443528896
-2.655654739197877
-2.9202970422929075
-2.8402889041478923
-2.7910531268278973
-2.7910531268278973
-2.778744182497905
-2.778744182497905
-2.760280766002876
-2.7910531268278973
-2.766435238167886
-2.760280766002876
-2.8279799598179
-2.7910531268278973
-2.778744182497905
-2.754126293837894
-2.760280766002876
-2.8033620711578893
-2.7848986546628876
-2.778744182497905
-2.7848986546628876
-2.778744182497905
-2.778744182497905
-2.760280766002876
-2.754126293837894
-2.766435238167886
-2.8279799598179
-2.8033620711578893
-2.772589710332896
-2.797207598992907
-2.7910531268278973
-2.766435238167886
-2.772589710332896
-2.7848986546628876
-2.772589710332896
-2.778744182497905
-2.7848986546628876
-2.772589710332896
-2.760280766002876
-2.772589710332896
-2.858752320642893
-2.7910531268278973
-2.7848986546628876
-2.772589710332896
-2.778744182497905
-2.772589710332896
-2.772589710332896
-2.747971821672884
-2.797207598992907
-2.778744182497905
-2.760280766002876
-2.754126293837894
-2.760280766002876
-2.655654739197877
-2.747971821672884
-2.747971821672884
-2.5941100175478624
-2.1263701330077875
-2.747971821672884
-2.723353933012873
-2.735662877342893
-2.7171994608478913
-2.711044988682881
-3.1357035680679433
-3.2403295948729705
-2.877215737137895
-2.797207598992907
-2.8156710154879088
-2.944914930952919
-2.8279799598179
-2.7910531268278973
-2.7910531268278973
-2.8033620711578893
-2.8095165433228986
-2.7910531268278973
-2.7848986546628876
-2.7910531268278973
-2.7910531268278973
-2.766435238167886
-2.760280766002876
-2.8095165433228986
-2.6925815721878803
-2.624882378372884
-2.760280766002876
-2.7418173495078744
-2.772589710332896
-2.747971821672884
-2.754126293837894
-2.7848986546628876
-2.766435238167886
-2.778744182497905
-2.760280766002876
-2.766435238167886
-2.7171994608478913
-2.55102871239285
-2.3171587701228398
-2.187914854657802
-2.1202156608428053
-2.0463619948628
-1.9601993845527748
-1.9232725515627715
-2.0217441062027888
-2.1694514381628007
-2.261768520637808
-2.360240075277825
-2.286386409297819
-2.224841687647805
-2.187914854657802
-2.1571424938328088
-2.1694514381628007
-2.1632969659978185
-2.224841687647805
-2.1571424938328088
-2.150988021667799
-2.1263701330077875
-2.1079067165127863
-2.1325246051727973
-2.114061188677796
-2.114061188677796
-2.2063782711528033
-2.0709798835227837
-2.298695353627811
-2.4156303247628297
-2.3356221866178415
-2.286386409297819
-2.329467714452832
-2.403321380432838
-2.606418961877855
-2.618727906207874
-2.5941100175478624
-2.618727906207874
-2.7171994608478913
-2.68642710002287
-2.680272627857888
-2.6433457948678853
-2.6433457948678853
-2.587955545382853
-2.5387197680628577
-2.4525571577528327
-2.477175046412844
-2.391012436102846
-2.3356221866178415
-2.2925408814628288
-2.2433051041428067
-2.2371506319778245
-2.2063782711528033
-2.212532743317813
-2.255614048472826
-2.2679229928028177
-2.286386409297819
-2.329467714452832
-2.3663945474428347
-2.323313242287822
-2.4402482134228407
-2.4156303247628297
-2.403321380432838
-2.4587116299178424
-2.4156303247628297
-2.3848579639378364
-2.3171587701228398
-2.2740774649678275
-2.2740774649678275
-2.2740774649678275
-2.2925408814628288
-2.360240075277825
-2.347931130947833
-2.2679229928028177
-2.3356221866178415
-2.3356221866178415
-2.360240075277825
-2.3356221866178415
-2.2371506319778245
-2.224841687647805
-2.3110042979578305
-2.2802319371328093
-2.286386409297819
-2.224841687647805
-2.261768520637808
-2.150988021667799
-1.8001831082627426
-2.298695353627811
-2.409475852597848
-2.8033620711578893
-2.483329518577854
-2.446402685587851
-2.4156303247628297
-2.3540856031128428
-2.360240075277825
-2.4217847969278394
-2.3171587701228398
-2.1694514381628007
-1.9478904402227823
-1.7324839144477464
-1.578622110322725
-1.5970855268177266
-1.9171180793977614
-1.830955469087764
-2.114061188677796
-2.9264515144579173
-3.800386561888053
-3.8188499783830547
-3.7449963124030474
-3.6957605350830534
-3.658833702093051
-3.5849800361130173
-3.554207675288024
-3.548053203123014
-3.4803540093080176
-3.4311182319879947
-3.381882454668
-3.4434271763180146
-3.394191398997992
-3.3511100938430074
-3.363419038172999
-3.363419038172999
-3.338801149512988
-3.3203377330179857
-3.301874316522985
-3.289565372192993
-3.277256427862973
-3.2341751227079882
-3.2341751227079882
-3.24648406703798
-3.184939345387966
-3.2711019556979917
-3.2218661783779687
-3.2095572340479768
-3.2034027618829675
-3.178784873222984
-3.1972482897179852
-3.178784873222984
-3.1664759288929645
-3.1664759288929645
-3.1726304010579747
-3.154166984562973
-3.1357035680679433
-3.0864677907479487
-3.0987767350779407
-3.191093817552976
-3.1357035680679433
-3.1295490959029335
-3.1110856794079322
-2.9387604587879093
-3.117240151572942
-3.2034027618829675
-3.1295490959029335
-3.0987767350779407
-3.0864677907479487
-3.080313318582939
-3.0680043742529195
-3.049540957757918
-3.006459652602933
-2.858752320642893
-2.680272627857888
-2.8402889041478923
-2.9633783474479203
-2.9818417639429216
-2.994150708272913
-2.994150708272913
-3.006459652602933
-3.474199537143008
-3.4557361206480066
-3.1110856794079322
-3.055695429922928
-3.0310775412629165
-3.0310775412629165
-3.043386485592936
-2.9879962361079313
-2.9879962361079313
-3.018768596932925
-2.9879962361079313
-2.96953281961293
-2.975687291777912
-2.96953281961293
-2.975687291777912
-2.9572238752829105
-2.96953281961293
-3.0003051804379233
-2.9818417639429216
-2.778744182497905
-2.4648661020828517
-2.8218254876528905
-2.932605986622927
-2.9387604587879093
-2.96953281961293
-2.9510694031179288
-2.9633783474479203
-2.96953281961293
-2.975687291777912
-2.9572238752829105
-2.9510694031179288
-2.96953281961293
-2.9510694031179288
-3.080313318582939
-3.511126370133011
-3.160321456727955
-2.901833625797906
-2.5387197680628577
-2.1632969659978185
-1.8371099412527454
-1.5601586938277234
-1.0062561989776508
-1.504768444342719
-1.289361918567683
-1.104727753617668
-0.9324025329976448
-0.7539228402126119
-1.000101726812641
-1.326288751557686
-1.1231911701126696
-1.1231911701126696
-1.11088222578265
-1.1170366979476598
-1.1478090587726528
-1.184735891762656
-1.25243508557768
-1.4309147783627132
-1.5416952773327222
-1.6032399989827364
-1.6524757763027311
-1.6586302484677409
-1.6340123598077294
-1.6401668319727392
-1.6524757763027311
-1.677093664962742
-1.6586302484677409
-1.689402609292734
-1.7632562752727399
-1.861727829912757
-1.9601993845527748
-2.064825411357801
-2.1632969659978185
-2.194069326822812
-2.0709798835227837
-1.855573357747775
-1.6524757763027311
-1.5293863330027024
-1.578622110322725
-1.4616871391877062
-1.363215584547689
-1.3570611123826792
-1.3385976958876775
-1.473996083517698
-1.5293863330027024
-1.6217034154777374
-1.7386383866127564
-1.7940286360977609
-1.590931054652717
-1.5170773886727107
-1.473996083517698
-1.4309147783627132
-1.4555326670226965
-1.3816790010426905
-1.3324432237226955
-1.3078253350626845
-1.3816790010426905
-1.4493781948577145
-1.4986139721777092
-1.5416952773327222
-1.590931054652717
-1.6340123598077294
-1.689402609292734
-1.4493781948577145
-1.7447928587777384
-1.6463213041377214
-1.7694107474377496
-2.114061188677796
-2.3356221866178415
-2.261768520637808
-2.0463619948628
-1.8801912464077586
-1.9294270237277809
-1.861727829912757
-1.89865466290276
-2.0340530505327803
-2.015589634037779
-1.9294270237277809
-1.91096360723278
-1.89865466290276
-2.0955977721827947
-2.150988021667799
-2.0463619948628
-1.9294270237277809
-1.8494188855827651
-1.7817196917677414
-1.7694107474377496
-1.7755652196027594
-1.830955469087764
-1.8124920525927626
-1.8001831082627426
-1.8248009969227539
-1.861727829912757
-1.8740367742427766
-2.009435161872797
-2.089443300017785
-2.114061188677796
-1.972508328882766
-1.8186465247577446
-1.689402609292734
-1.7140204979527454
-1.6709391927977324
-1.6217034154777374
-1.757101803107758
-2.249459576307816
-2.96953281961293
-3.301874316522985
-3.3511100938430074
-3.326492205182996
-3.25263853920299
-3.25263853920299
-3.3326466773480057
-3.492662953638009
-3.535744258793022
-3.529589786628012
-3.5911345082780266
-3.560362147453033
-3.634215813433039
-3.701915007248036
-3.7449963124030474
-3.7757686732280415
-3.812695506218072
-3.9296304773530633
-3.701915007248036
-3.191093817552976
-3.7634597288980496
-3.861931283538067
-4.274280918593137
-3.849622339208075
-3.6711426464230414
-3.6772971185880525
-3.6896060629180436
-3.6834515907530343
-3.615752396938038
-3.5911345082780266
-3.6834515907530343
-3.6957605350830534
-3.7511507845680576
-3.6711426464230414
-3.652679229928041
-3.609597924773028
-3.5665166196180156
-3.511126370133011
-3.504971897968029
-3.474199537143008
-3.449581648482997
-3.4434271763180146
-3.4434271763180146
-3.449581648482997
-3.4188092876580036
-3.326492205182996
-3.369573510338009
-3.344955621677997
-3.338801149512988
-3.3203377330179857
-3.3141832608529764
-3.289565372192993
-3.3326466773480057
-3.375727982502991
-3.504971897968029
-3.511126370133011
-3.5234353144630304
-3.504971897968029
-3.492662953638009
-3.5234353144630304
-3.578825563948035
-3.492662953638009
-3.474199537143008
-3.468045064977998
-3.468045064977998
-3.468045064977998
-3.4311182319879947
-3.424963759823013
-3.375727982502991
-3.381882454668
-3.424963759823013
-3.381882454668
-3.3511100938430074
-3.2834109000279827
-3.381882454668
-3.344955621677997
-3.3141832608529764
-3.308028788687994
-3.0987767350779407
-2.507947407237865
-2.0278985783677985
-1.8063375804277528
-1.6586302484677409
-1.9786628010477763
-2.3356221866178415
-2.286386409297819
-2.304849825792821
-2.3540856031128428
-2.4279392690928487
-2.5141018794028467
-2.6987360443528896
-2.944914930952919
-3.2711019556979917
-3.535744258793022
-3.4311182319879947
-3.2218661783779687
-3.074158846417929
-2.895679153632896
-2.7910531268278973
-2.667963683527869
-2.4648661020828517
-2.3540856031128428
-2.323313242287822
-2.323313242287822
-2.298695353627811
-2.347931130947833
-2.3848579639378364
-2.403321380432838
-2.378703491772827
-2.507947407237865
-2.495638462907845
-2.483329518577854
-2.5941100175478624
-2.766435238167886
-2.9879962361079313
-3.1233946237379517
-2.667963683527869
-2.858752320642893
-3.018768596932925
-3.018768596932925
-3.049540957757918
-3.049540957757918
-2.8649067928079033
-2.711044988682881
-2.581801073217871
-2.4648661020828517
-2.3971669082678284
-2.4402482134228407
-2.471020574247862
-2.5141018794028467
-2.9202970422929075
-2.932605986622927
-2.9202970422929075
-3.0126141247679152
-3.308028788687994
-4.360443528903135
-5.806744487678346
-7.431525139238558
-7.905419495943644
-8.133134966048672
-7.6038503598585825
-6.625289285623448
-6.299102260878403
-5.505175351593311
-4.760484219628186
-4.206581724778113
-3.800386561888053
-3.812695506218072
-4.138882530963118
-3.701915007248036
-3.517280842298021
-3.437272704153005
-3.375727982502991
-3.3511100938430074
-3.338801149512988
-3.2957198443579747
-3.289565372192993
-3.258793011367972
-3.511126370133011
-4.834337885608192
-6.674525062943471
-8.108517077388658
-8.631647211413739
-8.871671625848787
-8.939370819663782
-8.970143180488776
-8.957834236158785
-8.914752931003772
-8.853208209353758
-8.77320007120877
-8.668574044403742
-8.600874850588747
-8.508557768113711
-8.403931741308712
-8.348541491823708
-8.274687825843701
-8.213143104193687
-8.151598382543673
-8.08389918872865
-8.022354467078664
-7.948500801098657
-7.874647135118623
-7.806947941303627
-7.751557691818622
-7.690012970168608
-7.622313776353584
-7.57307799903359
-7.5299966938785765
-7.4438340835685795
-7.363825945423563
-7.289972279443557
-7.234582029958553
-7.16688283614353
-7.093029170163524
-7.0253299763485275
-6.957630782533504
-6.865313700058495
-6.797614506243471
-6.748378728923477
-6.692988479438472
-6.625289285623448
-6.582207980468463
-6.53912667531345
-6.489890897993428
-6.422191704178433
-6.348338038198426
-6.2929477887134215
-6.2621754278884
-6.206785178403396
-6.1390859845884
-6.083695735103367
-6.0529233742783735
-6.003687596958379
-5.948297347473375
-5.886752625823362
-5.819053432008337
-5.794435543348353
-5.75135423819334
-5.671346100048325
-5.622110322728302
-5.5605656010783155
-5.492866407263293
-5.437476157778287
-5.406703796953294
-5.412858269118276
-5.406703796953294
-5.388240380458292
-5.357468019633272
-5.34515907530328
-5.320541186643268
-5.3143867144782595
-5.308232242313277
-5.308232242313277
-5.289768825818275
-5.265150937158264
-5.252841992828272
-5.222069632003251
-5.1851427990132475
-5.160524910353237
-5.135907021693253
-5.09898018870325
-5.062053355713248
-5.037435467053236
-5.006663106228215
-4.9758907454032215
-4.951272856743211
-4.920500495918218
-4.883573662928215
-4.858955774268203
-4.834337885608192
-4.8035655247832
-4.778947636123188
-4.748175275298194
-4.71124844230819
-4.68663055364818
-4.662012664988168
-4.631240304163176
-4.600467943338183
-4.575850054678171
-4.54507769385315
-4.514305333028156
-4.477378500038154
-4.452760611378142
-4.465069555708162
-4.385061417563146
-4.360443528903135
-4.360443528903135
-4.298898807253121
-4.268126446428129
-4.2311996134381245
-4.188118308283112
-4.126573586633098
-4.028102031993082
-3.8188499783830547
-3.511126370133011
-3.308028788687994
-3.0003051804379233
-2.618727906207874
-2.3848579639378364
-2.2433051041428067
-2.1632969659978185
-1.9294270237277809
-1.8678823020777668
-1.8371099412527454
-1.7755652196027594
-1.7447928587777384
-1.7694107474377496
-1.7386383866127564
-1.7140204979527454
-1.677093664962742
-1.7017115536227536
-1.7017115536227536
-1.689402609292734
-1.677093664962742
-1.6709391927977324
-1.6709391927977324
-1.6647847206327224
-1.6340123598077294
-1.6401668319727392
-1.5170773886727107
-1.4309147783627132
-1.4801505556827075
-1.4062968897027015
-1.3324432237226955
-1.3078253350626845
-1.4062968897027015
-1.5601586938277234
-1.6463213041377214
-1.7078660257877356
-1.6955570814577436
-1.6709391927977324
-1.683248137127724
-1.683248137127724
-1.6217034154777374
-1.4616871391877062
-1.6093944711477182
-1.6586302484677409
-1.6709391927977324
-1.6955570814577436
-1.7140204979527454
-1.7078660257877356
-1.7140204979527454
-1.7324839144477464
-1.7201749701177547
-1.7078660257877356
-1.689402609292734
-1.5724676381577152
-1.8001831082627426
-2.249459576307816
-1.9601993845527748
-1.8124920525927626
-1.7755652196027594
-1.7817196917677414
-1.7694107474377496
-1.7694107474377496
-1.7755652196027594
-1.7694107474377496
-1.7940286360977609
-1.8001831082627426
-1.8001831082627426
-1.7817196917677414
-1.7694107474377496
-1.7940286360977609
-1.8678823020777668
-1.7755652196027594
-1.8248009969227539
-1.8432644134177558
-1.8432644134177558
-1.861727829912757
-1.8740367742427766
-1.9048091350677696
-1.9417359680577726
-1.990971745377768
-2.0278985783677985
-2.04020752269779
-2.1017522443478045
-2.1694514381628007
-2.360240075277825
-2.4402482134228407
-2.544874240227868
-2.735662877342893
-2.9818417639429216
-3.092622262912931
-3.1233946237379517
-3.117240151572942
-3.2095572340479768
-3.1972482897179852
-3.0864677907479487
-3.141858040232953
-3.38803692683301
-3.3511100938430074
-3.529589786628012
-3.7757686732280415
-3.874240227868059
-3.849622339208075
-3.9419394216830828
-3.8311589227130742
-3.726532895908047
-3.4557361206480066
-3.2034027618829675
-2.711044988682881
-2.372549019607845
-2.2740774649678275
-1.9171180793977614
-1.5416952773327222
-1.178581419597674
-1.6093944711477182
-1.4616871391877062
-1.2832074464026733
-1.1601180031026725
-1.141654586607671
-1.1355001144426613
-1.4986139721777092
-1.1662724752676545
-1.0862643371226666
-1.289361918567683
-1.3755245288776807
-1.326288751557686
-1.25243508557768
-1.3201342793926762
-1.3816790010426905
-1.4432237226927047
-1.4863050278477177
-1.5170773886727107
-1.5355408051677124
-1.5232318608377204
-1.504768444342719
-1.1908903639276658
-1.5601586938277234
-1.6586302484677409
-1.4432237226927047
-1.3324432237226955
-1.2339716690826785
-1.0985732814526583
-1.3139798072276945
-1.326288751557686
-1.3570611123826792
-1.3755245288776807
-1.4247603061977032
-1.4432237226927047
-1.3509066402176972
-1.25243508557768
-1.1724269474326645
-1.073955392792647
-0.9939472546476313
-0.9077846443376336
-0.9324025329976448
-1.1601180031026725
-0.9939472546476313
-0.8585488670176111
-0.8154675618626261
-0.7970041453676248
-0.8647033391826209
-0.8093130896976164
-0.7846952010376053
-0.7846952010376053
-0.7723862567076134
-0.7662317845426038
-0.7908496732026148
-0.8277765061926179
-0.8647033391826209
-0.8216220340276081
-0.9077846443376336
-0.8831667556776225
-0.9262480608326351
-0.9385570051626267
-1.0185651433076426
-1.0370285598026439
-0.9077846443376336
-1.0370285598026439
-1.11088222578265
-1.0185651433076426
-1.000101726812641
-0.9754838381526297
-0.9754838381526297
-1.0308740876376343
-1.0801098649576568
-1.0801098649576568
-1.073955392792647
-1.0678009206276373
-1.0862643371226666
-1.0862643371226666
-1.0616464484626553
-1.0678009206276373
-1.1355001144426613
-1.11088222578265
-1.0616464484626553
-1.0616464484626553
-1.0616464484626553
-1.0062561989776508
-1.1231911701126696
-1.0616464484626553
-1.073955392792647
-1.0985732814526583
-1.0616464484626553
-1.0616464484626553
-1.0862643371226666
-1.0985732814526583
-0.901630172172624
-0.6308333969125834
-0.9200935886676254
-1.0062561989776508
-1.0124106711426328
-0.9262480608326351
-1.0616464484626553
-1.0247196154726523
-1.289361918567683
-1.4863050278477177
-1.1170366979476598
-1.0185651433076426
-1.0124106711426328
-1.0308740876376343
-1.0124106711426328
-0.9816383103176396
-0.9200935886676254
-0.9385570051626267
-0.8277765061926179
-0.7108415350575992
-0.7231504793875909
-0.6800691742326058
-0.7354594237176103
-0.8770122835126126
-0.9693293659876481
-1.0801098649576568
-1.0616464484626553
-1.0616464484626553
-0.9324025329976448
-0.6739147020675963
-1.0862643371226666
-1.3201342793926762
-1.9294270237277809
-1.7201749701177547
-1.510922916507701
-1.5170773886727107
-1.4986139721777092
-1.4863050278477177
-1.4863050278477177
-1.4493781948577145
-1.4309147783627132
-1.400142417537692
-1.400142417537692
-1.4432237226927047
-1.4801505556827075
-1.504768444342719
-1.4616871391877062
-1.3755245288776807
-1.2093537804226673
-1.178581419597674
-1.104727753617668
-1.0062561989776508
-0.9262480608326351
-0.901630172172624
-0.8647033391826209
-0.8154675618626261
-0.8400854505226096
-0.8708578113476306
-0.9077846443376336
-0.8523943948526291
-0.7970041453676248
-0.8523943948526291
-1.0493375041326358
-0.9570204216576284
-0.901630172172624
-0.895475700007614
-0.9139391165026156
-0.9324025329976448
-0.9077846443376336
-0.9631748938226381
-1.0370285598026439
-1.0985732814526583
-1.2031993082576575
-1.2031993082576575
-1.1908903639276658
-1.178581419597674
-1.178581419597674
-1.221662724752659
-1.184735891762656
-1.1478090587726528
-1.2585895577426898
-1.2585895577426898
-1.2770529742376913
-1.3324432237226955
-1.363215584547689
-1.3509066402176972
-1.3078253350626845
-1.25243508557768
-1.3016708628976748
-1.3201342793926762
-1.3693700567126987
-1.5540042216627135
-1.4432237226927047
-1.6586302484677409
-1.7447928587777384
-1.5847765824877347
-1.615548943312728
-1.590931054652717
-1.5970855268177266
-1.5970855268177266
-1.6340123598077294
-1.6524757763027311
-1.6524757763027311
-1.6586302484677409
-1.6278578876427194
-1.7263294422827367
-1.7755652196027594
-1.7940286360977609
-1.8186465247577446
-1.8432644134177558
-1.8432644134177558
-1.8186465247577446
-1.7447928587777384
-1.615548943312728
-1.4986139721777092
-1.437069250527695
-1.4062968897027015
-1.400142417537692
-1.467841611352716
-1.615548943312728
-1.7263294422827367
-1.9048091350677696
-2.0955977721827947
-2.2063782711528033
-2.212532743317813
-2.2740774649678275
-2.347931130947833
-2.446402685587851
-2.4894839907428636
-2.5941100175478624
-2.704890516517872
-2.7848986546628876
-2.907988097962916
-3.0864677907479487
-3.049540957757918
-3.1357035680679433
-3.184939345387966
-3.2218661783779687
-3.184939345387966
-3.1233946237379517
-3.141858040232953
-3.191093817552976
-3.24648406703798
-3.394191398997992
-3.400345871163002
-3.301874316522985
-3.2034027618829675
-3.2218661783779687
-3.25263853920299
-3.1480125123979352
-2.858752320642893
-2.4156303247628297
-2.96953281961293
-2.944914930952919
-2.907988097962916
-2.8218254876528905
-2.7848986546628876
-2.8033620711578893
-3.289565372192993
-3.0987767350779407
-2.8464433763129016
-2.8156710154879088
-2.8218254876528905
-2.901833625797906
-2.9202970422929075
-2.932605986622927
-2.883370209302905
-2.8464433763129016
-2.8464433763129016
-2.907988097962916
-2.9633783474479203
-2.96953281961293
-3.043386485592936
-3.1480125123979352
-3.1357035680679433
-3.1972482897179852
-3.381882454668
-3.4311182319879947
-3.5911345082780266
-3.7449963124030474
-3.75730525673304
-3.7449963124030474
-3.664988174258033
-3.658833702093051
-3.615752396938038
-3.529589786628012
-3.4434271763180146
-3.4311182319879947
-3.381882454668
-3.344955621677997
-3.652679229928041
-3.720378423743037
-3.701915007248036
-3.7449963124030474
-3.825004450548064
-3.7942320897230712
-3.720378423743037
-3.6896060629180436
-3.652679229928041
-3.548053203123014
-3.4188092876580036
-3.2711019556979917
-3.191093817552976
-3.178784873222984
-3.264947483532982
-3.3511100938430074
-3.7634597288980496
-3.9973296711680866
-4.385061417563146
-4.495841916533155
-4.668167137153178
-4.8220289412782
-4.9881996897332135
-5.062053355713248
-4.951272856743211
-4.951272856743211
-4.858955774268203
-4.606622415503164
-4.54507769385315
-4.261971974263118
-4.089646753643096
-3.972711782508076
-3.812695506218072
-3.640370285598049
-3.6280613412680296
-3.6834515907530343
-3.7449963124030474
-3.732687368073057
-3.664988174258033
-3.615752396938038
-3.5849800361130173
-3.4865084814730274
-3.548053203123014
-3.5234353144630304
-3.474199537143008
-3.449581648482997
-3.406500343328012
-3.406500343328012
-3.406500343328012
-3.381882454668
-3.369573510338009
-3.363419038172999
-3.369573510338009
-3.3511100938430074
-3.3511100938430074
-3.277256427862973
-3.338801149512988
-3.3511100938430074
-3.3203377330179857
-3.338801149512988
-3.4188092876580036
-3.4803540093080176
-3.535744258793022
-3.7080694794130453
-3.664988174258033
-3.468045064977998
-3.38803692683301
-3.338801149512988
-3.277256427862973
-3.215711706212987
-3.215711706212987
-3.2957198443579747
-3.2341751227079882
-3.215711706212987
-3.2034027618829675
-3.1972482897179852
-3.1726304010579747
-3.1664759288929645
-3.160321456727955
-3.191093817552976
-3.160321456727955
-3.154166984562973
-2.975687291777912
-2.631036850537866
-2.9572238752829105
-3.1110856794079322
-3.5849800361130173
-3.578825563948035
-3.264947483532982
-3.2095572340479768
-3.2095572340479768
-3.215711706212987
-3.2034027618829675
-3.258793011367972
-4.366598001068144
-6.200630706238385
-7.154573891813537
-7.905419495943644
-8.059281300068665
-8.053126827903656
-8.188525215533677
-8.188525215533677
-8.163907326873666
-8.139289438213682
-8.090053660893659
-8.046972355738644
-7.9792731619236505
-7.936191856768637
-7.874647135118623
-7.806947941303627
-7.7392487474886025
-7.671549553673606
-7.597695887693601
-7.5299966938785765
-7.449988555733561
-7.382289361918565
-7.314590168103541
-7.253045446453554
-7.191500724803541
-7.123801530988516
-7.05610233717352
-6.994557615523506
-6.939167366038501
-6.877622644388487
-6.816077922738472
-6.779151089748471
-6.748378728923477
-6.612980341293456
-6.551435619643442
-6.514508786653439
-6.477581953663436
-6.428346176343441
-6.379110399023419
-6.336029093868406
-6.311411205208422
-6.2498664835584075
-6.182167289743385
-6.120622568093398
-6.059077846443384
-5.99137865262836
-5.948297347473375
-5.899061570153352
-5.782126599018334
-5.6467282113883135
-5.566720073243298
-5.529793240253295
-5.468248518603279
-5.375931436128273
-5.320541186643268
-5.2405330484982535
-5.1851427990132475
-5.092825716538241
-5.031280994888226
-4.926654968083227
-4.7666386917931955
-4.563541110348179
-4.5573866381831705
-4.575850054678171
-4.6189313598331845
-4.532768749523157
-4.465069555708162
-4.409679306223158
-4.42198825055315
-4.446606139213161
-4.348134584573144
-4.17580936395312
-4.015793087663089
-3.9050125886930798
-3.8865491721980785
-4.009638615498079
-3.972711782508076
-4.015793087663089
-4.083492281478085
-4.151191475293109
-4.0404109763231
-3.923476005188081
-3.825004450548064
-3.855776811373057
-3.9111670608580615
-3.7942320897230712
-3.868085755703077
-4.083492281478085
-4.120419114468116
-4.065028864983084
-4.206581724778113
-3.8434678670430653
-3.6896060629180436
-3.535744258793022
-3.1357035680679433
-3.154166984562973
-3.0680043742529195
-2.760280766002876
-2.4587116299178424
-2.347931130947833
-2.212532743317813
-2.1263701330077875
-2.083288827852803
-2.200223798987821
-2.1448335495027893
-2.0709798835227837
-2.0340530505327803
-2.009435161872797
-2.009435161872797
-1.9786628010477763
-1.7694107474377496
-1.510922916507701
-1.8124920525927626
-1.8863457185727683
-1.9294270237277809
-1.9232725515627715
-1.9232725515627715
-1.9294270237277809
-2.4279392690928487
-2.4217847969278394
-2.064825411357801
-2.003280689707787
-1.9848172732127856
-1.966353856717784
-1.966353856717784
-1.954044912387765
-1.9232725515627715
-1.9048091350677696
-1.830955469087764
-1.757101803107758
-1.6955570814577436
-1.615548943312728
-1.8186465247577446
-1.89865466290276
-1.990971745377768
-2.089443300017785
-2.0463619948628
-2.0340530505327803
-2.0586709391927913
-2.0586709391927913
-2.0709798835227837
-2.052516467027782
-2.077134355687793
-2.1202156608428053
-2.1079067165127863
-2.0955977721827947
-2.2186872154828228
-2.194069326822812
-2.1817603824928202
-2.194069326822812
-2.2186872154828228
-2.212532743317813
-2.212532743317813
-2.224841687647805
-2.2433051041428067
-2.224841687647805
-2.2063782711528033
-2.212532743317813
-2.1448335495027893
-2.04020752269779
-2.1571424938328088
-2.1632969659978185
-2.1325246051727973
-2.138679077337807
-2.150988021667799
-2.150988021667799
-2.1756059103278105
-2.1817603824928202
-2.1694514381628007
-2.1694514381628007
-2.1571424938328088
-2.1571424938328088
-2.138679077337807
-2.114061188677796
-2.114061188677796
-2.2063782711528033
-2.261768520637808
-2.138679077337807
-2.138679077337807
-2.138679077337807
-2.1263701330077875
-2.0955977721827947
-2.1571424938328088
-2.150988021667799
-2.1632969659978185
-2.194069326822812
-2.200223798987821
-2.2371506319778245
-2.2925408814628288
-2.2802319371328093
-2.323313242287822
-2.298695353627811
-2.2925408814628288
-2.3356221866178415
-2.526410823732866
-3.7696142010630598
-5.548256656748296
-5.837516848503338
-5.812898959843354
-5.775972126853325
-5.726736349533329
-5.677500572213335
-5.628264794893312
-5.585183489738299
-5.548256656748296
-5.5113298237582935
-5.462094046438297
-5.431321685613277
-5.388240380458292
-5.35131354746829
-5.302077770148267
-5.265150937158264
-5.234378576333271
-5.197451743343268
-5.166679382518247
-5.123598077363234
-5.092825716538241
-5.062053355713248
-5.018972050558236
-4.9881996897332135
-4.951272856743211
-4.926654968083227
-4.8897281350932245
-4.865110246433213
-4.834337885608192
-4.8035655247832
-4.7666386917931955
-4.742020803133185
-4.71124844230819
-4.69278502581319
-4.649703720658177
-4.625085831998166
-4.606622415503164
-4.594313471173173
-4.532768749523157
-4.495841916533155
-4.489687444368147
-4.489687444368147
-4.458915083543152
-4.42198825055315
-4.403524834058148
-4.378906945398136
-4.354289056738125
-4.329671168078142
-4.305053279418131
-4.280435390758119
-4.261971974263118
-4.2311996134381245
-4.212736196943123
-4.194272780448122
-4.151191475293109
-4.132728058798108
-4.0958012258081045
-4.077337809313103
-4.052719920653092
-4.028102031993082
-3.837313394878056
-3.6957605350830534
-3.6772971185880525
-3.701915007248036
-3.7449963124030474
-3.7511507845680576
-3.7757686732280415
-3.7942320897230712
-3.7696142010630598
-3.788077617558061
-3.8188499783830547
-3.806541034053063
-3.800386561888053
-3.781923145393051
-3.75730525673304
-3.7449963124030474
-3.7511507845680576
-3.7942320897230712
-3.8434678670430653
-3.8311589227130742
-3.8188499783830547
-3.806541034053063
-3.7942320897230712
-3.7757686732280415
-3.7511507845680576
-3.7449963124030474
-3.738841840238039
-3.732687368073057
-3.7080694794130453
-3.6957605350830534
-3.6711426464230414
-3.6465247577630313
-3.6465247577630313
-3.634215813433039
-3.609597924773028
-3.5911345082780266
-3.578825563948035
-3.5665166196180156
-3.5665166196180156
-3.560362147453033
-3.554207675288024
-3.535744258793022
-3.535744258793022
-3.529589786628012
-3.5234353144630304
-3.517280842298021
-3.511126370133011
-3.504971897968029
-3.492662953638009
-3.4865084814730274
-3.474199537143008
-3.474199537143008
-3.461890592813016
-3.449581648482997
-3.4434271763180146
-3.4434271763180146
-3.437272704153005
-3.4188092876580036
-3.4188092876580036
-3.38803692683301
-3.381882454668
-3.375727982502991
-3.375727982502991
-3.363419038172999
-3.369573510338009
-3.357264566007989
-3.3326466773480057
-3.2957198443579747
-3.2280206505429785
-3.154166984562973
-3.0680043742529195
-2.9387604587879093
-2.8156710154879088
-2.760280766002876
-2.907988097962916
-3.1110856794079322
-3.2834109000279827
-3.3326466773480057
-3.2957198443579747
-3.277256427862973
-3.264947483532982
-3.264947483532982
-3.264947483532982
-3.258793011367972
-3.25263853920299
-3.24648406703798
-3.2341751227079882
-3.2280206505429785
-3.2280206505429785
-3.2280206505429785
-3.2218661783779687
-3.2218661783779687
-3.191093817552976
-3.178784873222984
-3.178784873222984
-3.178784873222984
-3.1664759288929645
-3.1664759288929645
-3.178784873222984
-3.2095572340479768
-3.154166984562973
-3.1357035680679433
-3.1357035680679433
-3.1357035680679433
-3.1295490959029335
-3.117240151572942
-3.1233946237379517
-3.141858040232953
-3.1295490959029335
-3.1110856794079322
-3.0987767350779407
-3.092622262912931
-3.0864677907479487
-3.0680043742529195
-3.0618499020879373
-3.0618499020879373
-3.049540957757918
-3.043386485592936
-3.0372320134279267
-3.0249230690979347
-3.018768596932925
-3.006459652602933
-3.006459652602933
-2.9879962361079313
-2.975687291777912
-2.975687291777912
-2.96953281961293
-2.9633783474479203
-2.9510694031179288
-2.9387604587879093
-2.907988097962916
-2.9141425701278982
-2.907988097962916
-2.9141425701278982
-2.9202970422929075
-2.9141425701278982
-2.9264515144579173
-2.932605986622927
-2.944914930952919
-2.9510694031179288
-2.9633783474479203
-2.975687291777912
-2.975687291777912
-2.994150708272913
-3.0249230690979347
-3.0372320134279267
-3.0249230690979347
-3.0310775412629165
-3.0249230690979347
-3.0249230690979347
-3.018768596932925
-3.0249230690979347
-3.018768596932925
-3.0126141247679152
-3.018768596932925
-3.0126141247679152
-3.0126141247679152
-3.0003051804379233
-3.006459652602933
-3.006459652602933
-2.994150708272913
-2.9879962361079313
-3.0003051804379233
-2.994150708272913
-2.994150708272913
-2.9879962361079313
-2.975687291777912
-2.9879962361079313
-2.975687291777912
-2.9818417639429216
-2.975687291777912
-2.975687291777912
-2.96953281961293
-2.96953281961293
-2.96953281961293
-2.9633783474479203
-2.9633783474479203
-2.9572238752829105
-2.9633783474479203
-2.9572238752829105
-2.9510694031179288
-2.9572238752829105
-2.9510694031179288
-2.9510694031179288
-2.944914930952919
-2.9387604587879093
-2.9387604587879093
-2.9387604587879093
-2.932605986622927
-2.932605986622927
-2.932605986622927
-2.9202970422929075
-2.9141425701278982
-2.9202970422929075
-2.9264515144579173
-2.9141425701278982
-2.9141425701278982
-2.9141425701278982
-2.9141425701278982
-2.9141425701278982
-2.901833625797906
-2.9141425701278982
-2.907988097962916
-2.901833625797906
-2.907988097962916
-2.901833625797906
-2.895679153632896
-2.895679153632896
-2.901833625797906
-2.895679153632896
-2.8895246814679143
-2.895679153632896
-2.8895246814679143
-2.8895246814679143
-2.8895246814679143
-2.883370209302905
-2.8895246814679143
-2.8895246814679143
-2.883370209302905
-2.8895246814679143
-2.895679153632896
-2.932605986622927
-2.8649067928079033
-2.8649067928079033
-2.877215737137895
-2.907988097962916
-2.901833625797906
-2.895679153632896
-2.883370209302905
-2.877215737137895
-2.877215737137895
-2.877215737137895
-2.877215737137895
-2.877215737137895
-2.877215737137895
-2.871061264972913
-2.871061264972913
-2.871061264972913
-2.8649067928079033
-2.871061264972913
-2.8649067928079033
-2.877215737137895
-2.8649067928079033
-2.8649067928079033
-2.8464433763129016
-2.8464433763129016
-2.8464433763129016
-2.83413443198291
-2.8218254876528905
-2.8033620711578893
-2.760280766002876
-2.7418173495078744
-2.68642710002287
-2.606418961877855
-2.563337656722869
-2.4156303247628297
-2.2063782711528033
-1.9786628010477763
-1.8432644134177558
-1.7632562752727399
-2.0709798835227837
-2.754126293837894
-2.9818417639429216
-2.9818417639429216
-2.975687291777912
-2.9633783474479203
-2.96953281961293
-2.9633783474479203
-2.9572238752829105
-2.9572238752829105
-2.944914930952919
-2.9387604587879093
-2.944914930952919
-2.944914930952919
-2.9387604587879093
-2.9387604587879093
-2.932605986622927
-2.932605986622927
-2.932605986622927
-2.9387604587879093
-2.932605986622927
-2.8895246814679143
-2.8464433763129016
-2.7910531268278973
-2.7171994608478913
-2.587955545382853
-2.4587116299178424
-2.378703491772827
-2.4587116299178424
-2.68642710002287
-2.877215737137895
-2.994150708272913
-2.994150708272913
-2.9572238752829105
-2.932605986622927
-2.9264515144579173
-2.9264515144579173
-2.9264515144579173
-2.932605986622927
-2.944914930952919
-2.9510694031179288
-2.944914930952919
-2.932605986622927
-2.9264515144579173
-2.932605986622927
-2.9202970422929075
-2.9264515144579173
-2.9141425701278982
-2.901833625797906
-2.907988097962916
-2.901833625797906
-2.907988097962916
-2.901833625797906
-2.8895246814679143
-2.895679153632896
-2.8895246814679143
-2.8895246814679143
-2.877215737137895
-2.883370209302905
-2.883370209302905
-2.871061264972913
-2.871061264972913
-2.871061264972913
-2.8649067928079033
-2.858752320642893
-2.858752320642893
-2.8464433763129016
-2.83413443198291
-2.8095165433228986
-2.8218254876528905
-2.8156710154879088
-2.8218254876528905
-2.8156710154879088
-2.8156710154879088
-2.8095165433228986
-2.8095165433228986
-2.797207598992907
-2.797207598992907
-2.7910531268278973
-2.7848986546628876
-2.7848986546628876
-2.7848986546628876
-2.797207598992907
-2.8033620711578893
-2.754126293837894
-2.747971821672884
-2.747971821672884
-2.754126293837894
-2.754126293837894
-2.766435238167886
-2.760280766002876
-2.8033620711578893
-2.8095165433228986
-2.8095165433228986
-2.8218254876528905
-2.8402889041478923
-2.858752320642893
-2.8649067928079033
-2.8649067928079033
-2.877215737137895
-2.8895246814679143
-2.8895246814679143
-2.895679153632896
-2.8895246814679143
-2.901833625797906
-2.895679153632896
-2.895679153632896
-2.895679153632896
-2.895679153632896
-2.895679153632896
-2.895679153632896
-2.895679153632896
-2.895679153632896
-2.895679153632896
-2.8895246814679143
-2.8895246814679143
-2.8895246814679143
-2.883370209302905
-2.8895246814679143
-2.883370209302905
-2.8895246814679143
-2.877215737137895
-2.871061264972913
-2.877215737137895
-2.8649067928079033
-2.877215737137895
-2.871061264972913
-2.871061264972913
-2.871061264972913
-2.871061264972913
-2.8649067928079033
-2.8649067928079033
-2.858752320642893
-2.858752320642893
-2.8649067928079033
-2.858752320642893
-2.8649067928079033
-2.858752320642893
-2.8649067928079033
-2.858752320642893
-2.858752320642893
-2.858752320642893
-2.8525978484779113
-2.8464433763129016
-2.8525978484779113
-2.8525978484779113
-2.877215737137895
-2.8402889041478923
-2.83413443198291
-2.8402889041478923
-2.8525978484779113
-2.8402889041478923
-2.83413443198291
-2.8464433763129016
-2.883370209302905
-2.8649067928079033
-2.8525978484779113
-2.8525978484779113
-2.8525978484779113
-2.8525978484779113
-2.8464433763129016
-2.8525978484779113
-2.8464433763129016
-2.8402889041478923
-2.8402889041478923
-2.8402889041478923
-2.8402889041478923
-2.83413443198291
-2.83413443198291
-2.8464433763129016
-2.8464433763129016
-2.8402889041478923
-2.8402889041478923
-2.83413443198291
-2.8402889041478923
-2.8402889041478923
-2.8402889041478923
-2.8525978484779113
-2.8402889041478923
-2.83413443198291
-2.8279799598179
-2.83413443198291
-2.83413443198291
-2.83413443198291
-2.83413443198291
-2.8402889041478923
-2.83413443198291
-2.8156710154879088
-2.8095165433228986
-2.8095165433228986
-2.8156710154879088
-2.8279799598179
-2.8279799598179
-2.8402889041478923
-2.8402889041478923
-2.8402889041478923
-2.8464433763129016
-2.8525978484779113
-2.858752320642893
-2.8464433763129016
-2.8525978484779113
-2.858752320642893
-2.858752320642893
-2.8464433763129016
-2.871061264972913
-2.9141425701278982
-2.8402889041478923
-2.83413443198291
-2.8464433763129016
-2.8895246814679143
-2.877215737137895
-2.871061264972913
-2.8649067928079033
-2.8525978484779113
-2.8525978484779113
-2.8525978484779113
-2.858752320642893
-2.8525978484779113
-2.8279799598179
-2.7848986546628876
-2.729508405177883
-2.667963683527869
-2.581801073217871
-2.4587116299178424
-2.372549019607845
-2.3663945474428347
-2.5387197680628577
-2.723353933012873
-2.883370209302905
-2.9202970422929075
-2.883370209302905
-2.8525978484779113
-2.8402889041478923
-2.8525978484779113
-2.858752320642893
-2.8649067928079033
-2.8649067928079033
-2.858752320642893
-2.858752320642893
-2.8649067928079033
-2.8525978484779113
-2.8464433763129016
-2.8464433763129016
-2.8525978484779113
-2.8525978484779113
-2.8464433763129016
-2.8525978484779113
-2.8464433763129016
-2.871061264972913
-2.8464433763129016
-2.83413443198291
-2.8402889041478923
-2.83413443198291
-2.8279799598179
-2.8095165433228986
-2.754126293837894
-2.575646601052861
-2.2740774649678275
-2.064825411357801
-1.9786628010477763
-2.052516467027782
-2.1571424938328088
-2.052516467027782
-1.9355814958927628
-1.9601993845527748
-2.1694514381628007
-2.495638462907845
-2.612573434042864
-2.5941100175478624
-2.7171994608478913
-2.8402889041478923
-2.858752320642893
-2.883370209302905
-2.8895246814679143
-2.877215737137895
-2.883370209302905
-2.871061264972913
-2.8525978484779113
-2.8525978484779113
-2.8464433763129016
-2.8464433763129016
-2.83413443198291
-2.8279799598179
-2.8279799598179
-2.8156710154879088
-2.8156710154879088
-2.8156710154879088
-2.8095165433228986
-2.8279799598179
-2.8402889041478923
-2.8525978484779113
-2.858752320642893
-2.871061264972913
-2.883370209302905
-2.8464433763129016
-2.8649067928079033
-2.877215737137895
-2.871061264972913
-2.8464433763129016
-2.7848986546628876
-2.612573434042864
-2.329467714452832
-2.0340530505327803
-1.8494188855827651
-1.8001831082627426
-1.7817196917677414
-1.7632562752727399
-1.7940286360977609
-2.0955977721827947
-1.892500190737778
-1.7694107474377496
-1.6955570814577436
-1.7447928587777384
-1.7140204979527454
-1.6955570814577436
-1.689402609292734
-1.6955570814577436
-1.7263294422827367
-1.7263294422827367
-1.7263294422827367
-1.7201749701177547
-1.7017115536227536
-1.7386383866127564
-1.7386383866127564
-1.7263294422827367
-1.7078660257877356
-1.6032399989827364
-1.25243508557768
-1.4432237226927047
-1.6340123598077294
-1.683248137127724
-1.7017115536227536
-1.7140204979527454
-1.7447928587777384
-1.8863457185727683
-2.3356221866178415
-1.966353856717784
-1.8801912464077586
-1.8740367742427766
-1.8494188855827651
-1.830955469087764
-1.8248009969227539
-1.855573357747775
-1.8371099412527454
-1.8248009969227539
-1.8186465247577446
-1.830955469087764
-1.7878741639327511
-1.7632562752727399
-1.7386383866127564
-1.7878741639327511
-1.861727829912757
-1.7755652196027594
-1.7755652196027594
-1.7940286360977609
-1.8124920525927626
-1.8063375804277528
-1.8124920525927626
-1.8432644134177558
-1.9171180793977614
-1.954044912387765
-1.8801912464077586
-1.8186465247577446
-1.8494188855827651
-1.91096360723278
-2.1817603824928202
-2.3356221866178415
-2.544874240227868
-2.649500267032867
-2.649500267032867
-2.704890516517872
-2.680272627857888
-2.778744182497905
-3.0310775412629165
-3.24648406703798
-3.375727982502991
-3.381882454668
-3.400345871163002
-3.400345871163002
-3.4188092876580036
-3.381882454668
-3.381882454668
-3.375727982502991
-3.363419038172999
-3.344955621677997
-3.3326466773480057
-3.357264566007989
-3.3511100938430074
-3.38803692683301
-3.4188092876580036
-3.461890592813016
-3.5418987309580316
-3.597288980443037
-3.5665166196180156
-3.529589786628012
-3.529589786628012
-3.548053203123014
-3.5849800361130173
-3.6034434526080172
-3.578825563948035
-3.5726710917830253
-3.560362147453033
-3.548053203123014
-3.535744258793022
-3.535744258793022
-3.517280842298021
-3.4988174258030194
-3.4803540093080176
-3.4311182319879947
-3.381882454668
-3.344955621677997
-3.338801149512988
-3.3511100938430074
-3.277256427862973
-3.24648406703798
-3.1726304010579747
-3.049540957757918
-2.8402889041478923
-2.55718318455786
-2.2063782711528033
-1.9048091350677696
-1.7447928587777384
-1.7632562752727399
-1.8186465247577446
-2.575646601052861
-3.5665166196180156
-3.658833702093051
-3.615752396938038
-3.578825563948035
-3.5726710917830253
-3.5726710917830253
-3.554207675288024
-3.5418987309580316
-3.5234353144630304
-3.511126370133011
-3.4988174258030194
-3.4988174258030194
-3.4865084814730274
-3.4803540093080176
-3.468045064977998
-3.461890592813016
-3.4557361206480066
-3.437272704153005
-3.4311182319879947
-3.4126548154929934
-3.4126548154929934
-3.400345871163002
-3.394191398997992
-3.38803692683301
-3.38803692683301
-3.338801149512988
-3.338801149512988
-3.338801149512988
-3.3511100938430074
-3.357264566007989
-3.338801149512988
-3.3141832608529764
-3.3141832608529764
-3.301874316522985
-3.2834109000279827
-3.277256427862973
-3.3203377330179857
-3.24648406703798
-3.2218661783779687
-3.2218661783779687
-3.215711706212987
-3.215711706212987
-3.2034027618829675
-3.1972482897179852
-3.2218661783779687
-3.191093817552976
-3.1664759288929645
-3.1480125123979352
-3.1295490959029335
-3.1110856794079322
-3.1110856794079322
-3.0864677907479487
-3.074158846417929
-3.074158846417929
-3.0680043742529195
-3.0680043742529195
-3.0618499020879373
-3.055695429922928
-3.0618499020879373
-3.0618499020879373
-3.074158846417929
-3.074158846417929
-3.0864677907479487
-3.0864677907479487
-3.0987767350779407
-3.1049312072429505
-3.1110856794079322
-3.117240151572942
-3.1357035680679433
-3.1357035680679433
-3.1357035680679433
-3.141858040232953
-3.1357035680679433
-3.1357035680679433
-3.1357035680679433
-3.1295490959029335
-3.1233946237379517
-3.1233946237379517
-3.117240151572942
-3.1110856794079322
-3.1049312072429505
-3.0987767350779407
-3.0987767350779407
-3.0987767350779407
-3.0987767350779407
-3.0864677907479487
-3.0864677907479487
-3.080313318582939
-2.944914930952919
-2.3971669082678284
-2.2309961598128147
-2.3417766587828237
-2.249459576307816
-2.150988021667799
-2.0463619948628
-2.052516467027782
-2.077134355687793
-2.1571424938328088
-2.581801073217871
-2.649500267032867
-2.372549019607845
-2.286386409297819
-2.298695353627811
-2.2802319371328093
-2.255614048472826
-2.2309961598128147
-2.2371506319778245
-2.200223798987821
-2.194069326822812
-2.286386409297819
-2.323313242287822
-2.323313242287822
-2.3663945474428347
-2.3663945474428347
-2.372549019607845
-2.2740774649678275
-2.1017522443478045
-1.91096360723278
-1.7201749701177547
-1.437069250527695
-1.11088222578265
-0.9816383103176396
-0.901630172172624
-0.7108415350575992
-0.575443147427579
-0.49543500928256323
-0.4708171206225797
-0.40927239897256545
-0.28618295567253704
-0.18771140103251985
-0.07693090206251085
0.009231708247514623
0.06462195773251911
0.04615854123751762
0.003077236082504875
0.01538618041249662
0.04000406907250786
-0.003077236082504875
-0.14463009587750708
-0.2000203453625393
-0.2431016505175243
-0.34772767732255133
-0.46466264845757
-0.5631342030975872
-0.6308333969125834
-0.5077439536125827
-0.23079270618753256
-0.49543500928256323
-0.5015894814475731
-0.46466264845757
-0.3723455659825625
-0.3354187329925596
-0.2800284835075273
-0.2061748175275213
-0.7354594237176103
-0.5015894814475731
-0.2061748175275213
-0.16309351237253633
-0.2000203453625393
-0.30464637216753854
-0.36619109381755277
-0.42158134330255725
-0.575443147427579
-0.7539228402126119
-0.895475700007614
-1.0185651433076426
-1.3201342793926762
-1.5663131659927332
-1.8678823020777668
-2.0586709391927913
-2.501792935072855
-2.797207598992907
-2.5941100175478624
-2.1263701330077875
-1.8801912464077586
-1.8740367742427766
-1.9478904402227823
-1.966353856717784
-1.8863457185727683
-1.9601993845527748
-2.2433051041428067
-2.495638462907845
-2.612573434042864
-2.6002644897128726
-2.612573434042864
-2.526410823732866
-2.5325652958978484
-2.5325652958978484
-2.544874240227868
-2.495638462907845
-2.4587116299178424
-2.4525571577528327
-2.471020574247862
-2.360240075277825
-2.4587116299178424
-2.778744182497905
-3.215711706212987
-3.7696142010630598
-4.225045141273115
-4.508150860863147
-4.5696955825131615
-4.434297194883141
-4.366598001068144
-4.329671168078142
-4.409679306223158
-4.631240304163176
-4.8220289412782
-4.8897281350932245
-4.834337885608192
-4.7543297474632045
-4.717402914473201
-4.662012664988168
-4.575850054678171
-4.55123216601816
-4.717402914473201
-4.735866330968203
-4.698939497978172
-4.668167137153178
-4.6435492484931675
-4.612776887668174
-4.588158999008163
-4.55123216601816
-4.532768749523157
-4.514305333028156
-4.4835329722031645
-4.458915083543152
-4.3727524732331275
-3.923476005188081
-3.0987767350779407
-3.1357035680679433
-4.009638615498079
-4.3727524732331275
-4.237354085603107
-3.5234353144630304
-2.747971821672884
-2.4648661020828517
-2.224841687647805
-2.323313242287822
-2.347931130947833
-2.304849825792821
-2.2802319371328093
-2.2433051041428067
-2.255614048472826
-2.249459576307816
-2.194069326822812
-2.1694514381628007
-2.249459576307816
-2.200223798987821
-2.1202156608428053
-2.1571424938328088
-2.1079067165127863
-2.2433051041428067
-2.150988021667799
-2.0955977721827947
-2.1079067165127863
-2.1263701330077875
-2.0217441062027888
-2.0278985783677985
-2.0463619948628
-2.064825411357801
-2.0463619948628
-1.9971262175427773
-2.0278985783677985
-2.04020752269779
-2.015589634037779
-2.015589634037779
-2.009435161872797
-1.861727829912757
-1.5540042216627135
-1.8494188855827651
-1.9355814958927628
-2.04020752269779
-2.55102871239285
-2.471020574247862
-2.1756059103278105
-2.1694514381628007
-2.212532743317813
-2.1448335495027893
-2.0709798835227837
-2.483329518577854
-4.0219475598280985
-4.797411052618189
-4.8220289412782
-4.791256580453207
-4.748175275298194
-4.71124844230819
-4.662012664988168
-4.6189313598331845
-4.588158999008163
-4.514305333028156
-4.465069555708162
-4.495841916533155
-4.489687444368147
-4.477378500038154
-4.428142722718159
-4.3173622237481215
-3.972711782508076
-3.191093817552976
-2.606418961877855
-2.4156303247628297
-2.3417766587828237
-2.347931130947833
-2.391012436102846
-2.9818417639429216
-3.4434271763180146
-3.726532895908047
-3.781923145393051
-3.8434678670430653
-4.015793087663089
-4.071183337148093
-4.0404109763231
-4.065028864983084
-4.089646753643096
-4.089646753643096
-4.108110170138096
-4.132728058798108
-4.132728058798108
-4.138882530963118
-4.126573586633098
-4.132728058798108
-4.114264642303106
-4.089646753643096
-4.071183337148093
-4.058874392818101
-4.0404109763231
-4.028102031993082
-3.9973296711680866
-3.812695506218072
-2.8279799598179
-1.861727829912757
-1.3509066402176972
-1.1478090587726528
-1.1724269474326645
-1.2031993082576575
-0.9631748938226381
-0.5877520917575707
-0.2984919000025288
-0.1261666793825056
-0.02154065257750637
-0.05231301340249961
-0.34772767732255133
-0.6739147020675963
-1.2770529742376913
-2.0463619948628
-3.0864677907479487
-3.849622339208075
-3.9604028381780845
-3.75730525673304
-3.517280842298021
-3.5234353144630304
-3.2280206505429785
-2.747971821672884
-2.403321380432838
-2.323313242287822
-2.0463619948628
-1.8740367742427766
-1.8001831082627426
-1.9848172732127856
-2.434093741257831
-3.264947483532982
-4.114264642303106
-4.378906945398136
-4.397370361893138
-4.378906945398136
-4.348134584573144
-4.3173622237481215
-4.298898807253121
-4.274280918593137
-4.2435085577681155
-4.218890669108104
-4.206581724778113
-4.181963836118102
-4.163500419623101
-4.138882530963118
-4.126573586633098
-4.114264642303106
-4.089646753643096
-4.065028864983084
-4.0465654484880815
-4.028102031993082
-4.015793087663089
-4.003484143333097
-3.9788662546730857
-3.9604028381780845
-3.9480938938480934
-3.935784949518073
-3.923476005188081
-3.8803947000330687
-3.6896060629180436
-3.461890592813016
-3.258793011367972
-3.308028788687994
-3.5849800361130173
-3.5665166196180156
-3.437272704153005
-3.3326466773480057
-3.326492205182996
-3.461890592813016
-3.664988174258033
-3.7634597288980496
-3.5665166196180156
-3.6280613412680296
-3.6465247577630313
-3.6219068691030203
-3.6034434526080172
-3.5911345082780266
-3.5849800361130173
-3.517280842298021
-3.474199537143008
-3.3203377330179857
-2.6433457948678853
-2.329467714452832
-2.3971669082678284
-2.4156303247628297
-2.4894839907428636
-2.5141018794028467
-2.501792935072855
-2.5325652958978484
-2.6002644897128726
-2.581801073217871
-2.6002644897128726
-2.8156710154879088
-3.0126141247679152
-3.043386485592936
-3.0249230690979347
-3.0003051804379233
-3.0003051804379233
-2.8464433763129016
-2.507947407237865
-2.009435161872797
-1.5416952773327222
-1.1662724752676545
-0.7231504793875909
-0.15693904020752658
0.29233742783754685
0.6062155082525723
0.8339309783576276
0.9754838381526297
1.0801098649576568
1.1970448360926755
1.2462806134126705
1.2955163907326928
1.4062968897027015
1.3201342793926762
-1.5601586938277234
-4.440451667048151
-4.458915083543152
-4.292744335088139
-4.0958012258081045
-3.874240227868059
-3.548053203123014
-3.24648406703798
-2.8525978484779113
-2.4402482134228407
-2.5387197680628577
-2.618727906207874
-2.4648661020828517
-2.372549019607845
-2.360240075277825
-2.372549019607845
-2.329467714452832
-2.286386409297819
-2.1017522443478045
-2.1694514381628007
-2.3110042979578305
-2.2679229928028177
-2.2740774649678275
-1.9848172732127856
-1.1724269474326645
-0.6000610360875902
-0.34772767732255133
-0.28618295567253704
-0.30464637216753854
-0.26156506701252585
-0.2984919000025288
-0.44619923196256844
-0.895475700007614
-1.289361918567683
-1.3509066402176972
-1.5970855268177266
-1.6093944711477182
-1.5170773886727107
-1.4863050278477177
-1.3078253350626845
-1.1231911701126696
-0.9693293659876481
-0.7723862567076134
-0.6000610360875902
-0.47697159278756174
-0.28618295567253704
0.009231708247514623
0.0707764298975011
0.07693090206251085
0.2061748175275213
0.2738740113425453
0.08308537422752059
-0.9077846443376336
-1.8678823020777668
-1.8740367742427766
-1.289361918567683
-0.7046870628925893
-0.36619109381755277
-0.04615854123751762
0.18771140103251985
0.23079270618753256
0.1261666793825056
0.3354187329925596
0.47697159278756174
0.4831260649525715
0.4154268711375475
0.4892805371175811
0.7785407288726233
1.1970448360926755
0.5200528979425745
0.5446707866025856
0.5692886752625692
0.1938658731975296
0.01538618041249662
0.433890287632549
0.6185244525825918
0.5200528979425745
0.4400447597975588
0.396963454642546
0.4831260649525715
0.4892805371175811
0.37850003814754446
0.3354187329925596
0.396963454642546
0.40927239897256545
0.3292642608275498
0.26771953917753555
0.3108008443325483
0.36619109381755277
0.26771953917753555
0.18155692886753785
0.2061748175275213
0.2554105948475438
0.21232928969253104
0.1200122072175236
0.1261666793825056
0.17540245670252808
0.1015487907225221
0.05231301340249961
0.02769512474251612
0.0707764298975011
0.1015487907225221
0.02769512474251612
0.1200122072175236
0.02769512474251612
0.003077236082504875
-0.033849596907498114
-0.08923984639250258
-0.08308537422752059
-0.04615854123751762
-0.1015487907225221
-0.17540245670252808
-0.14463009587750708
-0.11385773505251384
-0.15693904020752658
-0.23079270618753256
-0.2431016505175243
-0.2984919000025288
-0.3415732051575415
-0.3292642608275498
-0.37850003814754446
-0.3292642608275498
-0.3354187329925596
-0.390808982477564
-0.42158134330255725
-0.360036621652543
-0.3415732051575415
-0.34772767732255133
-0.4400447597975588
-0.37850003814754446
-0.32310978866254003
-0.1261666793825056
-0.427735815467567
-0.5508252587675677
-0.42158134330255725
-0.4523537041275505
-0.5446707866025856
-0.5200528979425745
-0.46466264845757
-0.45850817629256013
-0.45850817629256013
-0.3846545103125543
-0.2431016505175243
-0.1938658731975296
-0.40927239897256545
-0.6123699804175821
-0.8523943948526291
-0.8216220340276081
-0.8523943948526291
-0.889321227842632
-0.7970041453676248
-0.7846952010376053
-0.8831667556776225
-0.8831667556776225
-0.8339309783576276
-0.7970041453676248
-0.8400854505226096
-0.8770122835126126
-0.8216220340276081
-0.7723862567076134
-0.9324025329976448
-0.9447114773276367
-0.8585488670176111
-0.8031586175326066
-0.8462399226876194
-0.889321227842632
-0.8523943948526291
-0.8031586175326066
-0.8647033391826209
-0.9324025329976448
-0.9447114773276367
-0.8831667556776225
-0.895475700007614
-0.9200935886676254
-0.9447114773276367
-0.9385570051626267
-0.9447114773276367
-0.9939472546476313
-1.0493375041326358
-1.0124106711426328
-0.9631748938226381
-1.0308740876376343
-0.8216220340276081
-1.0924188092876486
-1.184735891762656
-1.1231911701126696
-1.1478090587726528
-1.1478090587726528
-1.0062561989776508
-0.901630172172624
-0.9385570051626267
-1.5601586938277234
-1.1601180031026725
-1.104727753617668
-1.141654586607671
-1.1355001144426613
-1.0862643371226666
-1.0616464484626553
-1.1231911701126696
-1.1662724752676545
-1.104727753617668
-1.0862643371226666
-1.221662724752659
-1.3078253350626845
-1.215508252587677
-1.1908903639276658
-1.2462806134126705
-1.3509066402176972
-1.3078253350626845
-1.2585895577426898
-1.3201342793926762
-1.3693700567126987
-1.3509066402176972
-1.289361918567683
-1.3201342793926762
-1.4062968897027015
-1.3570611123826792
-1.4062968897027015
-1.3693700567126987
-1.4124513618677115
-1.437069250527695
-1.3139798072276945
-0.8523943948526291
-0.9939472546476313
-1.3693700567126987
-1.437069250527695
-1.3385976958876775
-1.3816790010426905
-1.4062968897027015
-1.4555326670226965
-1.9417359680577726
-1.7078660257877356
-1.5416952773327222
-1.4616871391877062
-1.4186058340326935
-1.473996083517698
-1.5232318608377204
-1.4863050278477177
-1.4555326670226965
-1.510922916507701
-1.5478497494977315
-1.5416952773327222
-1.4863050278477177
-1.4924595000126994
-1.4986139721777092
-1.0247196154726523
-1.7140204979527454
-1.89865466290276
-1.6524757763027311
-1.6401668319727392
-1.6032399989827364
-1.6032399989827364
-1.6401668319727392
-1.6647847206327224
-1.6647847206327224
-1.6463213041377214
-1.7017115536227536
-1.7386383866127564
-1.677093664962742
-1.6709391927977324
-1.677093664962742
-1.7017115536227536
-1.7263294422827367
-1.6586302484677409
-1.683248137127724
-1.7509473309427481
-1.7386383866127564
-1.6955570814577436
-1.7078660257877356
-1.7509473309427481
-1.830955469087764
-1.7386383866127564
-1.6340123598077294
-1.4616871391877062
-1.7940286360977609
-1.8186465247577446
-1.830955469087764
-1.91096360723278
-2.052516467027782
-2.0340530505327803
-2.0709798835227837
-2.1632969659978185
-2.2186872154828228
-2.212532743317813
-2.2309961598128147
-2.194069326822812
-2.403321380432838
-2.9510694031179288
-2.477175046412844
-2.255614048472826
-2.2433051041428067
-2.2063782711528033
-2.0955977721827947
-2.0709798835227837
-2.1325246051727973
-2.114061188677796
-2.0709798835227837
-2.064825411357801
-2.1325246051727973
-2.1817603824928202
-2.064825411357801
-1.954044912387765
-2.0955977721827947
-2.1202156608428053
-2.064825411357801
-2.009435161872797
-2.083288827852803
-2.1325246051727973
-2.138679077337807
-2.1017522443478045
-2.1756059103278105
-2.200223798987821
-2.04020752269779
-2.618727906207874
-3.2341751227079882
-4.163500419623101
-5.055898883548238
-5.8436713206683475
-5.806744487678346
-5.948297347473375
-6.040614429948382
-5.985224180463378
-5.985224180463378
-5.985224180463378
-5.923679458813363
-5.788281071183343
-5.35131354746829
-4.846646829938211
-4.772793163958206
-4.329671168078142
-3.6219068691030203
-3.092622262912931
-2.772589710332896
-2.495638462907845
-2.286386409297819
-2.249459576307816
-2.2309961598128147
-2.089443300017785
-1.8124920525927626
-1.5970855268177266
-1.473996083517698
-1.4555326670226965
-1.4924595000126994
-1.5847765824877347
-1.8186465247577446
-1.7878741639327511
-1.6955570814577436
-1.7201749701177547
-2.009435161872797
-2.618727906207874
-3.4803540093080176
-4.17580936395312
-4.360443528903135
-4.360443528903135
-4.274280918593137
-4.138882530963118
-3.9542483660130747
-3.3203377330179857
-2.501792935072855
-2.015589634037779
-1.8863457185727683
-1.855573357747775
-1.7817196917677414
-1.677093664962742
-1.689402609292734
-1.7324839144477464
-1.6647847206327224
-1.590931054652717
-1.5478497494977315
-1.6093944711477182
-1.5970855268177266
-1.5663131659927332
-1.6586302484677409
-1.6586302484677409
-1.6340123598077294
-1.4186058340326935
-1.578622110322725
-1.7140204979527454
-1.6709391927977324
-1.5847765824877347
-1.6093944711477182
-1.7140204979527454
-2.1263701330077875
-3.7696142010630598
-5.800590015513335
-5.671346100048325
-5.794435543348353
-5.812898959843354
-5.812898959843354
-5.794435543348353
-5.769817654688342
-5.659037155718333
-5.462094046438297
-5.283614353653265
-5.154370438188255
-5.037435467053236
-5.031280994888226
-5.031280994888226
-5.191297271178258
-5.2466875206632615
-5.1851427990132475
-5.129752549528243
-5.09898018870325
-5.105134660868233
-5.043589939218246
-4.951272856743211
-4.969736273238212
-4.969736273238212
-4.908191551588226
-4.8220289412782
-4.81587446911319
-4.846646829938211
-4.81587446911319
-4.698939497978172
-4.698939497978172
-4.81587446911319
-4.729711858803193
-4.655858192823187
-4.612776887668174
-4.662012664988168
-4.68663055364818
-4.5696955825131615
-4.54507769385315
-4.5573866381831705
-4.5696955825131615
-4.489687444368147
-4.409679306223158
-4.403524834058148
-4.428142722718159
-4.440451667048151
-4.3727524732331275
-4.391215889728128
-4.409679306223158
-4.17580936395312
-3.9665573103430942
-4.729711858803193
-4.446606139213161
-4.305053279418131
-4.218890669108104
-4.200427252613103
-4.237354085603107
-4.212736196943123
-4.108110170138096
-4.1573459474581185
-4.194272780448122
-4.200427252613103
-4.058874392818101
-4.083492281478085
-4.132728058798108
-4.145037003128099
-4.0342565041580905
-4.0219475598280985
-4.052719920653092
-4.071183337148093
-4.0219475598280985
-3.9665573103430942
-3.9911751990030773
-4.1573459474581185
-4.015793087663089
-3.9973296711680866
-3.9665573103430942
-4.015793087663089
-3.9850207268380964
-3.9050125886930798
-3.8988581165280705
-3.935784949518073
-3.9480938938480934
-3.9173215330230713
-3.855776811373057
-3.8927036443630603
-3.837313394878056
-3.855776811373057
-3.800386561888053
-3.8188499783830547
-3.825004450548064
-3.7634597288980496
-3.7142239515780546
-3.7634597288980496
-3.788077617558061
-3.720378423743037
-3.6772971185880525
-3.701915007248036
-3.732687368073057
-3.7142239515780546
-3.4988174258030194
-3.2341751227079882
-3.5849800361130173
-3.634215813433039
-3.5911345082780266
-3.615752396938038
-3.658833702093051
-3.634215813433039
-3.5726710917830253
-3.5911345082780266
-3.634215813433039
-3.6034434526080172
-3.554207675288024
-3.394191398997992
-3.664988174258033
-4.089646753643096
-3.720378423743037
-3.578825563948035
-3.554207675288024
-3.5911345082780266
-3.511126370133011
-3.4434271763180146
-3.3511100938430074
-3.178784873222984
-3.4865084814730274
-3.474199537143008
-3.511126370133011
-3.578825563948035
-3.517280842298021
-3.517280842298021
-3.5665166196180156
-3.5726710917830253
-3.5911345082780266
-3.615752396938038
-3.738841840238039
-3.6465247577630313
-3.5726710917830253
-3.468045064977998
-3.492662953638009
-3.4865084814730274
-3.4434271763180146
-3.3326466773480057
-3.184939345387966
-3.1480125123979352
-3.141858040232953
-3.117240151572942
-3.277256427862973
-3.424963759823013
-3.535744258793022
-3.461890592813016
-3.369573510338009
-3.394191398997992
-3.400345871163002
-2.9141425701278982
-3.055695429922928
-3.1480125123979352
-3.2711019556979917
-3.258793011367972
-3.25263853920299
-3.2341751227079882
-3.3511100938430074
-3.8865491721980785
-3.535744258793022
-3.2280206505429785
-2.723353933012873
-1.990971745377768
-1.4186058340326935
-1.0431830319676536
-0.8585488670176111
-1.5601586938277234
-3.5665166196180156
-3.8927036443630603
-3.726532895908047
-3.468045064977998
-3.264947483532982
-3.1049312072429505
-2.975687291777912
-2.877215737137895
-2.754126293837894
-2.6371913227028756
-2.544874240227868
-2.4648661020828517
-2.3848579639378364
-2.304849825792821
-2.249459576307816
-2.2309961598128147
-2.5387197680628577
-4.028102031993082
-7.4684519722285625
-8.674728516568752
-8.373159380483692
-7.5915414155285905
-6.348338038198426
-5.271305409323275
-4.563541110348179
-4.206581724778113
-4.009638615498079
-3.9542483660130747
-3.9111670608580615
-3.5849800361130173
-3.2957198443579747
-3.5911345082780266
-3.652679229928041
-3.640370285598049
-3.560362147453033
-3.548053203123014
-3.5418987309580316
-3.517280842298021
-3.4188092876580036
-3.4188092876580036
-3.461890592813016
-3.4126548154929934
