-2.9202970422929075
-2.932605986622927
-2.9510694031179288
-2.907988097962916
-2.907988097962916
-2.9141425701278982
-2.907988097962916
-2.883370209302905
-2.83413443198291
-2.766435238167886
-2.754126293837894
-2.667963683527869
-2.501792935072855
-2.378703491772827
-2.409475852597848
-2.6433457948678853
-2.8649067928079033
-3.018768596932925
-3.049540957757918
-3.0003051804379233
-2.944914930952919
-2.932605986622927
-2.932605986622927
-2.932605986622927
-2.9202970422929075
-2.932605986622927
-2.9264515144579173
-2.9202970422929075
-2.9264515144579173
-2.9202970422929075
-2.9141425701278982
-2.9141425701278982
-2.9141425701278982
-2.9202970422929075
-2.9202970422929075
-2.907988097962916
-2.901833625797906
-2.901833625797906
-2.901833625797906
-2.901833625797906
-2.901833625797906
-2.895679153632896
-2.901833625797906
-2.8895246814679143
-2.8895246814679143
-2.877215737137895
-2.8649067928079033
-2.871061264972913
-2.877215737137895
-2.871061264972913
-2.877215737137895
-2.8649067928079033
-2.8649067928079033
-2.8649067928079033
-2.8525978484779113
-2.8649067928079033
-2.858752320642893
-2.858752320642893
-2.858752320642893
-2.8402889041478923
-2.8279799598179
-2.8279799598179
-2.8218254876528905
-2.8095165433228986
-2.8095165433228986
-2.797207598992907
-2.797207598992907
-2.778744182497905
-2.778744182497905
-2.772589710332896
-2.766435238167886
-2.760280766002876
-2.760280766002876
-2.766435238167886
-2.747971821672884
-2.747971821672884
-2.772589710332896
-2.7848986546628876
-2.7910531268278973
-2.8156710154879088
-2.8402889041478923
-2.8649067928079033
-2.883370209302905
-2.895679153632896
-2.9141425701278982
-2.9264515144579173
-2.9387604587879093
-2.944914930952919
-2.944914930952919
-2.9633783474479203
-2.9572238752829105
-2.9633783474479203
-2.9572238752829105
-2.9633783474479203
-2.9572238752829105
-2.9572238752829105
-2.9633783474479203
-2.9633783474479203
-2.9633783474479203
-2.9572238752829105
-2.9510694031179288
-2.9510694031179288
-2.944914930952919
-2.9510694031179288
-2.9510694031179288
-2.944914930952919
-2.9510694031179288
-2.944914930952919
-2.944914930952919
-2.9387604587879093
-2.932605986622927
-2.932605986622927
-2.9387604587879093
-2.932605986622927
-2.9387604587879093
-2.932605986622927
-2.9264515144579173
-2.9264515144579173
-2.932605986622927
-2.9264515144579173
-2.9264515144579173
-2.9202970422929075
-2.9202970422929075
-2.9387604587879093
-2.9633783474479203
-2.9141425701278982
-2.907988097962916
-2.907988097962916
-2.9387604587879093
-2.944914930952919
-2.9264515144579173
-2.907988097962916
-2.907988097962916
-2.907988097962916
-2.907988097962916
-2.9141425701278982
-2.907988097962916
-2.9141425701278982
-2.907988097962916
-2.883370209302905
-2.895679153632896
-2.901833625797906
-2.901833625797906
-2.907988097962916
-2.901833625797906
-2.9202970422929075
-2.9141425701278982
-2.9141425701278982
-2.907988097962916
-2.9202970422929075
-2.907988097962916
-2.9141425701278982
-2.907988097962916
-2.907988097962916
-2.907988097962916
-2.9141425701278982
-2.907988097962916
-2.907988097962916
-2.907988097962916
-2.907988097962916
-2.907988097962916
-2.907988097962916
-2.901833625797906
-2.901833625797906
-2.901833625797906
-2.901833625797906
-2.907988097962916
-2.901833625797906
-2.9141425701278982
-2.901833625797906
-2.8895246814679143
-2.895679153632896
-2.895679153632896
-2.877215737137895
-2.883370209302905
-2.877215737137895
-2.871061264972913
-2.877215737137895
-2.877215737137895
-2.8895246814679143
-2.895679153632896
-2.895679153632896
-2.895679153632896
-2.901833625797906
-2.907988097962916
-2.901833625797906
-2.907988097962916
-2.901833625797906
-2.895679153632896
-2.895679153632896
-2.9141425701278982
-2.9202970422929075
-2.9141425701278982
-2.9141425701278982
-2.9202970422929075
-2.9141425701278982
-2.9141425701278982
-2.9202970422929075
-2.907988097962916
-2.9202970422929075
-2.907988097962916
-2.9264515144579173
-2.9387604587879093
-2.9264515144579173
-2.9141425701278982
-2.895679153632896
-2.8525978484779113
-2.7848986546628876
-2.723353933012873
-2.655654739197877
-2.55718318455786
-2.434093741257831
-2.372549019607845
-2.5325652958978484
-2.760280766002876
-2.944914930952919
-2.9818417639429216
-2.9387604587879093
-2.907988097962916
-2.9141425701278982
-2.9202970422929075
-2.9141425701278982
-2.9202970422929075
-2.9202970422929075
-2.9264515144579173
-2.9264515144579173
-2.9264515144579173
-2.9202970422929075
-2.9202970422929075
-2.907988097962916
-2.9202970422929075
-2.9141425701278982
-2.9202970422929075
-2.9141425701278982
-2.907988097962916
-2.907988097962916
-2.901833625797906
-2.907988097962916
-2.907988097962916
-2.9141425701278982
-2.901833625797906
-2.907988097962916
-2.901833625797906
-2.8895246814679143
-2.8895246814679143
-2.901833625797906
-2.9202970422929075
-2.877215737137895
-2.871061264972913
-2.8649067928079033
-2.871061264972913
-2.8649067928079033
-2.8649067928079033
-2.8649067928079033
-2.8895246814679143
-2.871061264972913
-2.8525978484779113
-2.8525978484779113
-2.8402889041478923
-2.83413443198291
-2.8218254876528905
-2.8095165433228986
-2.8095165433228986
-2.797207598992907
-2.7910531268278973
-2.778744182497905
-2.778744182497905
-2.766435238167886
-2.772589710332896
-2.760280766002876
-2.766435238167886
-2.760280766002876
-2.754126293837894
-2.754126293837894
-2.766435238167886
-2.778744182497905
-2.7910531268278973
-2.797207598992907
-2.8218254876528905
-2.8464433763129016
-2.8649067928079033
-2.883370209302905
-2.907988097962916
-2.9202970422929075
-2.9264515144579173
-2.932605986622927
-2.9510694031179288
-2.9510694031179288
-2.9510694031179288
-2.9572238752829105
-2.9633783474479203
-2.9572238752829105
-2.9510694031179288
-2.9510694031179288
-2.9572238752829105
-2.9510694031179288
-2.9633783474479203
-2.9633783474479203
-2.9510694031179288
-2.9510694031179288
-2.9572238752829105
-2.9510694031179288
-2.9572238752829105
-2.9572238752829105
-2.9572238752829105
-2.9572238752829105
-2.9510694031179288
-2.9572238752829105
-2.9572238752829105
-2.9572238752829105
-2.9510694031179288
-2.944914930952919
-2.9572238752829105
-2.944914930952919
-2.9510694031179288
-2.9510694031179288
-2.9572238752829105
-2.9510694031179288
-2.9510694031179288
-2.9510694031179288
-2.944914930952919
-2.944914930952919
-2.9510694031179288
-2.9510694031179288
-2.9572238752829105
-2.96953281961293
-2.932605986622927
-2.9387604587879093
-2.932605986622927
-2.9387604587879093
-2.944914930952919
-2.9387604587879093
-2.9510694031179288
-2.96953281961293
-2.9633783474479203
-2.9510694031179288
-2.9387604587879093
-2.9387604587879093
-2.944914930952919
-2.9387604587879093
-2.9387604587879093
-2.9387604587879093
-2.932605986622927
-2.9387604587879093
-2.932605986622927
-2.932605986622927
-2.9387604587879093
-2.9387604587879093
-2.932605986622927
-2.9387604587879093
-2.932605986622927
-2.932605986622927
-2.932605986622927
-2.9264515144579173
-2.932605986622927
-2.9264515144579173
-2.9202970422929075
-2.9202970422929075
-2.9202970422929075
-2.9202970422929075
-2.9264515144579173
-2.9202970422929075
-2.9202970422929075
-2.9141425701278982
-2.9202970422929075
-2.907988097962916
-2.9141425701278982
-2.9202970422929075
-2.9264515144579173
-2.907988097962916
-2.895679153632896
-2.907988097962916
-2.9202970422929075
-2.9202970422929075
-2.9141425701278982
-2.907988097962916
-2.895679153632896
-2.8895246814679143
-2.871061264972913
-2.877215737137895
-2.877215737137895
-2.883370209302905
-2.895679153632896
-2.895679153632896
-2.895679153632896
-2.907988097962916
-2.907988097962916
-2.901833625797906
-2.9202970422929075
-2.9264515144579173
-2.9264515144579173
-2.9264515144579173
-2.9264515144579173
-2.9264515144579173
-2.9202970422929075
-2.9202970422929075
-2.9202970422929075
-2.9141425701278982
-2.9141425701278982
-2.9141425701278982
-2.9141425701278982
-2.9141425701278982
-2.9141425701278982
-2.9202970422929075
-2.9141425701278982
-2.9202970422929075
-2.9202970422929075
-2.907988097962916
-2.877215737137895
-2.8095165433228986
-2.747971821672884
-2.6987360443528896
-2.612573434042864
-2.477175046412844
-2.378703491772827
-2.403321380432838
-2.631036850537866
-2.858752320642893
-2.9818417639429216
-2.9572238752829105
-2.932605986622927
-2.9141425701278982
-2.9141425701278982
-2.9202970422929075
-2.9264515144579173
-2.9202970422929075
-2.9202970422929075
-2.9202970422929075
-2.9202970422929075
-2.9141425701278982
-2.9141425701278982
-2.9264515144579173
-2.907988097962916
-2.9141425701278982
-2.907988097962916
-2.907988097962916
-2.907988097962916
-2.901833625797906
-2.901833625797906
-2.901833625797906
-2.895679153632896
-2.8895246814679143
-2.901833625797906
-2.901833625797906
-2.895679153632896
-2.883370209302905
-2.8895246814679143
-2.883370209302905
-2.877215737137895
-2.877215737137895
-2.877215737137895
-2.871061264972913
-2.871061264972913
-2.8649067928079033
-2.8525978484779113
-2.8525978484779113
-2.8525978484779113
-2.8525978484779113
-2.8402889041478923
-2.83413443198291
-2.83413443198291
-2.8218254876528905
-2.8156710154879088
-2.8095165433228986
-2.8033620711578893
-2.7910531268278973
-2.7910531268278973
-2.778744182497905
-2.766435238167886
-2.760280766002876
-2.760280766002876
-2.760280766002876
-2.754126293837894
-2.747971821672884
-2.747971821672884
-2.747971821672884
-2.747971821672884
-2.754126293837894
-2.766435238167886
-2.772589710332896
-2.7910531268278973
-2.8156710154879088
-2.8402889041478923
-2.858752320642893
-2.871061264972913
-2.895679153632896
-2.901833625797906
-2.9141425701278982
-2.9202970422929075
-2.9264515144579173
-2.9572238752829105
-2.9202970422929075
-2.9202970422929075
-2.9264515144579173
-2.9264515144579173
-2.9264515144579173
-2.9264515144579173
-2.932605986622927
-2.9572238752829105
-2.9510694031179288
-2.944914930952919
-2.9387604587879093
-2.932605986622927
-2.932605986622927
-2.9264515144579173
-2.9141425701278982
-2.9202970422929075
-2.932605986622927
-2.9202970422929075
-2.9264515144579173
-2.9202970422929075
-2.9202970422929075
-2.9264515144579173
-2.9264515144579173
-2.9264515144579173
-2.9202970422929075
-2.9202970422929075
-2.9141425701278982
-2.907988097962916
-2.907988097962916
-2.907988097962916
-2.9141425701278982
-2.9141425701278982
-2.9141425701278982
-2.9141425701278982
-2.901833625797906
-2.901833625797906
-2.895679153632896
-2.895679153632896
-2.895679153632896
-2.901833625797906
-2.901833625797906
-2.901833625797906
-2.907988097962916
-2.907988097962916
-2.907988097962916
-2.895679153632896
-2.895679153632896
-2.901833625797906
-2.895679153632896
-2.901833625797906
-2.901833625797906
-2.895679153632896
-2.895679153632896
-2.901833625797906
-2.907988097962916
-2.901833625797906
-2.901833625797906
-2.901833625797906
-2.901833625797906
-2.901833625797906
-2.901833625797906
-2.901833625797906
-2.907988097962916
-2.895679153632896
-2.8895246814679143
-2.895679153632896
-2.895679153632896
-2.8895246814679143
-2.8895246814679143
-2.8895246814679143
-2.895679153632896
-2.895679153632896
-2.895679153632896
-2.895679153632896
-2.895679153632896
-2.895679153632896
-2.895679153632896
-2.895679153632896
-2.901833625797906
-2.895679153632896
-2.895679153632896
-2.8895246814679143
-2.883370209302905
-2.877215737137895
-2.877215737137895
-2.871061264972913
-2.871061264972913
-2.858752320642893
-2.8525978484779113
-2.8525978484779113
-2.871061264972913
-2.871061264972913
-2.8649067928079033
-2.8649067928079033
-2.877215737137895
-2.8895246814679143
-2.895679153632896
-2.895679153632896
-2.901833625797906
-2.895679153632896
-2.901833625797906
-2.907988097962916
-2.907988097962916
-2.901833625797906
-2.901833625797906
-2.9141425701278982
-2.9264515144579173
-2.9141425701278982
-2.9141425701278982
-2.907988097962916
-2.901833625797906
-2.901833625797906
-2.895679153632896
-2.907988097962916
-2.901833625797906
-2.901833625797906
-2.901833625797906
-2.871061264972913
-2.8218254876528905
-2.747971821672884
-2.711044988682881
-2.674118155692878
-2.4894839907428636
-2.3540856031128428
-2.5325652958978484
-3.184939345387966
-2.83413443198291
-2.7418173495078744
-2.680272627857888
-2.6371913227028756
-2.5941100175478624
-2.581801073217871
-2.587955545382853
-2.581801073217871
-2.6987360443528896
-2.624882378372884
-2.563337656722869
-2.587955545382853
-2.618727906207874
-2.563337656722869
-2.544874240227868
-2.5941100175478624
-2.5694921288878514
-2.544874240227868
-2.5325652958978484
-2.544874240227868
-2.563337656722869
-2.4894839907428636
-2.1571424938328088
-1.8371099412527454
-2.1079067165127863
-2.612573434042864
-2.5141018794028467
-2.507947407237865
-2.5325652958978484
-2.55102871239285
-3.1233946237379517
-3.1233946237379517
-2.7171994608478913
-2.6002644897128726
-2.606418961877855
-2.575646601052861
-2.55718318455786
-2.5941100175478624
-2.581801073217871
-2.6433457948678853
-2.624882378372884
-2.587955545382853
-2.563337656722869
-2.587955545382853
-2.587955545382853
-2.5941100175478624
-2.544874240227868
-2.575646601052861
-2.581801073217871
-2.526410823732866
-2.507947407237865
-2.606418961877855
-2.5694921288878514
-2.575646601052861
-2.606418961877855
-2.5694921288878514
-2.544874240227868
-2.563337656722869
-2.563337656722869
-2.5694921288878514
-2.544874240227868
-2.6002644897128726
-2.606418961877855
-2.5694921288878514
-2.587955545382853
-2.704890516517872
-2.772589710332896
-2.8156710154879088
-2.871061264972913
-2.9572238752829105
-3.049540957757918
-3.1233946237379517
-3.1726304010579747
-3.178784873222984
-3.178784873222984
-3.1726304010579747
-3.1726304010579747
-3.1726304010579747
-3.1664759288929645
-3.160321456727955
-3.154166984562973
-3.154166984562973
-3.1480125123979352
-3.1480125123979352
-3.1480125123979352
-3.1480125123979352
-3.141858040232953
-3.1295490959029335
-3.1233946237379517
-3.1233946237379517
-3.1233946237379517
-3.117240151572942
-3.1110856794079322
-3.117240151572942
-3.1110856794079322
-3.1049312072429505
-3.0987767350779407
-3.092622262912931
-3.0864677907479487
-3.0864677907479487
-3.0864677907479487
-3.074158846417929
-3.074158846417929
-3.074158846417929
-3.080313318582939
-3.0680043742529195
-3.055695429922928
-3.055695429922928
-3.0618499020879373
-3.055695429922928
-3.049540957757918
-3.043386485592936
-3.043386485592936
-3.0372320134279267
-3.0372320134279267
-3.0249230690979347
-3.043386485592936
-3.0618499020879373
-3.018768596932925
-3.018768596932925
-3.0126141247679152
-3.0310775412629165
-3.0249230690979347
-3.0126141247679152
-3.0249230690979347
-3.049540957757918
-3.0310775412629165
-3.0249230690979347
-3.0126141247679152
-3.006459652602933
-3.006459652602933
-3.006459652602933
-3.006459652602933
-3.0126141247679152
-3.0003051804379233
-3.006459652602933
-3.006459652602933
-2.994150708272913
-2.994150708272913
-2.9572238752829105
-2.883370209302905
-2.8033620711578893
-2.729508405177883
-2.723353933012873
-2.735662877342893
-2.723353933012873
-2.6925815721878803
-2.680272627857888
-2.6002644897128726
-2.618727906207874
-2.674118155692878
-2.6925815721878803
-2.680272627857888
-2.655654739197877
-2.649500267032867
-2.674118155692878
-2.661809211362886
-2.704890516517872
-2.680272627857888
-2.655654739197877
-2.661809211362886
-2.711044988682881
-2.674118155692878
-2.649500267032867
-2.6987360443528896
-2.723353933012873
-2.747971821672884
-2.735662877342893
-2.711044988682881
-2.6987360443528896
-2.729508405177883
-2.723353933012873
-2.723353933012873
-2.735662877342893
-2.735662877342893
-2.7418173495078744
-2.680272627857888
-2.704890516517872
-2.754126293837894
-2.735662877342893
-2.55102871239285
-2.735662877342893
-2.9264515144579173
-2.8218254876528905
-2.83413443198291
-2.901833625797906
-2.944914930952919
-3.0003051804379233
-3.092622262912931
-3.1049312072429505
-3.0618499020879373
-3.0003051804379233
-2.944914930952919
-2.871061264972913
-2.766435238167886
-2.6371913227028756
-2.55102871239285
-2.649500267032867
-2.883370209302905
-3.0864677907479487
-3.178784873222984
-3.1357035680679433
-3.0987767350779407
-3.080313318582939
-3.0864677907479487
-3.080313318582939
-3.080313318582939
-3.074158846417929
-3.0680043742529195
-3.074158846417929
-3.0618499020879373
-3.0618499020879373
-3.055695429922928
-3.055695429922928
-3.043386485592936
-3.049540957757918
-3.043386485592936
-3.0310775412629165
-3.0372320134279267
-3.0249230690979347
-3.0249230690979347
-3.0249230690979347
-3.018768596932925
-3.0126141247679152
-3.0126141247679152
-3.0126141247679152
-3.006459652602933
-3.0003051804379233
-3.0003051804379233
-2.994150708272913
-2.994150708272913
-2.9818417639429216
-2.9879962361079313
-2.975687291777912
-2.96953281961293
-2.975687291777912
-2.96953281961293
-2.9572238752829105
-2.9510694031179288
-2.9572238752829105
-2.932605986622927
-2.9202970422929075
-2.9202970422929075
-2.944914930952919
-2.9264515144579173
-2.9141425701278982
-2.8895246814679143
-2.877215737137895
-2.877215737137895
-2.871061264972913
-2.8525978484779113
-2.8525978484779113
-2.8464433763129016
-2.83413443198291
-2.8279799598179
-2.8279799598179
-2.8279799598179
-2.8279799598179
-2.8279799598179
-2.8464433763129016
-2.858752320642893
-2.877215737137895
-2.901833625797906
-2.9141425701278982
-2.9264515144579173
-2.9510694031179288
-2.9633783474479203
-2.975687291777912
-2.9879962361079313
-2.9879962361079313
-2.994150708272913
-3.0003051804379233
-3.006459652602933
-3.006459652602933
-3.0126141247679152
-3.0126141247679152
-3.0003051804379233
-3.0126141247679152
-3.006459652602933
-3.0003051804379233
-3.006459652602933
-3.006459652602933
-2.994150708272913
-2.9879962361079313
-2.9879962361079313
-2.9879962361079313
-2.9818417639429216
-2.9818417639429216
-2.9818417639429216
-3.006459652602933
-3.092622262912931
-2.8095165433228986
-2.68642710002287
-2.655654739197877
-2.661809211362886
-2.674118155692878
-2.6371913227028756
-2.360240075277825
-2.6925815721878803
-2.7910531268278973
-2.680272627857888
-2.606418961877855
-2.409475852597848
-2.612573434042864
-2.6987360443528896
-2.667963683527869
-2.680272627857888
-2.649500267032867
-2.618727906207874
-2.606418961877855
-2.618727906207874
-2.649500267032867
-2.624882378372884
-2.575646601052861
-2.624882378372884
-2.6433457948678853
-2.6371913227028756
-2.587955545382853
-2.6371913227028756
-2.649500267032867
-2.6002644897128726
-2.6002644897128726
-2.6987360443528896
-2.655654739197877
-2.631036850537866
-2.631036850537866
-2.6371913227028756
-2.6433457948678853
-2.655654739197877
-2.655654739197877
-2.735662877342893
-2.735662877342893
-2.729508405177883
-2.8649067928079033
-2.877215737137895
-2.9387604587879093
-2.9202970422929075
-2.631036850537866
-2.9879962361079313
-2.9818417639429216
-3.018768596932925
-3.055695429922928
-3.080313318582939
-3.0987767350779407
-3.1049312072429505
-3.141858040232953
-3.1295490959029335
-3.1110856794079322
-3.1110856794079322
-3.1049312072429505
-3.0987767350779407
-3.0864677907479487
-3.080313318582939
-3.080313318582939
-3.0618499020879373
-3.0618499020879373
-3.049540957757918
-3.049540957757918
-3.0372320134279267
-3.0372320134279267
-3.0126141247679152
-3.0126141247679152
-2.994150708272913
-3.0126141247679152
-3.0249230690979347
-3.0249230690979347
-3.0310775412629165
-3.043386485592936
-3.055695429922928
-3.080313318582939
-3.074158846417929
-3.0618499020879373
-3.0618499020879373
-3.055695429922928
-3.049540957757918
-3.043386485592936
-3.049540957757918
-3.049540957757918
-3.049540957757918
-3.049540957757918
-3.049540957757918
-3.049540957757918
-3.0372320134279267
-3.0310775412629165
-3.0310775412629165
-3.0249230690979347
-3.0310775412629165
-3.0249230690979347
-3.0372320134279267
-3.0372320134279267
-2.994150708272913
-2.9264515144579173
-2.8525978484779113
-2.7848986546628876
-2.68642710002287
-2.55102871239285
-2.4587116299178424
-2.55102871239285
-2.797207598992907
-3.0003051804379233
-3.117240151572942
-3.0864677907479487
-3.0310775412629165
-3.006459652602933
-2.994150708272913
-2.994150708272913
-2.9879962361079313
-2.9818417639429216
-2.9879962361079313
-2.994150708272913
-2.9879962361079313
-2.994150708272913
-2.994150708272913
-2.9818417639429216
-2.975687291777912
-2.9818417639429216
-2.975687291777912
-2.96953281961293
-2.96953281961293
-2.96953281961293
-2.96953281961293
-2.96953281961293
-2.96953281961293
-2.96953281961293
-2.975687291777912
-2.9510694031179288
-2.944914930952919
-2.9510694031179288
-2.9387604587879093
-2.944914930952919
-2.932605986622927
-2.932605986622927
-2.932605986622927
-2.9264515144579173
-2.9141425701278982
-2.907988097962916
-2.907988097962916
-2.9141425701278982
-2.9141425701278982
-2.895679153632896
-2.895679153632896
-2.883370209302905
-2.883370209302905
-2.883370209302905
-2.871061264972913
-2.8525978484779113
-2.8525978484779113
-2.8464433763129016
-2.8279799598179
-2.8218254876528905
-2.8156710154879088
-2.8095165433228986
-2.8033620711578893
-2.7910531268278973
-2.778744182497905
-2.778744182497905
-2.778744182497905
-2.7848986546628876
-2.778744182497905
-2.7848986546628876
-2.8156710154879088
-2.83413443198291
-2.8525978484779113
-2.871061264972913
-2.895679153632896
-2.907988097962916
-2.9264515144579173
-2.944914930952919
-2.9572238752829105
-2.9633783474479203
-2.9633783474479203
-2.96953281961293
-2.975687291777912
-2.9633783474479203
-2.9510694031179288
-2.9572238752829105
-2.9264515144579173
-2.760280766002876
-2.649500267032867
-2.6925815721878803
-2.655654739197877
-2.631036850537866
-2.4279392690928487
-1.954044912387765
-2.4525571577528327
-2.618727906207874
-3.043386485592936
-3.381882454668
-3.154166984562973
-2.994150708272913
-2.994150708272913
-2.9879962361079313
-2.9879962361079313
-2.932605986622927
-2.907988097962916
-2.907988097962916
-2.877215737137895
-2.858752320642893
-2.8033620711578893
-2.766435238167886
-2.772589710332896
-2.754126293837894
-2.871061264972913
-2.8156710154879088
-2.7171994608478913
-2.729508405177883
-2.711044988682881
-2.6987360443528896
-2.729508405177883
-2.723353933012873
-2.723353933012873
-2.6987360443528896
-2.704890516517872
-2.6925815721878803
-2.6987360443528896
-2.618727906207874
-2.5141018794028467
-2.655654739197877
-2.649500267032867
-2.6371913227028756
-2.649500267032867
-2.6987360443528896
-2.680272627857888
-2.667963683527869
-2.6987360443528896
-2.667963683527869
-2.68642710002287
-2.6925815721878803
-2.68642710002287
-2.667963683527869
-2.729508405177883
-2.723353933012873
-2.704890516517872
-2.680272627857888
-2.6925815721878803
-2.680272627857888
-2.680272627857888
-2.711044988682881
-2.735662877342893
-2.711044988682881
-2.6987360443528896
-2.661809211362886
-2.754126293837894
-2.661809211362886
-2.649500267032867
-2.766435238167886
-2.5141018794028467
-2.6987360443528896
-2.895679153632896
-2.7418173495078744
-2.711044988682881
-2.6987360443528896
-2.711044988682881
-2.7171994608478913
-2.711044988682881
-2.723353933012873
-2.680272627857888
-2.624882378372884
-2.649500267032867
-2.6925815721878803
-2.674118155692878
-2.7171994608478913
-2.68642710002287
-2.68642710002287
-2.655654739197877
-2.649500267032867
-2.729508405177883
-2.7418173495078744
-2.729508405177883
-2.6987360443528896
-2.711044988682881
-2.729508405177883
-2.6925815721878803
-2.8033620711578893
-2.772589710332896
-2.747971821672884
-2.760280766002876
-2.7848986546628876
-2.7910531268278973
-2.778744182497905
-2.772589710332896
-2.8095165433228986
-2.8033620711578893
-2.7910531268278973
-2.8156710154879088
-2.772589710332896
-2.711044988682881
-2.83413443198291
-2.8156710154879088
-2.760280766002876
-2.747971821672884
-2.760280766002876
-2.754126293837894
-2.778744182497905
-2.7418173495078744
-2.7171994608478913
-2.760280766002876
-2.8218254876528905
-2.747971821672884
-2.7171994608478913
-2.68642710002287
-2.704890516517872
-2.612573434042864
-2.544874240227868
-2.2309961598128147
-1.8678823020777668
-2.323313242287822
-2.55718318455786
-2.6987360443528896
-2.723353933012873
-2.7418173495078744
-2.772589710332896
-3.2711019556979917
-3.3511100938430074
-2.8464433763129016
-2.8033620711578893
-2.772589710332896
-2.754126293837894
-2.7418173495078744
-2.735662877342893
-2.704890516517872
-2.8033620711578893
-2.778744182497905
-2.760280766002876
-2.766435238167886
-2.723353933012873
-2.7418173495078744
-2.772589710332896
-2.674118155692878
-2.723353933012873
-2.772589710332896
-2.711044988682881
-2.704890516517872
-2.754126293837894
-2.7418173495078744
-2.6987360443528896
-2.6987360443528896
-2.729508405177883
-2.674118155692878
-2.68642710002287
-2.7171994608478913
-2.7418173495078744
-2.704890516517872
-2.7418173495078744
-2.772589710332896
-2.723353933012873
-2.735662877342893
-2.7171994608478913
-2.754126293837894
-2.778744182497905
-2.723353933012873
-2.471020574247862
-1.7632562752727399
-2.471020574247862
-2.8525978484779113
-2.8095165433228986
-2.674118155692878
-2.68642710002287
-2.766435238167886
-3.092622262912931
-3.4434271763180146
-2.9202970422929075
-2.778744182497905
-2.760280766002876
-2.723353933012873
-2.68642710002287
-2.704890516517872
-2.6925815721878803
-2.747971821672884
-2.754126293837894
-2.6433457948678853
-2.6433457948678853
-2.8033620711578893
-2.711044988682881
-2.6987360443528896
-2.747971821672884
-2.83413443198291
-2.747971821672884
-2.723353933012873
-2.778744182497905
-2.7910531268278973
-2.772589710332896
-2.7910531268278973
-2.871061264972913
-2.8464433763129016
-2.729508405177883
-2.797207598992907
-2.760280766002876
-2.7910531268278973
-2.8464433763129016
-2.778744182497905
-2.711044988682881
-2.7418173495078744
-2.68642710002287
-2.649500267032867
-2.704890516517872
-2.723353933012873
-2.661809211362886
-2.612573434042864
-2.5387197680628577
-2.649500267032867
-2.587955545382853
-2.587955545382853
-2.5941100175478624
-2.581801073217871
-2.5941100175478624
-2.587955545382853
-2.563337656722869
-2.55102871239285
-2.6433457948678853
-2.526410823732866
-2.5387197680628577
-2.5325652958978484
-2.477175046412844
-2.544874240227868
-2.360240075277825
-2.575646601052861
-2.704890516517872
-2.606418961877855
-2.587955545382853
-2.606418961877855
-2.624882378372884
-2.606418961877855
-2.649500267032867
-2.649500267032867
-2.6371913227028756
-2.446402685587851
-1.954044912387765
-2.4402482134228407
-2.5941100175478624
-3.191093817552976
-3.2341751227079882
-2.8033620711578893
-2.754126293837894
-2.7418173495078744
-2.747971821672884
-2.6925815721878803
-2.674118155692878
-2.674118155692878
-2.711044988682881
-2.6987360443528896
-2.674118155692878
-2.747971821672884
-2.6987360443528896
-2.667963683527869
-2.655654739197877
-2.6002644897128726
-2.618727906207874
-2.6371913227028756
-2.6433457948678853
-2.631036850537866
-2.624882378372884
-2.606418961877855
-2.618727906207874
-2.6371913227028756
-2.55102871239285
-2.507947407237865
-2.544874240227868
-2.6002644897128726
-2.5941100175478624
-2.5694921288878514
-2.6371913227028756
-2.6002644897128726
-2.587955545382853
-2.667963683527869
-2.68642710002287
-2.631036850537866
-2.606418961877855
-2.661809211362886
-2.649500267032867
-2.680272627857888
-2.729508405177883
-2.661809211362886
-2.655654739197877
-2.6925815721878803
-2.68642710002287
-2.704890516517872
-2.6987360443528896
-2.735662877342893
-2.711044988682881
-2.6925815721878803
-2.704890516517872
-2.754126293837894
-2.649500267032867
-2.255614048472826
-2.4587116299178424
-2.661809211362886
-2.68642710002287
-2.6987360443528896
-2.655654739197877
-2.434093741257831
-2.667963683527869
-2.871061264972913
-2.7418173495078744
-2.772589710332896
-2.766435238167886
-2.7848986546628876
-2.778744182497905
-3.117240151572942
-3.018768596932925
-2.8218254876528905
-2.766435238167886
-2.766435238167886
-2.723353933012873
-2.7171994608478913
-2.729508405177883
-2.704890516517872
-2.661809211362886
-2.661809211362886
-2.661809211362886
-2.680272627857888
-2.631036850537866
-2.6433457948678853
-2.8033620711578893
-2.907988097962916
-3.1726304010579747
-3.357264566007989
-3.5665166196180156
-3.7511507845680576
-3.5849800361130173
-3.1295490959029335
-2.9818417639429216
-3.0310775412629165
-3.2034027618829675
-3.301874316522985
-3.474199537143008
-3.424963759823013
-3.301874316522985
-3.2280206505429785
-3.381882454668
-3.609597924773028
-3.788077617558061
-3.806541034053063
-3.781923145393051
-3.75730525673304
-3.7511507845680576
-3.7449963124030474
-3.738841840238039
-3.726532895908047
-3.720378423743037
-3.701915007248036
-3.6957605350830534
-3.6834515907530343
-3.6711426464230414
-3.658833702093051
-3.6465247577630313
-3.6280613412680296
-3.6219068691030203
-3.615752396938038
-3.6280613412680296
-3.5726710917830253
-3.5665166196180156
-3.554207675288024
-3.5418987309580316
-3.535744258793022
-3.529589786628012
-3.535744258793022
-3.535744258793022
-3.511126370133011
-3.4988174258030194
-3.4865084814730274
-3.474199537143008
-3.461890592813016
-3.449581648482997
-3.437272704153005
-3.424963759823013
-3.4126548154929934
-3.406500343328012
-3.38803692683301
-3.381882454668
-3.363419038172999
-3.357264566007989
-3.3511100938430074
-3.3326466773480057
-3.3203377330179857
-3.308028788687994
-3.2957198443579747
-3.277256427862973
-3.2711019556979917
-3.258793011367972
-3.2403295948729705
-3.2218661783779687
-3.215711706212987
-3.1972482897179852
-3.191093817552976
-3.1726304010579747
-3.1726304010579747
-3.160321456727955
-3.154166984562973
-3.154166984562973
-3.141858040232953
-3.1480125123979352
-3.160321456727955
-3.1664759288929645
-3.178784873222984
-3.1972482897179852
-3.2218661783779687
-3.2280206505429785
-3.25263853920299
-3.258793011367972
-3.2711019556979917
-3.2711019556979917
-3.2711019556979917
-3.2711019556979917
-3.2834109000279827
-3.2711019556979917
-3.2711019556979917
-3.2711019556979917
-3.264947483532982
-3.264947483532982
-3.25263853920299
-3.258793011367972
-3.264947483532982
-3.24648406703798
-3.2403295948729705
-3.2341751227079882
-3.2280206505429785
-3.2280206505429785
-3.2280206505429785
-3.2280206505429785
-3.215711706212987
-3.2095572340479768
-3.2095572340479768
-3.1972482897179852
-3.1972482897179852
-3.191093817552976
-3.1972482897179852
-3.191093817552976
-3.178784873222984
-3.178784873222984
-3.1726304010579747
-3.1726304010579747
-3.1726304010579747
-3.1664759288929645
-3.160321456727955
-3.160321456727955
-3.160321456727955
-3.1480125123979352
-3.154166984562973
-3.1480125123979352
-3.141858040232953
-3.141858040232953
-3.141858040232953
-3.1357035680679433
-3.1295490959029335
-3.1233946237379517
-3.1233946237379517
-3.1233946237379517
-3.1110856794079322
-3.1110856794079322
-3.1110856794079322
-3.117240151572942
-3.1049312072429505
-3.1049312072429505
-3.1049312072429505
-3.1049312072429505
-3.1049312072429505
-3.0987767350779407
-3.092622262912931
-3.092622262912931
-3.0864677907479487
-3.092622262912931
-3.0864677907479487
-3.080313318582939
-3.0864677907479487
-3.0864677907479487
-3.0987767350779407
-3.080313318582939
-3.0618499020879373
-3.055695429922928
-3.0618499020879373
-3.092622262912931
-3.074158846417929
-3.0680043742529195
-3.080313318582939
-3.0864677907479487
-3.074158846417929
-3.0618499020879373
-3.055695429922928
-3.055695429922928
-3.055695429922928
-3.055695429922928
-3.049540957757918
-3.049540957757918
-3.043386485592936
-3.049540957757918
-3.0372320134279267
-3.043386485592936
-3.043386485592936
-3.043386485592936
-3.0372320134279267
-3.0310775412629165
-3.0372320134279267
-3.0310775412629165
-3.0372320134279267
-3.0249230690979347
-3.0310775412629165
-3.0310775412629165
-3.0249230690979347
-3.0310775412629165
-3.0249230690979347
-3.018768596932925
-3.018768596932925
-3.0249230690979347
-3.0249230690979347
-3.018768596932925
-3.018768596932925
-3.018768596932925
-3.0249230690979347
-3.0249230690979347
-3.0249230690979347
-3.0249230690979347
-3.0249230690979347
-3.018768596932925
-3.018768596932925
-3.0249230690979347
-3.018768596932925
-3.018768596932925
-3.0126141247679152
-3.006459652602933
-3.0003051804379233
-3.0003051804379233
-3.0003051804379233
-2.994150708272913
-2.9818417639429216
-2.96953281961293
-2.975687291777912
-2.9818417639429216
-2.9879962361079313
-3.0003051804379233
-3.0003051804379233
-3.0003051804379233
-3.006459652602933
-3.0126141247679152
-3.0249230690979347
-3.0126141247679152
-3.0126141247679152
-3.018768596932925
-3.018768596932925
-3.0126141247679152
-3.018768596932925
-3.0126141247679152
-3.006459652602933
-2.883370209302905
-2.747971821672884
-2.7171994608478913
-2.674118155692878
-2.6925815721878803
-2.6925815721878803
-2.649500267032867
-2.655654739197877
-2.618727906207874
-2.563337656722869
-2.723353933012873
-2.6433457948678853
-2.606418961877855
-2.606418961877855
-2.5941100175478624
-2.5325652958978484
-2.501792935072855
-2.4156303247628297
-2.372549019607845
-2.391012436102846
-2.507947407237865
-2.624882378372884
-2.674118155692878
-2.6002644897128726
-2.704890516517872
-2.649500267032867
-2.680272627857888
-2.6371913227028756
-2.649500267032867
-2.649500267032867
-2.6925815721878803
-2.7171994608478913
-2.729508405177883
-2.7418173495078744
-2.8218254876528905
-2.797207598992907
-2.797207598992907
-2.8033620711578893
-2.9818417639429216
-2.9633783474479203
-2.9572238752829105
-3.0003051804379233
-3.018768596932925
-3.0003051804379233
-3.018768596932925
-3.018768596932925
-3.0249230690979347
-3.0249230690979347
-3.006459652602933
-2.975687291777912
-2.895679153632896
-3.080313318582939
-3.092622262912931
-3.0864677907479487
-3.0864677907479487
-3.0864677907479487
-3.0864677907479487
-3.117240151572942
-3.1049312072429505
-3.074158846417929
-3.049540957757918
-3.0003051804379233
-2.994150708272913
-3.006459652602933
-2.994150708272913
-2.9879962361079313
-2.9818417639429216
-2.975687291777912
-2.975687291777912
-2.96953281961293
-2.944914930952919
-2.932605986622927
-2.7171994608478913
-3.055695429922928
-2.975687291777912
-2.883370209302905
-2.8464433763129016
-2.7848986546628876
-2.8033620711578893
-2.772589710332896
-2.7848986546628876
-2.8218254876528905
-2.729508405177883
-2.704890516517872
-2.704890516517872
-2.7171994608478913
-2.747971821672884
-2.704890516517872
-2.661809211362886
-2.772589710332896
-2.754126293837894
-2.723353933012873
-2.729508405177883
-2.723353933012873
-2.729508405177883
-2.704890516517872
-2.680272627857888
-2.772589710332896
-2.747971821672884
-2.723353933012873
-2.747971821672884
-2.723353933012873
-2.68642710002287
-2.6925815721878803
-2.68642710002287
-2.735662877342893
-2.729508405177883
-2.667963683527869
-2.680272627857888
-2.729508405177883
-2.704890516517872
-2.711044988682881
-2.655654739197877
-2.5141018794028467
-2.6925815721878803
-2.8402889041478923
-2.6925815721878803
-2.667963683527869
-2.649500267032867
-2.661809211362886
-2.667963683527869
-2.6371913227028756
-2.6002644897128726
-2.723353933012873
-2.6433457948678853
-2.655654739197877
-2.6371913227028756
-2.704890516517872
-2.68642710002287
-2.6433457948678853
-2.6371913227028756
-2.655654739197877
-2.674118155692878
-2.674118155692878
-2.68642710002287
-2.661809211362886
-2.631036850537866
-2.747971821672884
-2.649500267032867
-2.649500267032867
-2.674118155692878
-2.667963683527869
-2.661809211362886
-2.6433457948678853
-2.674118155692878
-2.661809211362886
-2.661809211362886
-2.661809211362886
-2.704890516517872
-2.680272627857888
-2.5141018794028467
-2.6002644897128726
-2.674118155692878
-2.649500267032867
-2.6925815721878803
-2.667963683527869
-2.68642710002287
-2.704890516517872
-2.6371913227028756
-2.631036850537866
-2.6925815721878803
-2.6371913227028756
-2.667963683527869
-2.680272627857888
-2.711044988682881
-2.8402889041478923
-2.7171994608478913
-2.68642710002287
-2.68642710002287
-2.6433457948678853
-2.667963683527869
-2.4525571577528327
-1.7817196917677414
-2.606418961877855
-2.778744182497905
-3.4311182319879947
-3.0249230690979347
-2.7910531268278973
-2.674118155692878
-2.704890516517872
-2.7910531268278973
-2.674118155692878
-2.655654739197877
-2.68642710002287
-2.735662877342893
-2.704890516517872
-2.68642710002287
-2.680272627857888
-2.704890516517872
-2.6925815721878803
-2.409475852597848
-2.797207598992907
-2.883370209302905
-2.8279799598179
-2.754126293837894
-2.735662877342893
-2.735662877342893
-2.723353933012873
-2.7418173495078744
-2.747971821672884
-2.7418173495078744
-2.7418173495078744
-2.729508405177883
-2.6925815721878803
-2.68642710002287
-2.7171994608478913
-2.655654739197877
-2.612573434042864
-2.674118155692878
-2.674118155692878
-2.661809211362886
-2.674118155692878
-2.680272627857888
-2.680272627857888
-2.655654739197877
-2.661809211362886
-2.606418961877855
-2.581801073217871
-2.544874240227868
-2.526410823732866
-2.4279392690928487
-2.4279392690928487
-2.575646601052861
-2.729508405177883
-2.723353933012873
-2.704890516517872
-2.7171994608478913
-2.704890516517872
-2.723353933012873
-2.7171994608478913
-2.655654739197877
-2.704890516517872
-2.6987360443528896
-2.723353933012873
-2.680272627857888
-2.624882378372884
-2.8464433763129016
-2.747971821672884
-2.1202156608428053
-2.4402482134228407
-2.5694921288878514
-2.6371913227028756
-2.667963683527869
-2.68642710002287
-2.6987360443528896
-2.9510694031179288
-3.492662953638009
-3.184939345387966
-3.2711019556979917
-3.3203377330179857
-3.4988174258030194
-3.5665166196180156
-3.5665166196180156
-3.548053203123014
-3.535744258793022
-3.5234353144630304
-3.511126370133011
-3.492662953638009
-3.4803540093080176
-3.468045064977998
-3.461890592813016
-3.449581648482997
-3.4434271763180146
-3.4434271763180146
-3.4311182319879947
-3.4126548154929934
-3.400345871163002
-3.375727982502991
-3.369573510338009
-3.3511100938430074
-3.338801149512988
-3.3141832608529764
-3.301874316522985
-3.2834109000279827
-3.264947483532982
-3.24648406703798
-3.2280206505429785
-3.215711706212987
-3.2095572340479768
-3.1972482897179852
-3.184939345387966
-3.184939345387966
-3.1726304010579747
-3.1726304010579747
-3.184939345387966
-3.1972482897179852
-3.154166984562973
-2.9879962361079313
-2.83413443198291
-2.8033620711578893
-2.8095165433228986
-2.8095165433228986
-2.9387604587879093
-2.8156710154879088
-2.575646601052861
-2.8279799598179
-2.858752320642893
-2.895679153632896
-2.8895246814679143
-2.877215737137895
-3.0618499020879373
-3.5418987309580316
-3.1049312072429505
-2.8895246814679143
-2.8525978484779113
-2.8156710154879088
-2.8895246814679143
-2.883370209302905
-2.895679153632896
-2.9510694031179288
-2.944914930952919
-2.932605986622927
-2.9633783474479203
-3.0003051804379233
-3.092622262912931
-3.191093817552976
-3.25263853920299
-3.2711019556979917
-3.258793011367972
-3.2218661783779687
-3.1972482897179852
-3.25263853920299
-3.258793011367972
-3.264947483532982
-3.2711019556979917
-3.2711019556979917
-3.2711019556979917
-3.2711019556979917
-3.258793011367972
-3.258793011367972
-3.25263853920299
-3.2403295948729705
-3.24648406703798
-3.2341751227079882
-3.2403295948729705
-3.2403295948729705
-3.2280206505429785
-3.215711706212987
-3.2095572340479768
-3.2095572340479768
-3.2034027618829675
-3.1972482897179852
-3.191093817552976
-3.184939345387966
-3.178784873222984
-3.1726304010579747
-3.1664759288929645
-3.1664759288929645
-3.1726304010579747
-3.1726304010579747
-3.1664759288929645
-3.154166984562973
-3.1480125123979352
-3.141858040232953
-3.141858040232953
-3.1357035680679433
-3.1357035680679433
-3.1295490959029335
-3.1233946237379517
-3.1110856794079322
-3.117240151572942
-3.1049312072429505
-3.0987767350779407
-3.1049312072429505
-3.0987767350779407
-3.092622262912931
-3.092622262912931
-3.092622262912931
-3.092622262912931
-3.080313318582939
-3.0864677907479487
-3.080313318582939
-3.074158846417929
-3.0680043742529195
-3.0680043742529195
-3.0618499020879373
-3.055695429922928
-3.055695429922928
-3.055695429922928
-3.049540957757918
-3.049540957757918
-3.049540957757918
-3.043386485592936
-3.0372320134279267
-3.0372320134279267
-3.043386485592936
-3.0310775412629165
-3.0372320134279267
-3.0310775412629165
-3.0310775412629165
-3.018768596932925
-3.0126141247679152
-3.006459652602933
-3.006459652602933
-3.006459652602933
-2.994150708272913
-2.9818417639429216
-2.96953281961293
-2.96953281961293
-2.975687291777912
-2.9818417639429216
-2.994150708272913
-2.994150708272913
-2.994150708272913
-2.994150708272913
-3.0003051804379233
-3.0003051804379233
-3.0003051804379233
-3.0126141247679152
-3.0126141247679152
-3.0126141247679152
-3.006459652602933
-3.0126141247679152
-3.0126141247679152
-3.0003051804379233
-3.0003051804379233
-3.0126141247679152
-2.994150708272913
-2.9879962361079313
-3.0003051804379233
-3.0003051804379233
-2.994150708272913
-2.994150708272913
-2.994150708272913
-2.994150708272913
-3.0003051804379233
-2.9818417639429216
-2.9572238752829105
-2.895679153632896
-2.8402889041478923
-2.778744182497905
-2.68642710002287
-2.544874240227868
-2.434093741257831
-2.4525571577528327
-2.68642710002287
-2.9141425701278982
-3.055695429922928
-3.0249230690979347
-2.994150708272913
-2.975687291777912
-2.9818417639429216
-2.994150708272913
-2.994150708272913
-2.9879962361079313
-2.9879962361079313
-2.994150708272913
-3.0003051804379233
-2.994150708272913
-2.994150708272913
-2.9818417639429216
-2.9818417639429216
-2.9818417639429216
-2.9818417639429216
-2.96953281961293
-2.96953281961293
-2.975687291777912
-2.9633783474479203
-2.9572238752829105
-2.9633783474479203
-2.9633783474479203
-2.9572238752829105
-2.9633783474479203
-2.9510694031179288
-2.9387604587879093
-2.944914930952919
-2.9387604587879093
-2.9387604587879093
-2.932605986622927
-2.9264515144579173
-2.9141425701278982
-2.907988097962916
-2.9141425701278982
-2.907988097962916
-2.907988097962916
-2.901833625797906
-2.901833625797906
-2.895679153632896
-2.883370209302905
-2.883370209302905
-2.871061264972913
-2.858752320642893
-2.8525978484779113
-2.8402889041478923
-2.8402889041478923
-2.83413443198291
-2.8156710154879088
-2.8156710154879088
-2.8095165433228986
-2.797207598992907
-2.8033620711578893
-2.7910531268278973
-2.7910531268278973
-2.7848986546628876
-2.772589710332896
-2.778744182497905
-2.7910531268278973
-2.8033620711578893
-2.8156710154879088
-2.8279799598179
-2.8525978484779113
-2.877215737137895
-2.883370209302905
-2.901833625797906
-2.932605986622927
-2.9387604587879093
-2.9510694031179288
-2.9633783474479203
-2.9633783474479203
-2.96953281961293
-2.96953281961293
-2.975687291777912
-2.975687291777912
-2.9818417639429216
-2.9818417639429216
-2.9879962361079313
-2.9818417639429216
-2.975687291777912
-2.9633783474479203
-2.96953281961293
-2.975687291777912
-2.9818417639429216
-2.9818417639429216
-2.9818417639429216
-2.975687291777912
-2.975687291777912
-2.96953281961293
-2.96953281961293
-2.9633783474479203
-2.9633783474479203
-2.96953281961293
-2.975687291777912
-2.9879962361079313
-2.9818417639429216
-2.975687291777912
-2.96953281961293
-2.96953281961293
-2.96953281961293
-2.9633783474479203
-2.944914930952919
-2.9510694031179288
-2.9510694031179288
-2.9510694031179288
-2.9510694031179288
-2.9633783474479203
-2.9879962361079313
-2.96953281961293
-2.9633783474479203
-2.9572238752829105
-2.9510694031179288
-2.9510694031179288
-2.9510694031179288
-2.9510694031179288
-2.9572238752829105
-2.9387604587879093
-2.932605986622927
-2.932605986622927
-2.932605986622927
-2.932605986622927
-2.9387604587879093
-2.944914930952919
-2.96953281961293
-2.9572238752829105
-2.944914930952919
-2.9387604587879093
-2.932605986622927
-2.9387604587879093
-2.932605986622927
-2.932605986622927
-2.932605986622927
-2.932605986622927
-2.9264515144579173
-2.9264515144579173
-2.9202970422929075
-2.932605986622927
-2.932605986622927
-2.9264515144579173
-2.9202970422929075
-2.9264515144579173
-2.9202970422929075
-2.907988097962916
-2.907988097962916
-2.907988097962916
-2.907988097962916
-2.907988097962916
-2.907988097962916
-2.9141425701278982
-2.907988097962916
-2.907988097962916
-2.901833625797906
-2.901833625797906
-2.895679153632896
-2.907988097962916
-2.901833625797906
-2.901833625797906
-2.901833625797906
-2.907988097962916
-2.901833625797906
-2.901833625797906
-2.8895246814679143
-2.895679153632896
-2.907988097962916
-2.907988097962916
-2.901833625797906
-2.901833625797906
-2.907988097962916
-2.901833625797906
-2.901833625797906
-2.895679153632896
-2.895679153632896
-2.895679153632896
-2.895679153632896
-2.8895246814679143
-2.883370209302905
-2.883370209302905
-2.8895246814679143
-2.8895246814679143
-2.877215737137895
-2.8649067928079033
-2.8525978484779113
-2.8649067928079033
-2.877215737137895
-2.883370209302905
-2.8895246814679143
-2.8895246814679143
-2.8895246814679143
-2.8895246814679143
-2.895679153632896
-2.895679153632896
-2.901833625797906
-2.895679153632896
-2.901833625797906
-2.901833625797906
-2.895679153632896
-2.901833625797906
-2.901833625797906
-2.895679153632896
-2.901833625797906
-2.895679153632896
-2.895679153632896
-2.901833625797906
-2.901833625797906
-2.901833625797906
-2.895679153632896
-2.895679153632896
-2.8895246814679143
-2.901833625797906
-2.8895246814679143
-2.8525978484779113
-2.8033620711578893
-2.735662877342893
-2.680272627857888
-2.581801073217871
-2.446402685587851
-2.323313242287822
-2.3663945474428347
-2.606418961877855
-2.83413443198291
-2.96953281961293
-2.944914930952919
-2.9202970422929075
-2.877215737137895
-2.8895246814679143
-2.9202970422929075
-2.907988097962916
-2.907988097962916
-2.895679153632896
-2.901833625797906
-2.901833625797906
-2.901833625797906
-2.901833625797906
-2.901833625797906
-2.901833625797906
-2.907988097962916
-2.901833625797906
-2.8895246814679143
-2.8895246814679143
-2.883370209302905
-2.883370209302905
-2.883370209302905
-2.883370209302905
-2.871061264972913
-2.877215737137895
-2.871061264972913
-2.8649067928079033
-2.8649067928079033
-2.8464433763129016
-2.8218254876528905
-2.83413443198291
-2.8402889041478923
-2.8464433763129016
-2.8402889041478923
-2.8464433763129016
-2.83413443198291
-2.8279799598179
-2.83413443198291
-2.83413443198291
-2.83413443198291
-2.8279799598179
-2.8218254876528905
-2.8156710154879088
-2.83413443198291
-2.8279799598179
-2.8033620711578893
-2.7910531268278973
-2.7848986546628876
-2.778744182497905
-2.778744182497905
-2.772589710332896
-2.766435238167886
-2.754126293837894
-2.6371913227028756
-2.5387197680628577
-2.5694921288878514
-2.55718318455786
-2.5941100175478624
-2.5694921288878514
-2.5325652958978484
-2.575646601052861
-2.563337656722869
-2.587955545382853
-2.581801073217871
-2.55718318455786
-2.3971669082678284
-2.624882378372884
-2.729508405177883
-2.6371913227028756
-2.618727906207874
-2.575646601052861
-2.563337656722869
-2.661809211362886
-2.606418961877855
-2.581801073217871
-2.6002644897128726
-2.631036850537866
-2.581801073217871
-2.624882378372884
-2.606418961877855
-2.587955545382853
-2.624882378372884
-2.5941100175478624
-2.563337656722869
-2.575646601052861
-2.587955545382853
-2.649500267032867
-2.575646601052861
-2.587955545382853
-2.581801073217871
-2.5941100175478624
-2.5694921288878514
-2.6371913227028756
-2.581801073217871
-2.6002644897128726
-2.581801073217871
-2.55102871239285
-2.587955545382853
-2.55102871239285
-2.4894839907428636
-2.661809211362886
-2.5941100175478624
-2.606418961877855
-2.6002644897128726
-2.6002644897128726
-2.587955545382853
-2.5941100175478624
-2.606418961877855
-2.606418961877855
-2.581801073217871
-2.624882378372884
-2.631036850537866
-2.618727906207874
-2.5325652958978484
-2.729508405177883
-2.655654739197877
-2.649500267032867
-2.674118155692878
-2.624882378372884
-2.631036850537866
-2.661809211362886
-2.6371913227028756
-2.606418961877855
-2.471020574247862
-1.990971745377768
-2.360240075277825
-2.507947407237865
-2.4894839907428636
-2.6002644897128726
-2.624882378372884
-3.049540957757918
-3.363419038172999
-2.8095165433228986
-2.655654739197877
-2.655654739197877
-2.655654739197877
-2.631036850537866
-2.618727906207874
-2.624882378372884
-2.68642710002287
-2.6433457948678853
-2.606418961877855
-2.68642710002287
-2.661809211362886
-2.631036850537866
-2.6433457948678853
-2.6433457948678853
-2.661809211362886
-2.649500267032867
-2.655654739197877
-2.631036850537866
-2.6371913227028756
-2.655654739197877
-2.618727906207874
-2.606418961877855
-2.477175046412844
-2.1079067165127863
-2.477175046412844
-2.6002644897128726
-2.624882378372884
-2.618727906207874
-2.624882378372884
-2.674118155692878
-2.8525978484779113
-2.9879962361079313
-3.092622262912931
-3.1726304010579747
-3.2218661783779687
-3.24648406703798
-3.2834109000279827
-3.338801149512988
-3.301874316522985
-3.289565372192993
-3.2834109000279827
-3.2834109000279827
-3.289565372192993
-3.2834109000279827
-3.277256427862973
-3.277256427862973
-3.2711019556979917
-3.258793011367972
-3.25263853920299
-3.25263853920299
-3.2403295948729705
-3.2280206505429785
-3.2341751227079882
-3.2341751227079882
-3.2341751227079882
-3.2095572340479768
-3.215711706212987
-3.215711706212987
-3.1972482897179852
-3.184939345387966
-3.1480125123979352
-3.0864677907479487
-3.018768596932925
-2.944914930952919
-2.8279799598179
-2.680272627857888
-2.6002644897128726
-2.7171994608478913
-2.9633783474479203
-3.1664759288929645
-3.258793011367972
-3.2095572340479768
-3.1726304010579747
-3.141858040232953
-3.1357035680679433
-3.1357035680679433
-3.154166984562973
-3.1357035680679433
-3.117240151572942
-3.1110856794079322
-3.117240151572942
-3.1049312072429505
-3.1049312072429505
-3.1110856794079322
-3.1233946237379517
-3.1233946237379517
-3.0987767350779407
-3.092622262912931
-3.0864677907479487
-3.080313318582939
-3.074158846417929
-3.0680043742529195
-3.0680043742529195
-3.049540957757918
-3.055695429922928
-3.043386485592936
-3.0372320134279267
-3.0249230690979347
-3.0310775412629165
-3.0249230690979347
-3.0249230690979347
-3.006459652602933
-2.9633783474479203
-2.8279799598179
-2.735662877342893
-2.7171994608478913
-2.674118155692878
-2.618727906207874
-2.8033620711578893
-2.858752320642893
-2.901833625797906
-2.9387604587879093
-2.96953281961293
-3.0126141247679152
-2.9510694031179288
-2.9572238752829105
-2.9633783474479203
-2.932605986622927
-2.9202970422929075
-2.907988097962916
-2.8895246814679143
-2.877215737137895
-2.883370209302905
-2.871061264972913
-2.8649067928079033
-2.858752320642893
-2.8525978484779113
-2.8464433763129016
-2.858752320642893
-2.8649067928079033
-2.871061264972913
-2.883370209302905
-2.901833625797906
-2.9202970422929075
-2.944914930952919
-2.9510694031179288
-2.9510694031179288
-2.975687291777912
-2.994150708272913
-3.006459652602933
-3.0126141247679152
-3.018768596932925
-3.018768596932925
-3.0249230690979347
-3.0249230690979347
-3.018768596932925
-3.018768596932925
-3.018768596932925
-3.0249230690979347
-3.018768596932925
-3.043386485592936
-3.0372320134279267
-3.018768596932925
-3.018768596932925
-3.0126141247679152
-3.006459652602933
-3.0003051804379233
-3.0003051804379233
-3.0003051804379233
-2.994150708272913
-2.994150708272913
-2.9879962361079313
-2.994150708272913
-2.9818417639429216
-2.9879962361079313
-2.9818417639429216
-2.9879962361079313
-2.9818417639429216
-2.9818417639429216
-2.96953281961293
-2.975687291777912
-2.96953281961293
-2.975687291777912
-2.9633783474479203
-2.9633783474479203
-2.9572238752829105
-2.96953281961293
-2.9572238752829105
-2.944914930952919
-2.9510694031179288
-2.9572238752829105
-2.9572238752829105
-2.944914930952919
-2.9510694031179288
-2.944914930952919
-2.9510694031179288
-2.9510694031179288
-2.9510694031179288
-2.9510694031179288
-2.9510694031179288
-2.9510694031179288
-2.9387604587879093
-2.9387604587879093
-2.944914930952919
-2.9387604587879093
-2.944914930952919
-2.9387604587879093
-2.9387604587879093
-2.9387604587879093
-2.944914930952919
-2.9387604587879093
-2.944914930952919
-2.9387604587879093
-2.9387604587879093
-2.9387604587879093
-2.9387604587879093
-2.9387604587879093
-2.944914930952919
-2.9387604587879093
-2.9387604587879093
-2.932605986622927
-2.932605986622927
-2.9264515144579173
-2.932605986622927
-2.9264515144579173
-2.9264515144579173
-2.932605986622927
-2.9202970422929075
-2.9264515144579173
-2.9387604587879093
-2.9264515144579173
-2.932605986622927
-2.9202970422929075
-2.9264515144579173
-2.9202970422929075
-2.9202970422929075
-2.9141425701278982
-2.907988097962916
-2.901833625797906
-2.895679153632896
-2.8895246814679143
-2.8895246814679143
-2.871061264972913
-2.8649067928079033
-2.877215737137895
-2.895679153632896
-2.877215737137895
-2.883370209302905
-2.883370209302905
-2.8895246814679143
-2.895679153632896
-2.9264515144579173
-2.9387604587879093
-2.9264515144579173
-2.9264515144579173
-2.9264515144579173
-2.9202970422929075
-2.9141425701278982
-2.9141425701278982
-2.907988097962916
-2.9202970422929075
-2.907988097962916
-2.907988097962916
-2.907988097962916
-2.907988097962916
-2.907988097962916
-2.901833625797906
-2.901833625797906
-2.907988097962916
-2.907988097962916
-2.907988097962916
-2.901833625797906
-2.8649067928079033
-2.8095165433228986
-2.754126293837894
-2.6925815721878803
-2.612573434042864
-2.4894839907428636
-2.3663945474428347
-2.3540856031128428
-2.55718318455786
-2.797207598992907
-2.9633783474479203
-2.9572238752829105
-2.9141425701278982
-2.8895246814679143
-2.901833625797906
-2.9202970422929075
-2.9141425701278982
-2.9141425701278982
-2.907988097962916
-2.901833625797906
-2.895679153632896
-2.895679153632896
-2.8895246814679143
-2.8895246814679143
-2.883370209302905
-2.8895246814679143
-2.883370209302905
-2.883370209302905
-2.877215737137895
-2.877215737137895
-2.883370209302905
-2.871061264972913
-2.877215737137895
-2.8649067928079033
-2.8649067928079033
-2.8649067928079033
-2.8649067928079033
-2.8464433763129016
-2.8464433763129016
-2.8464433763129016
-2.8464433763129016
-2.8464433763129016
-2.83413443198291
-2.83413443198291
-2.83413443198291
-2.83413443198291
-2.8279799598179
-2.8218254876528905
-2.8156710154879088
-2.8156710154879088
-2.8095165433228986
-2.8095165433228986
-2.797207598992907
-2.7848986546628876
-2.7848986546628876
-2.778744182497905
-2.766435238167886
-2.754126293837894
-2.747971821672884
-2.7418173495078744
-2.729508405177883
-2.723353933012873
-2.723353933012873
-2.7171994608478913
-2.704890516517872
-2.711044988682881
-2.704890516517872
-2.6987360443528896
-2.6925815721878803
-2.704890516517872
-2.7171994608478913
-2.723353933012873
-2.7418173495078744
-2.772589710332896
-2.7910531268278973
-2.8095165433228986
-2.83413443198291
-2.8402889041478923
-2.8649067928079033
-2.871061264972913
-2.877215737137895
-2.8895246814679143
-2.901833625797906
-2.907988097962916
-2.907988097962916
-2.901833625797906
-2.9141425701278982
-2.907988097962916
-2.901833625797906
-2.907988097962916
-2.907988097962916
-2.907988097962916
-2.901833625797906
-2.901833625797906
-2.895679153632896
-2.895679153632896
-2.883370209302905
-2.901833625797906
-2.9141425701278982
-2.901833625797906
-2.895679153632896
-2.895679153632896
-2.8895246814679143
-2.895679153632896
-2.895679153632896
-2.8895246814679143
-2.895679153632896
-2.8895246814679143
-2.8895246814679143
-2.8895246814679143
-2.877215737137895
-2.883370209302905
-2.883370209302905
-2.877215737137895
-2.883370209302905
-2.877215737137895
-2.877215737137895
-2.883370209302905
-2.871061264972913
-2.877215737137895
-2.8649067928079033
-2.877215737137895
-2.877215737137895
-2.877215737137895
-2.871061264972913
-2.871061264972913
-2.8649067928079033
-2.858752320642893
-2.858752320642893
-2.871061264972913
-2.858752320642893
-2.8464433763129016
-2.8525978484779113
-2.8649067928079033
-2.858752320642893
-2.858752320642893
-2.871061264972913
-2.895679153632896
-2.8895246814679143
-2.877215737137895
-2.871061264972913
-2.877215737137895
-2.883370209302905
-2.871061264972913
-2.871061264972913
-2.877215737137895
-2.871061264972913
-2.8649067928079033
-2.871061264972913
-2.8649067928079033
-2.8649067928079033
-2.871061264972913
-2.871061264972913
-2.877215737137895
-2.8649067928079033
-2.8649067928079033
-2.8649067928079033
-2.877215737137895
-2.8649067928079033
-2.8649067928079033
-2.871061264972913
-2.877215737137895
-2.8649067928079033
-2.871061264972913
-2.871061264972913
-2.8649067928079033
-2.8649067928079033
-2.871061264972913
-2.877215737137895
-2.877215737137895
-2.8649067928079033
-2.858752320642893
-2.8525978484779113
-2.8525978484779113
-2.8464433763129016
-2.83413443198291
-2.8279799598179
-2.8279799598179
-2.83413443198291
-2.83413443198291
-2.8464433763129016
-2.8464433763129016
-2.8525978484779113
-2.8525978484779113
-2.8525978484779113
-2.858752320642893
-2.8649067928079033
-2.8649067928079033
-2.871061264972913
-2.8649067928079033
-2.877215737137895
-2.877215737137895
-2.8895246814679143
-2.871061264972913
-2.8649067928079033
-2.8649067928079033
-2.877215737137895
-2.871061264972913
-2.8649067928079033
-2.877215737137895
-2.877215737137895
-2.877215737137895
-2.871061264972913
-2.877215737137895
-2.877215737137895
-2.871061264972913
-2.83413443198291
-2.7848986546628876
-2.729508405177883
-2.674118155692878
-2.581801073217871
-2.4648661020828517
-2.3356221866178415
-2.3356221866178415
-2.544874240227868
-2.778744182497905
-2.944914930952919
-2.9387604587879093
-2.877215737137895
-2.858752320642893
-2.858752320642893
-2.871061264972913
-2.883370209302905
-2.895679153632896
-2.907988097962916
-2.901833625797906
-2.883370209302905
-2.8895246814679143
-2.8895246814679143
-2.877215737137895
-2.877215737137895
-2.883370209302905
-2.877215737137895
-2.877215737137895
-2.8649067928079033
-2.8649067928079033
-2.871061264972913
-2.858752320642893
-2.858752320642893
-2.858752320642893
-2.858752320642893
-2.8525978484779113
-2.858752320642893
-2.8464433763129016
-2.8525978484779113
-2.8525978484779113
-2.8464433763129016
-2.8402889041478923
-2.8402889041478923
-2.83413443198291
-2.83413443198291
-2.8279799598179
-2.8218254876528905
-2.8218254876528905
-2.8156710154879088
-2.8095165433228986
-2.8095165433228986
-2.797207598992907
-2.797207598992907
-2.7910531268278973
-2.7848986546628876
-2.778744182497905
-2.772589710332896
-2.766435238167886
-2.754126293837894
-2.754126293837894
-2.747971821672884
-2.7418173495078744
-2.735662877342893
-2.729508405177883
-2.729508405177883
-2.723353933012873
-2.723353933012873
-2.723353933012873
-2.7171994608478913
-2.729508405177883
-2.729508405177883
-2.754126293837894
-2.772589710332896
-2.7910531268278973
-2.8095165433228986
-2.8218254876528905
-2.83413443198291
-2.8525978484779113
-2.8649067928079033
-2.883370209302905
-2.8895246814679143
-2.901833625797906
-2.907988097962916
-2.901833625797906
-2.907988097962916
-2.9141425701278982
-2.9141425701278982
-2.907988097962916
-2.9141425701278982
-2.907988097962916
-2.9141425701278982
-2.9141425701278982
-2.9264515144579173
-2.9141425701278982
-2.9202970422929075
-2.907988097962916
-2.907988097962916
-2.907988097962916
-2.9141425701278982
-2.907988097962916
-2.907988097962916
-2.901833625797906
-2.901833625797906
-2.901833625797906
-2.901833625797906
-2.8895246814679143
-2.907988097962916
-2.901833625797906
-2.895679153632896
-2.901833625797906
-2.901833625797906
-2.907988097962916
-2.9141425701278982
-2.907988097962916
-2.901833625797906
-2.907988097962916
-2.895679153632896
-2.895679153632896
-2.895679153632896
-2.883370209302905
-2.883370209302905
-2.883370209302905
-2.760280766002876
-2.618727906207874
-2.581801073217871
-2.587955545382853
-2.55718318455786
-2.5387197680628577
-2.612573434042864
-2.55102871239285
-2.575646601052861
-2.5941100175478624
-2.298695353627811
-1.855573357747775
-2.778744182497905
-3.24648406703798
-3.049540957757918
-2.711044988682881
-2.631036850537866
-2.581801073217871
-2.5941100175478624
-2.581801073217871
-2.55102871239285
-2.55718318455786
-2.6371913227028756
-2.624882378372884
-2.575646601052861
-2.5387197680628577
-2.667963683527869
-2.624882378372884
-2.6002644897128726
-2.6002644897128726
-2.5941100175478624
-2.5941100175478624
-2.618727906207874
-2.5941100175478624
-2.606418961877855
-2.6002644897128726
-2.661809211362886
-2.618727906207874
-2.5941100175478624
-2.5694921288878514
-2.680272627857888
-2.649500267032867
-2.5941100175478624
-2.649500267032867
-2.624882378372884
-2.655654739197877
-2.6433457948678853
-2.6371913227028756
-2.649500267032867
-2.6433457948678853
-2.6925815721878803
-2.704890516517872
-2.618727906207874
-2.6433457948678853
-2.735662877342893
-2.760280766002876
-2.729508405177883
-2.723353933012873
-2.711044988682881
-2.711044988682881
-2.6371913227028756
-2.723353933012873
-2.704890516517872
-2.6987360443528896
-2.68642710002287
-2.667963683527869
-2.667963683527869
-2.6371913227028756
-2.520256351567857
-2.661809211362886
-2.667963683527869
-2.68642710002287
-2.68642710002287
-2.649500267032867
-2.4587116299178424
-2.680272627857888
-2.7910531268278973
-2.7171994608478913
-2.729508405177883
-2.723353933012873
-2.6925815721878803
-2.606418961877855
-2.360240075277825
-2.409475852597848
-2.526410823732866
-2.495638462907845
-2.3971669082678284
-2.3971669082678284
-2.526410823732866
-2.6433457948678853
-2.735662877342893
-2.760280766002876
-2.711044988682881
-2.6987360443528896
-2.6987360443528896
-2.729508405177883
-3.0372320134279267
-2.9572238752829105
-2.7910531268278973
-2.8033620711578893
-2.8033620711578893
-2.747971821672884
-2.7418173495078744
-2.7418173495078744
-2.760280766002876
-2.760280766002876
-2.760280766002876
-2.711044988682881
-2.772589710332896
-2.711044988682881
-2.649500267032867
-2.797207598992907
-2.766435238167886
-2.772589710332896
-2.7848986546628876
-2.409475852597848
-2.2740774649678275
-2.4587116299178424
-2.631036850537866
-2.68642710002287
-2.711044988682881
-2.735662877342893
-2.754126293837894
-3.2341751227079882
-3.2034027618829675
-2.901833625797906
-2.7848986546628876
-2.772589710332896
-2.760280766002876
-2.778744182497905
-2.7418173495078744
-2.729508405177883
-2.55102871239285
-1.966353856717784
-2.704890516517872
-2.729508405177883
-2.7418173495078744
-2.6925815721878803
-2.6987360443528896
-3.468045064977998
-3.0864677907479487
-2.766435238167886
-2.723353933012873
-2.723353933012873
-2.711044988682881
-2.680272627857888
-2.655654739197877
-2.68642710002287
-2.723353933012873
-2.667963683527869
-2.6925815721878803
-2.704890516517872
-2.6002644897128726
-2.778744182497905
-2.520256351567857
-2.8156710154879088
-2.9387604587879093
-2.797207598992907
-2.7910531268278973
-2.7848986546628876
-2.7910531268278973
-2.797207598992907
-2.8095165433228986
-2.7910531268278973
-2.7910531268278973
-2.83413443198291
-2.6987360443528896
-2.661809211362886
-2.8156710154879088
-2.858752320642893
-2.8895246814679143
-3.0126141247679152
-3.1233946237379517
-3.24648406703798
-3.3326466773480057
-3.3511100938430074
-3.3511100938430074
-3.344955621677997
-3.338801149512988
-3.3326466773480057
-3.3326466773480057
-3.326492205182996
-3.326492205182996
-3.308028788687994
-3.2957198443579747
-3.2957198443579747
-3.2834109000279827
-3.2834109000279827
-3.2711019556979917
-3.264947483532982
-3.25263853920299
-3.25263853920299
-3.25263853920299
-3.2403295948729705
-3.2280206505429785
-3.2341751227079882
-3.2280206505429785
-3.2095572340479768
-3.2034027618829675
-3.2034027618829675
-3.1972482897179852
-3.1972482897179852
-3.184939345387966
-3.184939345387966
-3.184939345387966
-3.178784873222984
-3.1726304010579747
-3.1726304010579747
-3.160321456727955
-3.160321456727955
-3.160321456727955
-3.1480125123979352
-3.1480125123979352
-3.1357035680679433
-3.141858040232953
-3.141858040232953
-3.1357035680679433
-3.1233946237379517
-3.1295490959029335
-3.1233946237379517
-3.117240151572942
-3.117240151572942
-3.1049312072429505
-3.1049312072429505
-3.0987767350779407
-3.092622262912931
-3.0987767350779407
-3.092622262912931
-3.0864677907479487
-3.080313318582939
-3.0864677907479487
-3.074158846417929
-3.080313318582939
-3.074158846417929
-3.074158846417929
-3.0680043742529195
-3.074158846417929
-3.0618499020879373
-3.0618499020879373
-3.0618499020879373
-3.055695429922928
-3.055695429922928
-3.049540957757918
-3.049540957757918
-3.043386485592936
-3.043386485592936
-3.0310775412629165
-3.018768596932925
-3.018768596932925
-3.0126141247679152
-3.018768596932925
-3.006459652602933
-2.994150708272913
-2.9818417639429216
-2.9879962361079313
-3.006459652602933
-2.994150708272913
-3.0249230690979347
-3.0249230690979347
-3.018768596932925
-3.0126141247679152
-3.006459652602933
-3.018768596932925
-3.0126141247679152
-3.0126141247679152
-3.006459652602933
-3.0126141247679152
-3.006459652602933
-3.006459652602933
-3.0003051804379233
-3.006459652602933
-2.994150708272913
-2.994150708272913
-3.0003051804379233
-2.994150708272913
-2.994150708272913
-2.994150708272913
-2.9818417639429216
-2.9818417639429216
-2.975687291777912
-2.9879962361079313
-2.9879962361079313
-2.96953281961293
-2.9264515144579173
-2.8649067928079033
-2.8033620711578893
-2.7418173495078744
-2.631036850537866
-2.5141018794028467
-2.4217847969278394
-2.507947407237865
-2.729508405177883
-2.944914930952919
-3.018768596932925
-2.9633783474479203
-2.944914930952919
-2.944914930952919
-2.9572238752829105
-2.9572238752829105
-2.9633783474479203
-2.9572238752829105
-2.9633783474479203
-2.9510694031179288
-2.9572238752829105
-2.9510694031179288
-2.9633783474479203
-2.9572238752829105
-2.9572238752829105
-2.96953281961293
-2.9633783474479203
-2.9510694031179288
-2.944914930952919
-2.9510694031179288
-2.944914930952919
-2.932605986622927
-2.9387604587879093
-2.932605986622927
-2.9264515144579173
-2.9264515144579173
-2.9202970422929075
-2.9202970422929075
-2.907988097962916
-2.901833625797906
-2.901833625797906
-2.901833625797906
-2.901833625797906
-2.895679153632896
-2.8895246814679143
-2.883370209302905
-2.883370209302905
-2.871061264972913
-2.877215737137895
-2.8649067928079033
-2.858752320642893
-2.858752320642893
-2.8525978484779113
-2.8402889041478923
-2.83413443198291
-2.8218254876528905
-2.8279799598179
-2.8095165433228986
-2.8095165433228986
-2.797207598992907
-2.7848986546628876
-2.778744182497905
-2.772589710332896
-2.766435238167886
-2.760280766002876
-2.760280766002876
-2.754126293837894
-2.754126293837894
-2.754126293837894
-2.760280766002876
-2.778744182497905
-2.797207598992907
-2.8095165433228986
-2.83413443198291
-2.8525978484779113
-2.8649067928079033
-2.883370209302905
-2.907988097962916
-2.9141425701278982
-2.9264515144579173
-2.932605986622927
-2.9387604587879093
-2.9510694031179288
-2.9510694031179288
-2.9572238752829105
-2.9572238752829105
-2.9510694031179288
-2.9572238752829105
-2.9572238752829105
-2.9572238752829105
-2.9510694031179288
-2.9510694031179288
-2.9572238752829105
-2.9510694031179288
-2.9633783474479203
-2.9387604587879093
-2.944914930952919
-2.9387604587879093
-2.9387604587879093
-2.9510694031179288
-2.9818417639429216
-2.96953281961293
-2.9633783474479203
-2.9510694031179288
-2.9510694031179288
-2.9510694031179288
-2.9510694031179288
-2.9510694031179288
-2.944914930952919
-2.9387604587879093
-2.9387604587879093
-2.944914930952919
-2.944914930952919
-2.944914930952919
-2.9387604587879093
-2.9387604587879093
-2.9387604587879093
-2.9387604587879093
-2.932605986622927
-2.932605986622927
-2.9387604587879093
-2.932605986622927
-2.932605986622927
-2.932605986622927
-2.9264515144579173
-2.9264515144579173
-2.932605986622927
-2.9264515144579173
-2.9264515144579173
-2.932605986622927
-2.9202970422929075
-2.9264515144579173
-2.9264515144579173
-2.9202970422929075
-2.9202970422929075
-2.9264515144579173
-2.9264515144579173
-2.9202970422929075
-2.895679153632896
-2.9141425701278982
-2.9141425701278982
-2.9202970422929075
-2.9202970422929075
-2.9141425701278982
-2.9202970422929075
-2.9141425701278982
-2.9264515144579173
-2.9387604587879093
-2.9264515144579173
-2.895679153632896
-2.901833625797906
-2.9141425701278982
-2.932605986622927
-2.9264515144579173
-2.932605986622927
-2.9510694031179288
-2.944914930952919
-2.9387604587879093
-2.932605986622927
-2.9202970422929075
-2.9264515144579173
-2.9264515144579173
-2.9202970422929075
-2.9264515144579173
-2.9202970422929075
-2.9202970422929075
-2.9202970422929075
-2.9202970422929075
-2.9141425701278982
-2.907988097962916
-2.9141425701278982
-2.9141425701278982
-2.9141425701278982
-2.9141425701278982
-2.9141425701278982
-2.907988097962916
-2.901833625797906
-2.901833625797906
-2.895679153632896
-2.8895246814679143
-2.871061264972913
-2.8649067928079033
-2.871061264972913
-2.877215737137895
-2.883370209302905
-2.895679153632896
-2.895679153632896
-2.8895246814679143
-2.901833625797906
-2.895679153632896
-2.901833625797906
-2.907988097962916
-2.9141425701278982
-2.907988097962916
-2.895679153632896
-2.883370209302905
-2.895679153632896
-2.895679153632896
-2.901833625797906
-2.907988097962916
-2.907988097962916
-2.9141425701278982
-2.9141425701278982
-2.907988097962916
-2.907988097962916
-2.907988097962916
-2.907988097962916
-2.9141425701278982
-2.9264515144579173
-2.9387604587879093
-2.932605986622927
-2.901833625797906
-2.8402889041478923
-2.7848986546628876
-2.729508405177883
-2.661809211362886
-2.544874240227868
-2.409475852597848
-2.360240075277825
-2.507947407237865
-2.729508405177883
-2.9264515144579173
-2.9633783474479203
-2.932605986622927
-2.9141425701278982
-2.901833625797906
-2.9202970422929075
-2.9202970422929075
-2.9202970422929075
-2.9202970422929075
-2.9141425701278982
-2.9202970422929075
-2.9141425701278982
-2.907988097962916
-2.9141425701278982
-2.9141425701278982
-2.901833625797906
-2.907988097962916
-2.907988097962916
-2.907988097962916
-2.901833625797906
-2.901833625797906
-2.901833625797906
-2.895679153632896
-2.895679153632896
-2.8895246814679143
-2.895679153632896
-2.8895246814679143
-2.877215737137895
-2.883370209302905
-2.871061264972913
-2.877215737137895
-2.871061264972913
-2.8649067928079033
-2.871061264972913
-2.8649067928079033
-2.858752320642893
-2.8649067928079033
-2.8525978484779113
-2.8525978484779113
-2.8464433763129016
-2.8402889041478923
-2.8402889041478923
-2.83413443198291
-2.8218254876528905
-2.8156710154879088
-2.8033620711578893
-2.8095165433228986
-2.797207598992907
-2.7910531268278973
-2.778744182497905
-2.778744182497905
-2.778744182497905
-2.772589710332896
-2.760280766002876
-2.754126293837894
-2.747971821672884
-2.747971821672884
-2.747971821672884
-2.760280766002876
-2.747971821672884
-2.760280766002876
-2.766435238167886
-2.7848986546628876
-2.8095165433228986
-2.8218254876528905
-2.8402889041478923
-2.8649067928079033
-2.883370209302905
-2.901833625797906
-2.907988097962916
-2.9202970422929075
-2.9202970422929075
-2.9264515144579173
-2.9387604587879093
-2.9387604587879093
-2.944914930952919
-2.9387604587879093
-2.944914930952919
-2.944914930952919
-2.9387604587879093
-2.944914930952919
-2.932605986622927
-2.932605986622927
-2.944914930952919
-2.932605986622927
-2.944914930952919
-2.932605986622927
-2.9387604587879093
-2.932605986622927
-2.932605986622927
-2.932605986622927
-2.9387604587879093
-2.932605986622927
-2.932605986622927
-2.932605986622927
-2.9264515144579173
-2.932605986622927
-2.932605986622927
-2.932605986622927
-2.932605986622927
-2.9264515144579173
-2.9264515144579173
-2.9264515144579173
-2.9202970422929075
-2.9202970422929075
-2.9264515144579173
-2.9202970422929075
-2.932605986622927
-2.9202970422929075
-2.9202970422929075
-2.9202970422929075
-2.9264515144579173
-2.9264515144579173
-2.9264515144579173
-2.9141425701278982
-2.9264515144579173
-2.9264515144579173
-2.9510694031179288
-2.9141425701278982
-2.9141425701278982
-2.907988097962916
-2.907988097962916
-3.1233946237379517
-3.461890592813016
-2.932605986622927
-2.7418173495078744
-2.6987360443528896
-2.661809211362886
-2.624882378372884
-2.680272627857888
-2.649500267032867
-2.680272627857888
-2.655654739197877
-2.674118155692878
-2.68642710002287
-2.674118155692878
-2.6371913227028756
-2.631036850537866
-2.624882378372884
-2.674118155692878
-2.6433457948678853
-2.624882378372884
-2.55718318455786
-2.6925815721878803
-2.680272627857888
-2.6371913227028756
-2.624882378372884
-2.649500267032867
-2.631036850537866
-2.649500267032867
-2.661809211362886
-2.704890516517872
-2.68642710002287
-2.655654739197877
-2.674118155692878
-2.754126293837894
-2.711044988682881
-2.8218254876528905
-2.8218254876528905
-2.8218254876528905
-2.8218254876528905
-2.883370209302905
-2.8895246814679143
-2.895679153632896
-2.895679153632896
-2.877215737137895
-2.883370209302905
-2.8895246814679143
-2.895679153632896
-2.895679153632896
-2.871061264972913
-2.907988097962916
-2.901833625797906
-2.877215737137895
-2.895679153632896
-2.8895246814679143
-2.8218254876528905
-2.1756059103278105
-3.0249230690979347
-3.1295490959029335
-2.6002644897128726
-2.729508405177883
-2.858752320642893
-2.7418173495078744
-2.624882378372884
-2.471020574247862
-2.624882378372884
-2.661809211362886
-2.6925815721878803
-2.661809211362886
-2.655654739197877
-2.6433457948678853
-2.624882378372884
-2.5941100175478624
-2.680272627857888
-2.6371913227028756
-2.649500267032867
-2.6002644897128726
-2.5141018794028467
-2.587955545382853
-2.471020574247862
-2.3417766587828237
-2.403321380432838
-2.4894839907428636
-2.6002644897128726
-2.661809211362886
-2.655654739197877
-2.661809211362886
-2.6433457948678853
-2.612573434042864
-2.667963683527869
-2.680272627857888
-2.6433457948678853
-2.631036850537866
-2.754126293837894
-2.747971821672884
-2.772589710332896
-2.754126293837894
-2.754126293837894
-2.7418173495078744
-2.729508405177883
-2.680272627857888
-2.6987360443528896
-2.68642710002287
-2.661809211362886
-2.68642710002287
-2.674118155692878
-2.649500267032867
-2.772589710332896
-2.7171994608478913
-2.704890516517872
-2.711044988682881
-2.747971821672884
-2.729508405177883
-2.68642710002287
-2.7418173495078744
-2.735662877342893
-2.7171994608478913
-2.495638462907845
-1.8494188855827651
-2.680272627857888
-2.526410823732866
-2.8464433763129016
-2.6925815721878803
-2.6987360443528896
-2.704890516517872
-2.7418173495078744
-2.723353933012873
-3.080313318582939
-3.394191398997992
-2.8895246814679143
-2.8033620711578893
-2.797207598992907
-2.8218254876528905
-2.8279799598179
-2.8895246814679143
-3.0249230690979347
-3.049540957757918
-3.049540957757918
-3.043386485592936
-3.049540957757918
-3.043386485592936
-3.0372320134279267
-3.0310775412629165
-3.0372320134279267
-3.0372320134279267
-3.043386485592936
-3.0680043742529195
-3.080313318582939
-3.092622262912931
-3.1049312072429505
-3.1233946237379517
-3.1357035680679433
-3.1480125123979352
-3.154166984562973
-3.1664759288929645
-3.1726304010579747
-3.1664759288929645
-3.1664759288929645
-3.1664759288929645
-3.1726304010579747
-3.160321456727955
-3.160321456727955
-3.160321456727955
-3.154166984562973
-3.154166984562973
-3.1480125123979352
-3.1480125123979352
-3.1357035680679433
-3.141858040232953
-3.1357035680679433
-3.1357035680679433
-3.1295490959029335
-3.117240151572942
-3.1110856794079322
-3.080313318582939
-3.0987767350779407
-3.1233946237379517
-3.1110856794079322
-3.1049312072429505
-3.1049312072429505
-3.092622262912931
-3.092622262912931
-3.092622262912931
-3.0987767350779407
-3.074158846417929
-3.0680043742529195
-3.074158846417929
-3.0618499020879373
-3.0680043742529195
-3.0618499020879373
-3.055695429922928
-3.0618499020879373
-3.055695429922928
-3.049540957757918
-3.043386485592936
-3.043386485592936
-3.0372320134279267
-3.0310775412629165
-3.0310775412629165
-3.0372320134279267
-3.0310775412629165
-3.0249230690979347
-3.0310775412629165
-3.0249230690979347
-3.018768596932925
-3.0126141247679152
-3.018768596932925
-3.018768596932925
-3.018768596932925
-3.0126141247679152
-3.0126141247679152
-3.006459652602933
-3.006459652602933
-3.006459652602933
-3.006459652602933
-3.0003051804379233
-2.994150708272913
-3.0003051804379233
-2.994150708272913
-2.9818417639429216
-2.994150708272913
-2.9879962361079313
-2.9879962361079313
-2.9879962361079313
-2.9818417639429216
-2.9818417639429216
-2.9818417639429216
-2.975687291777912
-2.96953281961293
-2.975687291777912
-2.96953281961293
-2.9633783474479203
-2.96953281961293
-2.9572238752829105
-2.9633783474479203
-2.9633783474479203
-2.9633783474479203
-2.9572238752829105
-2.9633783474479203
-2.9633783474479203
-2.96953281961293
-2.932605986622927
-2.9264515144579173
-2.9264515144579173
-2.9264515144579173
-2.932605986622927
-2.9510694031179288
-2.9264515144579173
-2.9202970422929075
-2.9141425701278982
-2.9202970422929075
-2.932605986622927
-2.9264515144579173
-2.932605986622927
-2.932605986622927
-2.9387604587879093
-2.944914930952919
-2.9387604587879093
-2.944914930952919
-2.9510694031179288
-2.9510694031179288
-2.9510694031179288
-2.9572238752829105
-2.9572238752829105
-2.9510694031179288
-2.9510694031179288
-2.9510694031179288
-2.944914930952919
-2.9510694031179288
-2.9510694031179288
-2.944914930952919
-2.944914930952919
-2.9510694031179288
-2.944914930952919
-2.944914930952919
-2.932605986622927
-2.9387604587879093
-2.9202970422929075
-2.877215737137895
-2.8156710154879088
-2.766435238167886
-2.6925815721878803
-2.587955545382853
-2.471020574247862
-2.378703491772827
-2.471020574247862
-2.704890516517872
-2.9202970422929075
-2.994150708272913
-2.9510694031179288
-2.9141425701278982
-2.907988097962916
-2.9264515144579173
-2.9387604587879093
-2.9387604587879093
-2.9387604587879093
-2.9387604587879093
-2.932605986622927
-2.932605986622927
-2.9387604587879093
-2.9387604587879093
-2.932605986622927
-2.9387604587879093
-2.9510694031179288
-2.9510694031179288
-2.944914930952919
-2.9387604587879093
-2.932605986622927
-2.9202970422929075
-2.9264515144579173
-2.9202970422929075
-2.9202970422929075
-2.907988097962916
-2.907988097962916
-2.901833625797906
-2.901833625797906
-2.901833625797906
-2.895679153632896
-2.8895246814679143
-2.895679153632896
-2.883370209302905
-2.8895246814679143
-2.883370209302905
-2.883370209302905
-2.871061264972913
-2.877215737137895
-2.8649067928079033
-2.8525978484779113
-2.8464433763129016
-2.8464433763129016
-2.8402889041478923
-2.8279799598179
-2.8218254876528905
-2.8218254876528905
-2.8095165433228986
-2.797207598992907
-2.797207598992907
-2.7910531268278973
-2.772589710332896
-2.766435238167886
-2.760280766002876
-2.766435238167886
-2.754126293837894
-2.754126293837894
-2.754126293837894
-2.747971821672884
-2.7418173495078744
-2.766435238167886
-2.778744182497905
-2.7910531268278973
-2.8033620711578893
-2.8218254876528905
-2.8525978484779113
-2.858752320642893
-2.883370209302905
-2.895679153632896
-2.9141425701278982
-2.9202970422929075
-2.932605986622927
-2.9387604587879093
-2.944914930952919
-2.9572238752829105
-2.9572238752829105
-2.9510694031179288
-2.9818417639429216
-2.96953281961293
-2.9510694031179288
-2.9510694031179288
-2.9510694031179288
-2.9572238752829105
-2.9572238752829105
-2.9572238752829105
-2.9572238752829105
-2.944914930952919
-2.944914930952919
-2.944914930952919
-2.9572238752829105
-2.944914930952919
-2.9510694031179288
-2.9510694031179288
-2.9510694031179288
-2.9510694031179288
-2.944914930952919
-2.9387604587879093
-2.944914930952919
-2.9387604587879093
-2.9387604587879093
-2.9387604587879093
-2.9387604587879093
-2.944914930952919
-2.9387604587879093
-2.932605986622927
-2.9387604587879093
-2.9387604587879093
-2.9387604587879093
-2.932605986622927
-2.932605986622927
-2.9387604587879093
-2.9387604587879093
-2.9387604587879093
-2.9387604587879093
-2.9387604587879093
-2.9202970422929075
-2.907988097962916
-2.9141425701278982
-2.9202970422929075
-2.9264515144579173
-2.9202970422929075
-2.9264515144579173
-2.9264515144579173
-2.9264515144579173
-2.932605986622927
-2.932605986622927
-2.932605986622927
-2.9264515144579173
-2.932605986622927
-2.932605986622927
-2.944914930952919
-2.944914930952919
-2.9387604587879093
-2.9264515144579173
-2.9264515144579173
-2.9264515144579173
-2.932605986622927
-2.9264515144579173
-2.932605986622927
-2.9264515144579173
-2.9264515144579173
-2.9264515144579173
-2.9264515144579173
-2.9141425701278982
-2.9202970422929075
-2.9141425701278982
-2.9141425701278982
-2.9264515144579173
-2.9202970422929075
-2.907988097962916
-2.901833625797906
-2.907988097962916
-2.901833625797906
-2.901833625797906
-2.907988097962916
-2.9264515144579173
-2.9387604587879093
-2.9264515144579173
-2.9202970422929075
-2.9141425701278982
-2.9141425701278982
-2.9141425701278982
-2.907988097962916
-2.9141425701278982
-2.9141425701278982
-2.907988097962916
-2.901833625797906
-2.883370209302905
-2.8895246814679143
-2.883370209302905
-2.877215737137895
-2.883370209302905
-2.871061264972913
-2.8649067928079033
-2.871061264972913
-2.877215737137895
-2.877215737137895
-2.8895246814679143
-2.8895246814679143
-2.8895246814679143
-2.901833625797906
-2.901833625797906
-2.907988097962916
-2.907988097962916
-2.9141425701278982
-2.907988097962916
-2.9141425701278982
-2.907988097962916
-2.907988097962916
-2.907988097962916
-2.901833625797906
-2.907988097962916
-2.907988097962916
-2.901833625797906
-2.907988097962916
-2.9141425701278982
-2.9141425701278982
-2.9264515144579173
-2.901833625797906
-2.895679153632896
-2.907988097962916
-2.907988097962916
-2.907988097962916
-2.8895246814679143
-2.8095165433228986
-2.754126293837894
-2.68642710002287
-2.587955545382853
-2.4587116299178424
-2.360240075277825
-2.4217847969278394
-2.661809211362886
-2.877215737137895
-2.975687291777912
-2.9387604587879093
-2.907988097962916
-2.895679153632896
-2.907988097962916
-2.907988097962916
-2.9141425701278982
-2.907988097962916
-2.9141425701278982
-2.907988097962916
-2.907988097962916
-2.907988097962916
-2.901833625797906
-2.901833625797906
-2.901833625797906
-2.895679153632896
-2.8895246814679143
-2.8895246814679143
-2.895679153632896
-2.895679153632896
-2.895679153632896
-2.8895246814679143
-2.883370209302905
-2.877215737137895
-2.883370209302905
-2.877215737137895
-2.883370209302905
-2.871061264972913
-2.871061264972913
-2.871061264972913
-2.871061264972913
-2.858752320642893
-2.8649067928079033
-2.858752320642893
-2.8525978484779113
-2.8464433763129016
-2.8464433763129016
-2.8402889041478923
-2.8402889041478923
-2.83413443198291
-2.83413443198291
-2.8279799598179
-2.8279799598179
-2.8218254876528905
-2.8095165433228986
-2.8033620711578893
-2.8033620711578893
-2.8033620711578893
-2.778744182497905
-2.766435238167886
-2.760280766002876
-2.754126293837894
-2.754126293837894
-2.747971821672884
-2.7418173495078744
-2.735662877342893
-2.7418173495078744
-2.729508405177883
-2.729508405177883
-2.7418173495078744
-2.754126293837894
-2.772589710332896
-2.7910531268278973
-2.8156710154879088
-2.8279799598179
-2.8525978484779113
-2.8649067928079033
-2.895679153632896
-2.901833625797906
-2.907988097962916
-2.9141425701278982
-2.9202970422929075
-2.932605986622927
-2.932605986622927
-2.9387604587879093
-2.932605986622927
-2.944914930952919
-2.944914930952919
-2.944914930952919
-2.944914930952919
-2.944914930952919
-2.9387604587879093
-2.9387604587879093
-2.9264515144579173
-2.9387604587879093
-2.944914930952919
-2.932605986622927
-2.932605986622927
-2.932605986622927
-2.9387604587879093
-2.9264515144579173
-2.9264515144579173
-2.9387604587879093
-2.9264515144579173
-2.932605986622927
-2.9264515144579173
-2.9264515144579173
-2.932605986622927
-2.932605986622927
-2.9264515144579173
-2.9264515144579173
-2.9264515144579173
-2.9202970422929075
-2.9264515144579173
-2.9264515144579173
-2.9264515144579173
-2.932605986622927
-2.9202970422929075
-2.932605986622927
-2.9264515144579173
-2.9264515144579173
-2.9202970422929075
-2.9141425701278982
-2.9141425701278982
-2.9141425701278982
-2.907988097962916
-2.9141425701278982
-2.9141425701278982
-2.901833625797906
-2.901833625797906
-2.907988097962916
-2.9141425701278982
-2.901833625797906
-2.907988097962916
-2.907988097962916
-2.901833625797906
-2.901833625797906
-2.901833625797906
-2.901833625797906
-2.901833625797906
-2.901833625797906
-2.901833625797906
-2.907988097962916
-2.907988097962916
-2.907988097962916
-2.901833625797906
-2.907988097962916
-2.907988097962916
-2.895679153632896
-2.895679153632896
-2.901833625797906
-2.895679153632896
-2.895679153632896
-2.895679153632896
-2.895679153632896
-2.901833625797906
-2.8895246814679143
-2.895679153632896
-2.895679153632896
-2.895679153632896
-2.8895246814679143
-2.901833625797906
-2.8895246814679143
-2.8895246814679143
-2.8895246814679143
-2.895679153632896
-2.895679153632896
-2.895679153632896
-2.8895246814679143
-2.895679153632896
-2.8895246814679143
-2.8895246814679143
-2.895679153632896
-2.895679153632896
-2.883370209302905
-2.871061264972913
-2.877215737137895
-2.8649067928079033
-2.858752320642893
-2.858752320642893
-2.8464433763129016
-2.858752320642893
-2.877215737137895
-2.871061264972913
-2.877215737137895
-2.877215737137895
-2.877215737137895
-2.8895246814679143
-2.895679153632896
-2.8895246814679143
-2.901833625797906
-2.895679153632896
-2.901833625797906
-2.901833625797906
-2.895679153632896
-2.8895246814679143
-2.8895246814679143
-2.8895246814679143
-2.8895246814679143
-2.895679153632896
-2.8895246814679143
-2.8895246814679143
-2.895679153632896
-2.8895246814679143
-2.895679153632896
-2.8895246814679143
-2.895679153632896
-2.895679153632896
-2.883370209302905
-2.8525978484779113
-2.8156710154879088
-2.766435238167886
-2.7171994608478913
-2.661809211362886
-2.5694921288878514
-2.4279392690928487
-2.3540856031128428
-2.4587116299178424
-2.711044988682881
-2.907988097962916
-3.018768596932925
-2.9818417639429216
-2.9387604587879093
-2.9264515144579173
-2.9141425701278982
-2.901833625797906
-2.901833625797906
-2.901833625797906
-2.901833625797906
-2.901833625797906
-2.895679153632896
-2.895679153632896
-2.895679153632896
-2.895679153632896
-2.8895246814679143
-2.883370209302905
-2.883370209302905
-2.8895246814679143
-2.9202970422929075
-2.883370209302905
-2.877215737137895
-2.871061264972913
-2.877215737137895
-2.901833625797906
-2.901833625797906
-2.895679153632896
-2.883370209302905
-2.871061264972913
-2.877215737137895
-2.8649067928079033
-2.871061264972913
-2.858752320642893
-2.858752320642893
-2.858752320642893
-2.8525978484779113
-2.8464433763129016
-2.8464433763129016
-2.8279799598179
-2.8095165433228986
-2.8464433763129016
-2.723353933012873
-2.8218254876528905
-2.735662877342893
-2.667963683527869
-2.661809211362886
-2.6371913227028756
-2.877215737137895
-3.117240151572942
-2.7910531268278973
-2.754126293837894
-2.760280766002876
-2.754126293837894
-2.747971821672884
-2.747971821672884
-2.747971821672884
-2.7418173495078744
-2.735662877342893
-2.735662877342893
-2.7418173495078744
-2.7418173495078744
-2.760280766002876
-2.778744182497905
-2.8033620711578893
-2.8156710154879088
-2.8402889041478923
-2.858752320642893
-2.877215737137895
-2.895679153632896
-2.907988097962916
-2.9141425701278982
-2.9264515144579173
-2.932605986622927
-2.9387604587879093
-2.9387604587879093
-2.9510694031179288
-2.944914930952919
-2.9510694031179288
-2.9510694031179288
-2.944914930952919
-2.9510694031179288
-2.944914930952919
-2.9387604587879093
-2.944914930952919
-2.9387604587879093
-2.9387604587879093
-2.9387604587879093
-2.9387604587879093
-2.932605986622927
-2.9387604587879093
-2.932605986622927
-2.932605986622927
-2.932605986622927
-2.9264515144579173
-2.932605986622927
-2.932605986622927
-2.9264515144579173
-2.9264515144579173
-2.9264515144579173
-2.9202970422929075
-2.9202970422929075
-2.9202970422929075
-2.9141425701278982
-2.9202970422929075
-2.9141425701278982
-2.9141425701278982
-2.907988097962916
-2.9141425701278982
-2.9202970422929075
-2.9141425701278982
-2.907988097962916
-2.9141425701278982
-2.907988097962916
-2.9141425701278982
-2.907988097962916
-2.9141425701278982
-2.9141425701278982
-2.907988097962916
-2.907988097962916
-2.907988097962916
-2.901833625797906
-2.907988097962916
-2.9141425701278982
-2.907988097962916
-2.9141425701278982
-2.907988097962916
-2.9141425701278982
-2.9141425701278982
-2.9141425701278982
-2.907988097962916
-2.9141425701278982
-2.907988097962916
-2.9141425701278982
-2.907988097962916
-2.9141425701278982
-2.9141425701278982
-2.901833625797906
-2.907988097962916
-2.901833625797906
-2.907988097962916
-2.907988097962916
-2.9202970422929075
-2.9141425701278982
-2.9264515144579173
-2.9202970422929075
-2.907988097962916
-2.907988097962916
-2.901833625797906
-2.907988097962916
-2.901833625797906
-2.901833625797906
-2.901833625797906
-2.907988097962916
-2.907988097962916
-2.901833625797906
-2.895679153632896
-2.883370209302905
-2.883370209302905
-2.877215737137895
-2.871061264972913
-2.8649067928079033
-2.858752320642893
-2.8525978484779113
-2.858752320642893
-2.858752320642893
-2.871061264972913
-2.877215737137895
-2.8895246814679143
-2.877215737137895
-2.883370209302905
-2.895679153632896
-2.895679153632896
-2.901833625797906
-2.901833625797906
-2.907988097962916
-2.907988097962916
-2.901833625797906
-2.895679153632896
-2.901833625797906
-2.907988097962916
-2.901833625797906
-2.907988097962916
-2.907988097962916
-2.907988097962916
-2.901833625797906
-2.901833625797906
-2.901833625797906
-2.895679153632896
-2.901833625797906
-2.901833625797906
-2.901833625797906
-2.8895246814679143
-2.871061264972913
-2.8279799598179
-2.760280766002876
-2.704890516517872
-2.6371913227028756
-2.526410823732866
-2.409475852597848
-2.347931130947833
-2.495638462907845
-2.729508405177883
-2.9264515144579173
-2.9818417639429216
-2.944914930952919
-2.901833625797906
-2.895679153632896
-2.901833625797906
-2.901833625797906
-2.907988097962916
-2.901833625797906
-2.907988097962916
-2.907988097962916
-2.907988097962916
-2.9141425701278982
-2.907988097962916
-2.895679153632896
-2.895679153632896
-2.907988097962916
-2.901833625797906
-2.901833625797906
-2.901833625797906
-2.901833625797906
-2.901833625797906
-2.895679153632896
-2.8895246814679143
-2.883370209302905
-2.895679153632896
-2.883370209302905
-2.8895246814679143
-2.877215737137895
-2.883370209302905
-2.883370209302905
-2.883370209302905
-2.877215737137895
-2.871061264972913
-2.8649067928079033
-2.871061264972913
-2.871061264972913
-2.858752320642893
-2.858752320642893
-2.8464433763129016
-2.8525978484779113
-2.8525978484779113
-2.8402889041478923
-2.8402889041478923
-2.83413443198291
-2.8218254876528905
-2.8156710154879088
-2.8033620711578893
-2.797207598992907
-2.797207598992907
-2.778744182497905
-2.7848986546628876
-2.778744182497905
-2.766435238167886
-2.766435238167886
-2.754126293837894
-2.747971821672884
-2.747971821672884
-2.760280766002876
-2.760280766002876
-2.766435238167886
-2.7910531268278973
-2.778744182497905
-2.8033620711578893
-2.8218254876528905
-2.8525978484779113
-2.901833625797906
-2.9141425701278982
-2.9202970422929075
-2.9202970422929075
-2.932605986622927
-2.9387604587879093
-2.9510694031179288
-2.9510694031179288
-2.944914930952919
-2.9572238752829105
-2.944914930952919
-2.9510694031179288
-2.9572238752829105
-2.9510694031179288
-2.944914930952919
-2.9202970422929075
-2.932605986622927
-2.9633783474479203
-2.9572238752829105
-2.9387604587879093
-2.944914930952919
-2.944914930952919
-2.932605986622927
-2.9387604587879093
-2.9387604587879093
-2.9387604587879093
-2.9264515144579173
-2.932605986622927
-2.9264515144579173
-2.9264515144579173
-2.932605986622927
-2.932605986622927
-2.9264515144579173
-2.932605986622927
-2.932605986622927
-2.932605986622927
-2.932605986622927
-2.9202970422929075
-2.9264515144579173
-2.9264515144579173
-2.9264515144579173
-2.9264515144579173
-2.9202970422929075
-2.9202970422929075
-2.9264515144579173
-2.9141425701278982
-2.9141425701278982
-2.9141425701278982
-2.9202970422929075
-2.9141425701278982
-2.9141425701278982
-2.907988097962916
-2.907988097962916
-2.9141425701278982
-2.9141425701278982
-2.907988097962916
-2.907988097962916
-2.9141425701278982
-2.9202970422929075
-2.907988097962916
-2.8895246814679143
-2.871061264972913
-2.8895246814679143
-2.895679153632896
-2.907988097962916
-2.907988097962916
-2.907988097962916
-2.901833625797906
-2.901833625797906
-2.901833625797906
-2.907988097962916
-2.907988097962916
-2.907988097962916
-2.895679153632896
-2.907988097962916
-2.9264515144579173
-2.9202970422929075
-2.907988097962916
-2.901833625797906
-2.901833625797906
-2.895679153632896
-2.895679153632896
-2.901833625797906
-2.8895246814679143
-2.8895246814679143
-2.8895246814679143
-2.895679153632896
-2.895679153632896
-2.883370209302905
-2.883370209302905
-2.8895246814679143
-2.877215737137895
-2.877215737137895
-2.8895246814679143
-2.895679153632896
-2.9141425701278982
-2.901833625797906
-2.883370209302905
-2.883370209302905
-2.871061264972913
-2.871061264972913
-2.871061264972913
-2.8525978484779113
-2.8402889041478923
-2.8464433763129016
-2.858752320642893
-2.8649067928079033
-2.871061264972913
-2.877215737137895
-2.871061264972913
-2.871061264972913
-2.883370209302905
-2.8895246814679143
-2.895679153632896
-2.8895246814679143
-2.895679153632896
-2.895679153632896
-2.9141425701278982
-2.9141425701278982
-2.9141425701278982
-2.907988097962916
-2.895679153632896
-2.901833625797906
-2.8895246814679143
-2.895679153632896
-2.895679153632896
-2.895679153632896
-2.8895246814679143
-2.8895246814679143
-2.8895246814679143
-2.8895246814679143
-2.883370209302905
-2.883370209302905
-2.83413443198291
-2.772589710332896
-2.735662877342893
-2.667963683527869
-2.575646601052861
-2.4587116299178424
-2.360240075277825
-2.360240075277825
-2.563337656722869
-2.7910531268278973
-2.9141425701278982
-2.901833625797906
-2.877215737137895
-2.877215737137895
-2.877215737137895
-2.883370209302905
-2.895679153632896
-2.8895246814679143
-2.895679153632896
-2.895679153632896
-2.901833625797906
-2.901833625797906
-2.895679153632896
-2.8895246814679143
-2.895679153632896
-2.895679153632896
-2.895679153632896
-2.895679153632896
-2.8895246814679143
-2.883370209302905
-2.8895246814679143
-2.8895246814679143
-2.883370209302905
-2.877215737137895
-2.877215737137895
-2.871061264972913
-2.871061264972913
-2.871061264972913
-2.871061264972913
-2.871061264972913
-2.8649067928079033
-2.8649067928079033
-2.8649067928079033
-2.858752320642893
-2.8464433763129016
-2.8402889041478923
-2.8464433763129016
-2.8402889041478923
-2.8279799598179
-2.8279799598179
-2.8279799598179
-2.8218254876528905
-2.8156710154879088
-2.8095165433228986
-2.7910531268278973
-2.766435238167886
-2.772589710332896
-2.772589710332896
-2.766435238167886
-2.760280766002876
-2.754126293837894
-2.760280766002876
-2.754126293837894
-2.7418173495078744
-2.7418173495078744
-2.7418173495078744
-2.735662877342893
-2.735662877342893
-2.729508405177883
-2.754126293837894
-2.760280766002876
-2.766435238167886
-2.778744182497905
-2.8033620711578893
-2.8156710154879088
-2.83413443198291
-2.8464433763129016
-2.8649067928079033
-2.8895246814679143
-2.901833625797906
-2.9141425701278982
-2.9141425701278982
-2.9202970422929075
-2.9387604587879093
-2.9387604587879093
-2.932605986622927
-2.9387604587879093
-2.932605986622927
-2.932605986622927
-2.932605986622927
-2.932605986622927
-2.932605986622927
-2.932605986622927
-2.932605986622927
-2.932605986622927
-2.932605986622927
-2.932605986622927
-2.9202970422929075
-2.9264515144579173
-2.9264515144579173
-2.9202970422929075
-2.9264515144579173
-2.9202970422929075
-2.9202970422929075
-2.9141425701278982
-2.9202970422929075
-2.932605986622927
-2.901833625797906
-2.907988097962916
-2.907988097962916
-2.9141425701278982
-2.932605986622927
-2.932605986622927
-2.9264515144579173
-2.9202970422929075
-2.9141425701278982
-2.9141425701278982
-2.907988097962916
-2.9202970422929075
-2.9141425701278982
-2.907988097962916
-2.907988097962916
-2.9141425701278982
-2.907988097962916
-2.907988097962916
-2.901833625797906
-2.9141425701278982
-2.907988097962916
-2.907988097962916
-2.907988097962916
-2.907988097962916
-2.907988097962916
-2.907988097962916
-2.901833625797906
-2.901833625797906
-2.901833625797906
-2.907988097962916
-2.907988097962916
-2.907988097962916
-2.901833625797906
-2.907988097962916
-2.907988097962916
-2.907988097962916
-2.907988097962916
-2.901833625797906
-2.901833625797906
-2.907988097962916
-2.907988097962916
-2.907988097962916
-2.907988097962916
-2.901833625797906
-2.907988097962916
-2.901833625797906
-2.901833625797906
-2.907988097962916
-2.901833625797906
-2.907988097962916
-2.901833625797906
-2.907988097962916
-2.901833625797906
-2.901833625797906
-2.907988097962916
-2.907988097962916
-2.907988097962916
-2.9141425701278982
-2.9141425701278982
-2.9141425701278982
-2.901833625797906
-2.907988097962916
-2.9202970422929075
-2.907988097962916
-2.901833625797906
-2.901833625797906
-2.907988097962916
-2.9141425701278982
-2.895679153632896
-2.895679153632896
-2.901833625797906
-2.8895246814679143
-2.8895246814679143
-2.877215737137895
-2.8649067928079033
-2.8402889041478923
-2.8649067928079033
-2.877215737137895
-2.895679153632896
-2.8895246814679143
-2.895679153632896
-2.901833625797906
-2.901833625797906
-2.907988097962916
-2.9141425701278982
-2.9202970422929075
-2.9202970422929075
-2.9202970422929075
-2.9264515144579173
-2.944914930952919
-2.9387604587879093
-2.932605986622927
-2.932605986622927
-2.932605986622927
-2.9264515144579173
-2.9264515144579173
-2.932605986622927
-2.9264515144579173
-2.9264515144579173
-2.9264515144579173
-2.9202970422929075
-2.9264515144579173
-2.9202970422929075
-2.907988097962916
-2.883370209302905
-2.8402889041478923
-2.766435238167886
-2.7171994608478913
-2.624882378372884
-2.501792935072855
-2.378703491772827
-2.3971669082678284
-2.631036850537866
-2.8649067928079033
-3.006459652602933
-2.994150708272913
-2.944914930952919
-2.9141425701278982
-2.9202970422929075
-2.9202970422929075
-2.9202970422929075
-2.944914930952919
-2.944914930952919
-2.9264515144579173
-2.9202970422929075
-2.9202970422929075
-2.9202970422929075
-2.9141425701278982
-2.9141425701278982
-2.9202970422929075
-2.9141425701278982
-2.9141425701278982
-2.907988097962916
-2.907988097962916
-2.901833625797906
-2.901833625797906
-2.901833625797906
-2.8895246814679143
-2.901833625797906
-2.895679153632896
-2.895679153632896
-2.8895246814679143
-2.8895246814679143
-2.883370209302905
-2.883370209302905
-2.877215737137895
-2.877215737137895
-2.877215737137895
-2.877215737137895
-2.871061264972913
-2.871061264972913
-2.8649067928079033
-2.8525978484779113
-2.8464433763129016
-2.8464433763129016
-2.8402889041478923
-2.8402889041478923
-2.83413443198291
-2.8279799598179
-2.8095165433228986
-2.8095165433228986
-2.8218254876528905
-2.8095165433228986
-2.772589710332896
-2.766435238167886
-2.766435238167886
-2.766435238167886
-2.754126293837894
-2.754126293837894
-2.778744182497905
-2.772589710332896
-2.760280766002876
-2.754126293837894
-2.754126293837894
-2.772589710332896
-2.7848986546628876
-2.8033620711578893
-2.8218254876528905
-2.83413443198291
-2.858752320642893
-2.871061264972913
-2.895679153632896
-2.907988097962916
-2.9202970422929075
-2.9264515144579173
-2.9387604587879093
-2.944914930952919
-2.9387604587879093
-2.944914930952919
-2.9510694031179288
-2.944914930952919
-2.9510694031179288
-2.944914930952919
-2.9510694031179288
-2.9510694031179288
-2.9510694031179288
-2.944914930952919
-2.944914930952919
-2.9510694031179288
-2.9387604587879093
-2.944914930952919
-2.9510694031179288
-2.9572238752829105
-2.9510694031179288
-2.944914930952919
-2.9387604587879093
-2.944914930952919
-2.944914930952919
-2.9387604587879093
-2.932605986622927
-2.932605986622927
-2.9264515144579173
-2.932605986622927
-2.9202970422929075
-2.932605986622927
-2.9202970422929075
-2.907988097962916
-2.9202970422929075
-2.9202970422929075
-2.9202970422929075
-2.9141425701278982
-2.9202970422929075
-2.9202970422929075
-2.9141425701278982
-2.9264515144579173
-2.9202970422929075
-2.907988097962916
-2.907988097962916
-2.907988097962916
-2.9141425701278982
-2.907988097962916
-2.9141425701278982
-2.907988097962916
-2.907988097962916
-2.9141425701278982
-2.9141425701278982
-2.9141425701278982
-2.9141425701278982
-2.9141425701278982
-2.907988097962916
-2.9202970422929075
-2.907988097962916
-2.9202970422929075
-2.9202970422929075
-2.901833625797906
-2.901833625797906
-2.907988097962916
-2.9202970422929075
-2.944914930952919
-2.9264515144579173
-2.9264515144579173
-2.9202970422929075
-2.9141425701278982
-2.9141425701278982
-2.907988097962916
-2.9141425701278982
-2.907988097962916
-2.907988097962916
-2.9141425701278982
-2.9141425701278982
-2.907988097962916
-2.907988097962916
-2.901833625797906
-2.895679153632896
-2.8895246814679143
-2.8895246814679143
-2.877215737137895
-2.877215737137895
-2.8649067928079033
-2.858752320642893
-2.871061264972913
-2.877215737137895
-2.877215737137895
-2.8895246814679143
-2.883370209302905
-2.895679153632896
-2.895679153632896
-2.907988097962916
-2.907988097962916
-2.907988097962916
-2.907988097962916
-2.9141425701278982
-2.907988097962916
-2.9141425701278982
-2.907988097962916
-2.907988097962916
-2.907988097962916
-2.907988097962916
-2.907988097962916
-2.9141425701278982
-2.907988097962916
-2.901833625797906
-2.907988097962916
-2.907988097962916
-2.907988097962916
-2.901833625797906
-2.9141425701278982
-2.895679153632896
-2.877215737137895
-2.83413443198291
-2.772589710332896
-2.7171994608478913
-2.624882378372884
-2.526410823732866
-2.409475852597848
-2.378703491772827
-2.5694921288878514
-2.8095165433228986
-2.975687291777912
-3.018768596932925
-2.9633783474479203
-2.9202970422929075
-2.907988097962916
-2.901833625797906
-2.895679153632896
-2.8895246814679143
-2.8895246814679143
-2.895679153632896
-2.895679153632896
-2.895679153632896
-2.901833625797906
-2.895679153632896
-2.895679153632896
-2.8895246814679143
-2.8895246814679143
-2.883370209302905
-2.883370209302905
-2.8895246814679143
-2.883370209302905
-2.895679153632896
-2.895679153632896
-2.8895246814679143
-2.8895246814679143
-2.883370209302905
-2.877215737137895
-2.877215737137895
-2.877215737137895
-2.871061264972913
-2.8649067928079033
-2.8649067928079033
-2.8525978484779113
-2.858752320642893
-2.8464433763129016
-2.8402889041478923
-2.8464433763129016
-2.83413443198291
-2.8279799598179
-2.8279799598179
-2.8279799598179
-2.8218254876528905
-2.8156710154879088
-2.8156710154879088
-2.8095165433228986
-2.797207598992907
-2.797207598992907
-2.7848986546628876
-2.772589710332896
-2.766435238167886
-2.772589710332896
-2.760280766002876
-2.754126293837894
-2.735662877342893
-2.735662877342893
-2.735662877342893
-2.729508405177883
-2.747971821672884
-2.747971821672884
-2.7418173495078744
-2.747971821672884
-2.754126293837894
-2.778744182497905
-2.7910531268278973
-2.8095165433228986
-2.83413443198291
-2.858752320642893
-2.8649067928079033
-2.877215737137895
-2.895679153632896
-2.901833625797906
-2.9141425701278982
-2.9202970422929075
-2.9264515144579173
-2.9202970422929075
-2.9264515144579173
-2.9264515144579173
-2.9141425701278982
-2.9202970422929075
-2.9264515144579173
-2.9264515144579173
-2.9264515144579173
-2.9202970422929075
-2.9264515144579173
-2.9264515144579173
-2.9264515144579173
-2.9202970422929075
-2.9202970422929075
-2.9141425701278982
-2.9202970422929075
-2.9202970422929075
-2.9141425701278982
-2.907988097962916
-2.907988097962916
-2.9141425701278982
-2.9141425701278982
-2.9141425701278982
-2.907988097962916
-2.9141425701278982
-2.9141425701278982
-2.901833625797906
-2.907988097962916
-2.907988097962916
-2.907988097962916
-2.901833625797906
-2.901833625797906
-2.907988097962916
-2.901833625797906
-2.901833625797906
-2.907988097962916
-2.901833625797906
-2.895679153632896
-2.901833625797906
-2.895679153632896
-2.895679153632896
-2.895679153632896
-2.901833625797906
-2.8895246814679143
-2.895679153632896
-2.8895246814679143
-2.901833625797906
-2.895679153632896
-2.8895246814679143
-2.895679153632896
-2.895679153632896
-2.8895246814679143
-2.895679153632896
-2.8895246814679143
-2.8895246814679143
-2.901833625797906
-2.895679153632896
-2.8895246814679143
-2.901833625797906
-2.895679153632896
-2.895679153632896
-2.895679153632896
-2.8895246814679143
-2.895679153632896
-2.8895246814679143
-2.8895246814679143
-2.895679153632896
-2.8895246814679143
-2.8895246814679143
-2.895679153632896
-2.8895246814679143
-2.895679153632896
-2.8895246814679143
-2.895679153632896
-2.8895246814679143
-2.8895246814679143
-2.8895246814679143
-2.877215737137895
-2.871061264972913
-2.877215737137895
-2.877215737137895
-2.871061264972913
-2.858752320642893
-2.858752320642893
-2.8525978484779113
-2.8525978484779113
-2.8649067928079033
-2.877215737137895
-2.877215737137895
-2.883370209302905
-2.877215737137895
-2.883370209302905
-2.8895246814679143
-2.8895246814679143
-2.901833625797906
-2.8895246814679143
-2.883370209302905
-2.895679153632896
-2.901833625797906
-2.901833625797906
-2.895679153632896
-2.9141425701278982
-2.932605986622927
-2.9264515144579173
-2.9202970422929075
-2.9202970422929075
-2.895679153632896
-2.901833625797906
-2.901833625797906
-2.9141425701278982
-2.944914930952919
-2.932605986622927
-2.9141425701278982
-2.8895246814679143
-2.8464433763129016
-2.7848986546628876
-2.7171994608478913
-2.655654739197877
-2.55102871239285
-2.434093741257831
-2.3540856031128428
-2.477175046412844
-2.711044988682881
-2.907988097962916
-2.96953281961293
-2.932605986622927
-2.907988097962916
-2.901833625797906
-2.9141425701278982
-2.9141425701278982
-2.9141425701278982
-2.9141425701278982
-2.9202970422929075
-2.9141425701278982
-2.9141425701278982
-2.9141425701278982
-2.9141425701278982
-2.907988097962916
-2.901833625797906
-2.907988097962916
-2.9141425701278982
-2.9141425701278982
-2.9141425701278982
-2.901833625797906
-2.895679153632896
-2.895679153632896
-2.901833625797906
-2.8895246814679143
-2.895679153632896
-2.895679153632896
-2.8895246814679143
-2.8895246814679143
-2.883370209302905
-2.871061264972913
-2.877215737137895
-2.871061264972913
-2.871061264972913
-2.8649067928079033
-2.858752320642893
-2.8649067928079033
-2.858752320642893
-2.8464433763129016
-2.8402889041478923
-2.8402889041478923
-2.83413443198291
-2.83413443198291
-2.8218254876528905
-2.8156710154879088
-2.8218254876528905
-2.8095165433228986
-2.797207598992907
-2.7910531268278973
-2.778744182497905
-2.766435238167886
-2.760280766002876
-2.760280766002876
-2.754126293837894
-2.7418173495078744
-2.735662877342893
-2.735662877342893
-2.729508405177883
-2.735662877342893
-2.7418173495078744
-2.7418173495078744
-2.760280766002876
-2.778744182497905
-2.797207598992907
-2.8156710154879088
-2.8464433763129016
-2.858752320642893
-2.871061264972913
-2.8895246814679143
-2.907988097962916
-2.9202970422929075
-2.9264515144579173
-2.9387604587879093
-2.9387604587879093
-2.9387604587879093
-2.9387604587879093
-2.9510694031179288
-2.9387604587879093
-2.9387604587879093
-2.944914930952919
-2.9387604587879093
-2.944914930952919
-2.944914930952919
-2.944914930952919
-2.9387604587879093
-2.9387604587879093
-2.944914930952919
-2.932605986622927
-2.9387604587879093
-2.944914930952919
-2.9387604587879093
-2.932605986622927
-2.932605986622927
-2.932605986622927
-2.932605986622927
-2.932605986622927
-2.944914930952919
-2.9387604587879093
-2.9387604587879093
-2.9387604587879093
-2.944914930952919
-2.9387604587879093
-2.9387604587879093
-2.944914930952919
-2.96953281961293
-2.9387604587879093
-2.932605986622927
-2.9387604587879093
-2.9387604587879093
-2.9387604587879093
-2.944914930952919
-2.9387604587879093
-2.9633783474479203
-2.9818417639429216
-2.96953281961293
-2.9572238752829105
-2.944914930952919
-2.944914930952919
-2.944914930952919
-2.944914930952919
-2.9202970422929075
-2.9141425701278982
-2.9202970422929075
-2.932605986622927
-2.9387604587879093
-2.932605986622927
-2.932605986622927
-2.9387604587879093
-2.9387604587879093
-2.9387604587879093
-2.9387604587879093
-2.9387604587879093
-2.9510694031179288
-2.9510694031179288
-2.975687291777912
-2.9879962361079313
-2.975687291777912
-2.9572238752829105
-2.9510694031179288
-2.944914930952919
-2.9510694031179288
-2.944914930952919
-2.9510694031179288
-2.9510694031179288
-2.944914930952919
-2.944914930952919
-2.9387604587879093
-2.944914930952919
-2.9264515144579173
-2.9202970422929075
-2.932605986622927
-2.9264515144579173
-2.9264515144579173
-2.9202970422929075
-2.9141425701278982
-2.907988097962916
-2.907988097962916
-2.907988097962916
-2.8895246814679143
-2.883370209302905
-2.895679153632896
-2.907988097962916
-2.9141425701278982
-2.9264515144579173
-2.9202970422929075
-2.9264515144579173
-2.932605986622927
-2.9387604587879093
-2.9387604587879093
-2.9387604587879093
-2.944914930952919
-2.944914930952919
-2.944914930952919
-2.944914930952919
-2.944914930952919
-2.944914930952919
-2.9510694031179288
-2.944914930952919
-2.944914930952919
-2.9387604587879093
-2.944914930952919
-2.9387604587879093
-2.944914930952919
-2.9387604587879093
-2.944914930952919
-2.9510694031179288
-2.944914930952919
-2.9387604587879093
-2.9264515144579173
-2.883370209302905
-2.8218254876528905
-2.772589710332896
-2.704890516517872
-2.6002644897128726
-2.477175046412844
-2.391012436102846
-2.483329518577854
-2.723353933012873
-2.932605986622927
-3.018768596932925
-2.975687291777912
-2.9510694031179288
-2.932605986622927
-2.9510694031179288
-2.944914930952919
-2.9387604587879093
-2.944914930952919
-2.9510694031179288
-2.9510694031179288
-2.9510694031179288
-2.9510694031179288
-2.944914930952919
-2.9387604587879093
-2.944914930952919
-2.944914930952919
-2.944914930952919
-2.944914930952919
-2.9387604587879093
-2.932605986622927
-2.932605986622927
-2.9264515144579173
-2.9264515144579173
-2.9264515144579173
-2.9264515144579173
-2.9202970422929075
-2.9202970422929075
-2.9264515144579173
-2.907988097962916
-2.895679153632896
-2.895679153632896
-2.9202970422929075
-2.9264515144579173
-2.9202970422929075
-2.907988097962916
-2.901833625797906
-2.901833625797906
-2.895679153632896
-2.8895246814679143
-2.877215737137895
-2.877215737137895
-2.871061264972913
-2.8649067928079033
-2.8525978484779113
-2.8464433763129016
-2.8402889041478923
-2.83413443198291
-2.8218254876528905
-2.8218254876528905
-2.8156710154879088
-2.8033620711578893
-2.797207598992907
-2.797207598992907
-2.7910531268278973
-2.7910531268278973
-2.778744182497905
-2.778744182497905
-2.778744182497905
-2.7848986546628876
-2.7848986546628876
-2.8095165433228986
-2.8156710154879088
-2.83413443198291
-2.8649067928079033
-2.883370209302905
-2.901833625797906
-2.9202970422929075
-2.932605986622927
-2.944914930952919
-2.9572238752829105
-2.9633783474479203
-2.96953281961293
-2.975687291777912
-2.975687291777912
-2.975687291777912
-2.96953281961293
-2.96953281961293
-2.975687291777912
-2.975687291777912
-2.975687291777912
-2.96953281961293
-2.96953281961293
-2.9633783474479203
-2.9633783474479203
-2.9633783474479203
-2.9633783474479203
-2.96953281961293
-2.96953281961293
-2.944914930952919
-2.944914930952919
-2.944914930952919
-2.944914930952919
-2.9510694031179288
-2.9510694031179288
-2.9633783474479203
-2.975687291777912
-2.9633783474479203
-2.9633783474479203
-2.9510694031179288
-2.9510694031179288
-2.9510694031179288
-2.944914930952919
-2.9510694031179288
-2.944914930952919
-2.9387604587879093
-2.9387604587879093
-2.9387604587879093
-2.9387604587879093
-2.9387604587879093
-2.9387604587879093
-2.944914930952919
-2.932605986622927
-2.9387604587879093
-2.9387604587879093
-2.932605986622927
-2.932605986622927
-2.9387604587879093
-2.932605986622927
-2.9264515144579173
-2.932605986622927
-2.932605986622927
-2.9202970422929075
-2.9202970422929075
-2.9202970422929075
-2.9264515144579173
-2.9202970422929075
-2.9264515144579173
-2.9264515144579173
-2.9264515144579173
-2.932605986622927
-2.9202970422929075
-2.9264515144579173
-2.9202970422929075
-2.9202970422929075
-2.932605986622927
-2.9202970422929075
-2.9264515144579173
-2.9264515144579173
-2.9264515144579173
-2.9264515144579173
-2.9202970422929075
-2.9202970422929075
-2.907988097962916
-2.9141425701278982
-2.907988097962916
-2.901833625797906
-2.895679153632896
-2.883370209302905
-2.8895246814679143
-2.901833625797906
-2.883370209302905
-2.8895246814679143
-2.8895246814679143
-2.895679153632896
-2.907988097962916
-2.9141425701278982
-2.9141425701278982
-2.9387604587879093
-2.9510694031179288
-2.944914930952919
-2.944914930952919
-2.9387604587879093
-2.932605986622927
-2.932605986622927
-2.9264515144579173
-2.932605986622927
-2.9264515144579173
-2.932605986622927
-2.932605986622927
-2.9264515144579173
-2.9202970422929075
-2.9202970422929075
-2.9202970422929075
-2.9264515144579173
-2.9202970422929075
-2.9202970422929075
-2.9202970422929075
-2.895679153632896
-2.8525978484779113
-2.7848986546628876
-2.723353933012873
-2.649500267032867
-2.526410823732866
-2.409475852597848
-2.4156303247628297
-2.624882378372884
-2.871061264972913
-3.0249230690979347
-3.043386485592936
-2.994150708272913
-2.9572238752829105
-2.944914930952919
-2.932605986622927
-2.932605986622927
-2.932605986622927
-2.9387604587879093
-2.9387604587879093
-2.944914930952919
-2.9387604587879093
-2.944914930952919
-2.944914930952919
-2.932605986622927
-2.932605986622927
-2.9264515144579173
-2.932605986622927
-2.9264515144579173
-2.9202970422929075
-2.9202970422929075
-2.9141425701278982
-2.907988097962916
-2.907988097962916
-2.907988097962916
-2.907988097962916
-2.895679153632896
-2.895679153632896
-2.8895246814679143
-2.8895246814679143
-2.883370209302905
-2.8895246814679143
-2.8895246814679143
-2.895679153632896
-2.8895246814679143
-2.8895246814679143
-2.8895246814679143
-2.883370209302905
-2.871061264972913
-2.8525978484779113
-2.8525978484779113
-2.8464433763129016
-2.83413443198291
-2.8218254876528905
-2.8218254876528905
-2.8095165433228986
-2.8033620711578893
-2.797207598992907
-2.7910531268278973
-2.778744182497905
-2.772589710332896
-2.760280766002876
-2.754126293837894
-2.754126293837894
-2.7418173495078744
-2.735662877342893
-2.723353933012873
-2.729508405177883
-2.747971821672884
-2.747971821672884
-2.760280766002876
-2.778744182497905
-2.7910531268278973
-2.8218254876528905
-2.8402889041478923
-2.858752320642893
-2.883370209302905
-2.895679153632896
-2.907988097962916
-2.9202970422929075
-2.932605986622927
-2.932605986622927
-2.944914930952919
-2.9510694031179288
-2.944914930952919
-2.9572238752829105
-2.9572238752829105
-2.9510694031179288
-2.9510694031179288
-2.9510694031179288
-2.9510694031179288
-2.9572238752829105
-2.944914930952919
-2.9510694031179288
-2.9572238752829105
-2.944914930952919
-2.932605986622927
-2.9387604587879093
-2.9633783474479203
-2.975687291777912
-2.9572238752829105
-2.9510694031179288
-2.9510694031179288
-2.944914930952919
-2.944914930952919
-2.944914930952919
-2.9387604587879093
-2.944914930952919
-2.9387604587879093
-2.9387604587879093
-2.932605986622927
-2.9387604587879093
-2.932605986622927
-2.944914930952919
-2.944914930952919
-2.9387604587879093
-2.9387604587879093
-2.932605986622927
-2.9387604587879093
-2.9264515144579173
-2.9264515144579173
-2.932605986622927
-2.9387604587879093
-2.932605986622927
-2.9264515144579173
-2.9264515144579173
-2.932605986622927
-2.932605986622927
-2.9202970422929075
-2.9264515144579173
-2.932605986622927
-2.9202970422929075
-2.9264515144579173
-2.9202970422929075
-2.9264515144579173
-2.9264515144579173
-2.9202970422929075
-2.9141425701278982
-2.9202970422929075
-2.9202970422929075
-2.9202970422929075
-2.9264515144579173
-2.9141425701278982
-2.9202970422929075
-2.9202970422929075
-2.9141425701278982
-2.9264515144579173
-2.9202970422929075
-2.9202970422929075
-2.907988097962916
-2.901833625797906
-2.895679153632896
-2.901833625797906
-2.8895246814679143
-2.883370209302905
-2.883370209302905
-2.877215737137895
-2.8895246814679143
-2.8895246814679143
-2.8895246814679143
-2.907988097962916
-2.907988097962916
-2.907988097962916
-2.9141425701278982
-2.9141425701278982
-2.9202970422929075
-2.9264515144579173
-2.9202970422929075
-2.9264515144579173
-2.932605986622927
-2.932605986622927
-2.932605986622927
-2.932605986622927
-2.9264515144579173
-2.932605986622927
-2.932605986622927
-2.9202970422929075
-2.9202970422929075
-2.9202970422929075
-2.9264515144579173
-2.9264515144579173
-2.9264515144579173
-2.895679153632896
-2.907988097962916
-2.907988097962916
-2.8895246814679143
-2.8402889041478923
-2.772589710332896
-2.723353933012873
-2.655654739197877
-2.5325652958978484
-2.4217847969278394
-2.372549019607845
-2.5325652958978484
-2.772589710332896
-2.9633783474479203
-3.0003051804379233
-2.9633783474479203
-2.9264515144579173
-2.9141425701278982
-2.9141425701278982
-2.9264515144579173
-2.9141425701278982
-2.9141425701278982
-2.9141425701278982
-2.9202970422929075
-2.9202970422929075
-2.9141425701278982
-2.9141425701278982
-2.9141425701278982
-2.9141425701278982
-2.907988097962916
-2.9141425701278982
-2.9141425701278982
-2.907988097962916
-2.901833625797906
-2.9141425701278982
-2.883370209302905
-2.877215737137895
-2.8895246814679143
-2.8895246814679143
-2.883370209302905
-2.877215737137895
-2.877215737137895
-2.9141425701278982
-2.895679153632896
-2.858752320642893
-2.858752320642893
-2.858752320642893
-2.8649067928079033
-2.8649067928079033
-2.858752320642893
-2.883370209302905
-2.871061264972913
-2.8525978484779113
-2.8464433763129016
-2.83413443198291
-2.8279799598179
-2.8402889041478923
-2.8279799598179
-2.8279799598179
-2.8156710154879088
-2.797207598992907
-2.797207598992907
-2.7848986546628876
-2.778744182497905
-2.778744182497905
-2.760280766002876
-2.760280766002876
-2.747971821672884
-2.754126293837894
-2.747971821672884
-2.7418173495078744
-2.7418173495078744
-2.754126293837894
-2.760280766002876
-2.772589710332896
-2.797207598992907
-2.8095165433228986
-2.8279799598179
-2.8464433763129016
-2.871061264972913
-2.8895246814679143
-2.895679153632896
-2.901833625797906
-2.9141425701278982
-2.9202970422929075
-2.9264515144579173
-2.9264515144579173
-2.9264515144579173
-2.932605986622927
-2.932605986622927
-2.9264515144579173
-2.932605986622927
-2.9264515144579173
-2.9264515144579173
-2.932605986622927
-2.932605986622927
-2.9264515144579173
-2.932605986622927
-2.9264515144579173
-2.9264515144579173
-2.9264515144579173
-2.9264515144579173
-2.932605986622927
-2.9264515144579173
-2.9264515144579173
-2.932605986622927
-2.9202970422929075
-2.9264515144579173
-2.9202970422929075
-2.9264515144579173
-2.932605986622927
-2.932605986622927
-2.932605986622927
-2.9264515144579173
-2.9264515144579173
-2.9264515144579173
-2.9202970422929075
-2.9202970422929075
-2.9264515144579173
-2.9141425701278982
-2.9202970422929075
-2.9202970422929075
-2.9141425701278982
-2.907988097962916
-2.907988097962916
-2.9141425701278982
-2.901833625797906
-2.901833625797906
-2.907988097962916
-2.907988097962916
-2.901833625797906
-2.907988097962916
-2.907988097962916
-2.907988097962916
-2.901833625797906
-2.901833625797906
-2.907988097962916
-2.901833625797906
-2.907988097962916
-2.907988097962916
-2.907988097962916
-2.9141425701278982
-2.9141425701278982
-2.9141425701278982
-2.9141425701278982
-2.907988097962916
-2.907988097962916
-2.9141425701278982
-2.907988097962916
-2.901833625797906
-2.907988097962916
-2.9141425701278982
-2.907988097962916
-2.907988097962916
-2.907988097962916
-2.901833625797906
-2.9141425701278982
-2.8895246814679143
-2.895679153632896
-2.907988097962916
-2.932605986622927
-2.932605986622927
-2.9141425701278982
-2.901833625797906
-2.901833625797906
-2.895679153632896
-2.8895246814679143
-2.883370209302905
-2.877215737137895
-2.8649067928079033
-2.883370209302905
-2.8895246814679143
-2.895679153632896
-2.901833625797906
-2.901833625797906
-2.901833625797906
-2.907988097962916
-2.9141425701278982
-2.9202970422929075
-2.9264515144579173
-2.9264515144579173
-2.932605986622927
-2.9264515144579173
-2.9202970422929075
-2.932605986622927
-2.932605986622927
-2.932605986622927
-2.9264515144579173
-2.9264515144579173
-2.9264515144579173
-2.9202970422929075
-2.9264515144579173
-2.9202970422929075
-2.9141425701278982
-2.9141425701278982
-2.9202970422929075
-2.9141425701278982
-2.895679153632896
-2.871061264972913
-2.8095165433228986
-2.747971821672884
-2.68642710002287
-2.581801073217871
-2.4648661020828517
-2.360240075277825
-2.4217847969278394
-2.655654739197877
-2.871061264972913
-2.9818417639429216
-2.9387604587879093
-2.907988097962916
-2.895679153632896
-2.901833625797906
-2.907988097962916
-2.9141425701278982
-2.907988097962916
-2.9141425701278982
-2.9141425701278982
-2.907988097962916
-2.9141425701278982
-2.907988097962916
-2.907988097962916
-2.907988097962916
-2.907988097962916
-2.901833625797906
-2.901833625797906
-2.901833625797906
-2.895679153632896
-2.8895246814679143
-2.895679153632896
-2.895679153632896
-2.8895246814679143
-2.877215737137895
-2.883370209302905
-2.877215737137895
-2.877215737137895
-2.877215737137895
-2.871061264972913
