4.108110170138069
4.114264642303079
4.108110170138069
4.108110170138069
4.114264642303079
4.114264642303079
4.120419114468088
4.108110170138069
4.120419114468088
4.120419114468088
4.101955697973087
4.108110170138069
4.138882530963089
4.12657358663307
4.138882530963089
4.12657358663307
4.120419114468088
4.120419114468088
4.12657358663307
4.138882530963089
4.138882530963089
4.1327280587980795
4.138882530963089
4.138882530963089
4.1327280587980795
4.1327280587980795
4.1327280587980795
4.12657358663307
4.138882530963089
4.12657358663307
4.12657358663307
4.12657358663307
4.1327280587980795
4.12657358663307
4.120419114468088
4.12657358663307
4.138882530963089
4.120419114468088
4.12657358663307
4.1327280587980795
4.1327280587980795
4.1327280587980795
4.138882530963089
4.138882530963089
4.145037003128072
4.1327280587980795
4.145037003128072
4.151191475293081
4.151191475293081
4.145037003128072
4.138882530963089
4.151191475293081
4.145037003128072
4.145037003128072
4.138882530963089
4.145037003128072
4.138882530963089
4.138882530963089
4.1327280587980795
4.138882530963089
4.138882530963089
4.1327280587980795
4.145037003128072
4.145037003128072
4.151191475293081
4.145037003128072
4.1327280587980795
4.138882530963089
4.151191475293081
4.145037003128072
4.1327280587980795
4.138882530963089
4.145037003128072
4.1327280587980795
4.138882530963089
4.145037003128072
4.145037003128072
4.138882530963089
4.1327280587980795
4.1327280587980795
4.1327280587980795
4.138882530963089
4.1327280587980795
4.138882530963089
4.138882530963089
4.1327280587980795
4.138882530963089
4.145037003128072
4.138882530963089
4.12657358663307
4.138882530963089
4.145037003128072
4.138882530963089
4.151191475293081
4.145037003128072
4.145037003128072
4.145037003128072
4.151191475293081
4.145037003128072
4.145037003128072
4.151191475293081
4.169654891788083
4.163500419623101
4.163500419623101
4.151191475293081
4.163500419623101
4.169654891788083
4.169654891788083
4.163500419623101
4.157345947458091
4.163500419623101
4.157345947458091
4.138882530963089
4.1327280587980795
4.138882530963089
4.12657358663307
4.1327280587980795
4.1327280587980795
4.145037003128072
4.12657358663307
4.1327280587980795
4.114264642303079
4.1327280587980795
4.120419114468088
4.1327280587980795
4.12657358663307
4.120419114468088
4.12657358663307
4.120419114468088
4.114264642303079
4.12657358663307
4.12657358663307
4.12657358663307
4.12657358663307
4.114264642303079
4.12657358663307
4.1327280587980795
4.157345947458091
4.200427252613103
4.249663029933098
4.280435390758093
4.3112077515831135
4.329671168078114
4.305053279418103
4.261971974263091
4.200427252613103
4.1327280587980795
4.083492281478085
4.0711833371480655
4.077337809313075
4.077337809313075
4.083492281478085
4.089646753643067
4.108110170138069
4.120419114468088
4.1327280587980795
4.1327280587980795
4.1327280587980795
4.138882530963089
4.138882530963089
4.138882530963089
4.145037003128072
4.145037003128072
4.138882530963089
4.138882530963089
4.145037003128072
4.151191475293081
4.145037003128072
4.145037003128072
4.138882530963089
4.1327280587980795
4.151191475293081
4.163500419623101
4.157345947458091
4.145037003128072
4.145037003128072
4.151191475293081
4.151191475293081
4.138882530963089
4.145037003128072
4.157345947458091
4.163500419623101
4.151191475293081
4.157345947458091
4.163500419623101
4.169654891788083
4.169654891788083
4.169654891788083
4.1758093639530935
4.169654891788083
4.1758093639530935
4.181963836118102
4.181963836118102
4.188118308283084
4.181963836118102
4.1942727804480935
4.1942727804480935
4.188118308283084
4.1942727804480935
4.1942727804480935
4.200427252613103
4.218890669108104
4.212736196943095
4.2065817247780855
4.218890669108104
4.237354085603107
4.243508557768089
4.243508557768089
4.249663029933098
4.243508557768089
4.243508557768089
4.243508557768089
4.237354085603107
4.225045141273086
4.218890669108104
4.2065817247780855
4.2065817247780855
4.1942727804480935
4.1758093639530935
4.1758093639530935
4.169654891788083
4.157345947458091
4.145037003128072
4.138882530963089
4.12657358663307
4.120419114468088
4.114264642303079
4.108110170138069
4.114264642303079
4.114264642303079
4.114264642303079
4.114264642303079
4.114264642303079
4.120419114468088
4.120419114468088
4.114264642303079
4.114264642303079
4.114264642303079
4.114264642303079
4.108110170138069
4.120419114468088
4.12657358663307
4.120419114468088
4.114264642303079
4.12657358663307
4.12657358663307
4.1327280587980795
4.12657358663307
4.12657358663307
4.1327280587980795
4.120419114468088
4.108110170138069
4.114264642303079
4.120419114468088
4.138882530963089
4.1327280587980795
4.1327280587980795
4.120419114468088
4.12657358663307
4.12657358663307
4.12657358663307
4.12657358663307
4.12657358663307
4.12657358663307
4.12657358663307
4.120419114468088
4.101955697973087
4.12657358663307
4.138882530963089
4.12657358663307
4.1327280587980795
4.138882530963089
4.138882530963089
4.120419114468088
4.120419114468088
4.12657358663307
4.12657358663307
4.1327280587980795
4.138882530963089
4.138882530963089
4.12657358663307
4.12657358663307
4.120419114468088
4.1327280587980795
4.138882530963089
4.138882530963089
4.1327280587980795
4.138882530963089
4.138882530963089
4.138882530963089
4.1327280587980795
4.1327280587980795
4.1327280587980795
4.138882530963089
4.138882530963089
4.145037003128072
4.145037003128072
4.138882530963089
4.1327280587980795
4.145037003128072
4.145037003128072
4.1327280587980795
4.1327280587980795
4.145037003128072
4.151191475293081
4.138882530963089
4.1327280587980795
4.1327280587980795
4.138882530963089
4.151191475293081
4.145037003128072
4.138882530963089
4.138882530963089
4.145037003128072
4.151191475293081
4.151191475293081
4.151191475293081
4.138882530963089
4.151191475293081
4.145037003128072
4.151191475293081
4.157345947458091
4.151191475293081
4.151191475293081
4.138882530963089
4.145037003128072
4.145037003128072
4.145037003128072
4.145037003128072
4.145037003128072
4.145037003128072
4.157345947458091
4.151191475293081
4.157345947458091
4.151191475293081
4.157345947458091
4.157345947458091
4.163500419623101
4.163500419623101
4.163500419623101
4.157345947458091
4.157345947458091
4.157345947458091
4.157345947458091
4.151191475293081
4.145037003128072
4.157345947458091
4.163500419623101
4.163500419623101
4.157345947458091
4.151191475293081
4.151191475293081
4.151191475293081
4.151191475293081
4.157345947458091
4.157345947458091
4.151191475293081
4.151191475293081
4.151191475293081
4.157345947458091
4.157345947458091
4.151191475293081
4.163500419623101
4.157345947458091
4.151191475293081
4.138882530963089
4.157345947458091
4.145037003128072
4.138882530963089
4.145037003128072
4.157345947458091
4.157345947458091
4.151191475293081
4.163500419623101
4.157345947458091
4.157345947458091
4.151191475293081
4.163500419623101
4.163500419623101
4.163500419623101
4.151191475293081
4.151191475293081
4.163500419623101
4.157345947458091
4.151191475293081
4.151191475293081
4.163500419623101
4.151191475293081
4.157345947458091
4.157345947458091
4.151191475293081
4.151191475293081
4.157345947458091
4.151191475293081
4.157345947458091
4.163500419623101
4.157345947458091
4.163500419623101
4.163500419623101
4.157345947458091
4.151191475293081
4.169654891788083
4.163500419623101
4.169654891788083
4.169654891788083
4.1758093639530935
4.1758093639530935
4.1758093639530935
4.1758093639530935
4.169654891788083
4.163500419623101
4.169654891788083
4.163500419623101
4.163500419623101
4.157345947458091
4.157345947458091
4.157345947458091
4.151191475293081
4.145037003128072
4.138882530963089
4.163500419623101
4.151191475293081
4.145037003128072
4.145037003128072
4.151191475293081
4.151191475293081
4.145037003128072
4.145037003128072
4.138882530963089
4.145037003128072
4.145037003128072
4.151191475293081
4.151191475293081
4.145037003128072
4.138882530963089
4.145037003128072
4.145037003128072
4.145037003128072
4.1327280587980795
4.138882530963089
4.145037003128072
4.1758093639530935
4.2065817247780855
4.255817502098108
4.305053279418103
4.323516695913104
4.329671168078114
4.305053279418103
4.2681264464281
4.212736196943095
4.145037003128072
4.101955697973087
4.089646753643067
4.083492281478085
4.089646753643067
4.089646753643067
4.114264642303079
4.12657358663307
4.12657358663307
4.138882530963089
4.145037003128072
4.151191475293081
4.138882530963089
4.145037003128072
4.151191475293081
4.138882530963089
4.138882530963089
4.151191475293081
4.145037003128072
4.145037003128072
4.138882530963089
4.145037003128072
4.151191475293081
4.151191475293081
4.151191475293081
4.145037003128072
4.145037003128072
4.145037003128072
4.151191475293081
4.163500419623101
4.151191475293081
4.151191475293081
4.151191475293081
4.163500419623101
4.163500419623101
4.163500419623101
4.157345947458091
4.145037003128072
4.169654891788083
4.181963836118102
4.1758093639530935
4.169654891788083
4.169654891788083
4.151191475293081
4.163500419623101
4.1758093639530935
4.181963836118102
4.1758093639530935
4.181963836118102
4.1942727804480935
4.1942727804480935
4.200427252613103
4.2065817247780855
4.212736196943095
4.212736196943095
4.212736196943095
4.225045141273086
4.218890669108104
4.231199613438097
4.225045141273086
4.237354085603107
4.237354085603107
4.243508557768089
4.237354085603107
4.237354085603107
4.243508557768089
4.237354085603107
4.231199613438097
4.212736196943095
4.212736196943095
4.2065817247780855
4.1942727804480935
4.188118308283084
4.181963836118102
4.157345947458091
4.157345947458091
4.157345947458091
4.145037003128072
4.145037003128072
4.151191475293081
4.138882530963089
4.1327280587980795
4.138882530963089
4.1327280587980795
4.1327280587980795
4.12657358663307
4.12657358663307
4.1327280587980795
4.138882530963089
4.138882530963089
4.12657358663307
4.12657358663307
4.12657358663307
4.138882530963089
4.138882530963089
4.1327280587980795
4.1327280587980795
4.138882530963089
4.145037003128072
4.145037003128072
4.138882530963089
4.145037003128072
4.145037003128072
4.138882530963089
4.151191475293081
4.151191475293081
4.157345947458091
4.151191475293081
4.151191475293081
4.145037003128072
4.138882530963089
4.138882530963089
4.138882530963089
4.145037003128072
4.138882530963089
4.145037003128072
4.138882530963089
4.138882530963089
4.145037003128072
4.138882530963089
4.138882530963089
4.151191475293081
4.151191475293081
4.138882530963089
4.145037003128072
4.145037003128072
4.145037003128072
4.151191475293081
4.145037003128072
4.12657358663307
4.157345947458091
4.151191475293081
4.151191475293081
4.151191475293081
4.145037003128072
4.145037003128072
4.138882530963089
4.138882530963089
4.138882530963089
4.138882530963089
4.145037003128072
4.145037003128072
4.145037003128072
4.151191475293081
4.145037003128072
4.145037003128072
4.151191475293081
4.145037003128072
4.151191475293081
4.145037003128072
4.151191475293081
4.151191475293081
4.145037003128072
4.157345947458091
4.157345947458091
4.157345947458091
4.157345947458091
4.151191475293081
4.151191475293081
4.1327280587980795
4.1327280587980795
4.138882530963089
4.151191475293081
4.151191475293081
4.145037003128072
4.151191475293081
4.151191475293081
4.151191475293081
4.157345947458091
4.157345947458091
4.151191475293081
4.151191475293081
4.151191475293081
4.151191475293081
4.157345947458091
4.151191475293081
4.145037003128072
4.151191475293081
4.145037003128072
4.151191475293081
4.157345947458091
4.151191475293081
4.151191475293081
4.151191475293081
4.151191475293081
4.145037003128072
4.145037003128072
4.157345947458091
4.157345947458091
4.145037003128072
4.151191475293081
4.145037003128072
4.145037003128072
4.157345947458091
4.151191475293081
4.157345947458091
4.151191475293081
4.151191475293081
4.151191475293081
4.145037003128072
4.145037003128072
4.151191475293081
4.157345947458091
4.151191475293081
4.151191475293081
4.145037003128072
4.151191475293081
4.151191475293081
4.145037003128072
4.145037003128072
4.151191475293081
4.157345947458091
4.157345947458091
4.145037003128072
4.145037003128072
4.145037003128072
4.145037003128072
4.138882530963089
4.151191475293081
4.145037003128072
4.138882530963089
4.138882530963089
4.1327280587980795
4.151191475293081
4.145037003128072
4.151191475293081
4.157345947458091
4.145037003128072
4.138882530963089
4.145037003128072
4.157345947458091
4.151191475293081
4.157345947458091
4.151191475293081
4.151191475293081
4.145037003128072
4.151191475293081
4.145037003128072
4.138882530963089
4.138882530963089
4.145037003128072
4.145037003128072
4.157345947458091
4.151191475293081
4.145037003128072
4.145037003128072
4.145037003128072
4.145037003128072
4.145037003128072
4.138882530963089
4.145037003128072
4.145037003128072
4.138882530963089
4.145037003128072
4.145037003128072
4.145037003128072
4.157345947458091
4.151191475293081
4.151191475293081
4.151191475293081
4.157345947458091
4.157345947458091
4.138882530963089
4.145037003128072
4.157345947458091
4.1758093639530935
4.169654891788083
4.157345947458091
4.163500419623101
4.163500419623101
4.151191475293081
4.157345947458091
4.157345947458091
4.157345947458091
4.157345947458091
4.138882530963089
4.138882530963089
4.145037003128072
4.145037003128072
4.1327280587980795
4.138882530963089
4.114264642303079
4.1327280587980795
4.138882530963089
4.1327280587980795
4.101955697973087
4.12657358663307
4.1327280587980795
4.12657358663307
4.12657358663307
4.1327280587980795
4.138882530963089
4.138882530963089
4.1327280587980795
4.138882530963089
4.138882530963089
4.12657358663307
4.1327280587980795
4.12657358663307
4.1327280587980795
4.151191475293081
4.1942727804480935
4.237354085603107
4.280435390758093
4.3112077515831135
4.329671168078114
4.292744335088111
4.2681264464281
4.218890669108104
4.151191475293081
4.089646753643067
4.077337809313075
4.077337809313075
4.0711833371480655
4.0711833371480655
4.089646753643067
4.101955697973087
4.12657358663307
4.1327280587980795
4.12657358663307
4.12657358663307
4.120419114468088
4.114264642303079
4.114264642303079
4.12657358663307
4.145037003128072
4.138882530963089
4.095801225808079
4.114264642303079
4.157345947458091
4.163500419623101
4.151191475293081
4.151191475293081
4.157345947458091
4.157345947458091
4.157345947458091
4.157345947458091
4.157345947458091
4.151191475293081
4.157345947458091
4.157345947458091
4.151191475293081
4.157345947458091
4.157345947458091
4.157345947458091
4.169654891788083
4.163500419623101
4.157345947458091
4.157345947458091
4.163500419623101
4.163500419623101
4.163500419623101
4.169654891788083
4.169654891788083
4.163500419623101
4.163500419623101
4.163500419623101
4.169654891788083
4.169654891788083
4.1758093639530935
4.169654891788083
4.181963836118102
4.1942727804480935
4.1942727804480935
4.188118308283084
4.188118308283084
4.188118308283084
4.2065817247780855
4.200427252613103
4.200427252613103
4.200427252613103
4.2065817247780855
4.200427252613103
4.188118308283084
4.1758093639530935
4.181963836118102
4.200427252613103
4.181963836118102
4.157345947458091
4.138882530963089
4.120419114468088
4.151191475293081
4.181963836118102
4.157345947458091
4.1327280587980795
4.120419114468088
4.120419114468088
4.12657358663307
4.120419114468088
4.108110170138069
4.114264642303079
4.1327280587980795
4.1327280587980795
4.12657358663307
4.114264642303079
4.114264642303079
4.108110170138069
4.108110170138069
4.101955697973087
4.0711833371480655
4.065028864983084
4.095801225808079
4.108110170138069
4.077337809313075
4.108110170138069
4.12657358663307
4.120419114468088
4.101955697973087
4.101955697973087
4.083492281478085
4.083492281478085
4.095801225808079
4.083492281478085
4.052719920653064
4.077337809313075
4.120419114468088
4.101955697973087
4.101955697973087
4.095801225808079
4.095801225808079
4.089646753643067
4.108110170138069
4.114264642303079
4.101955697973087
4.095801225808079
4.108110170138069
4.101955697973087
4.077337809313075
4.089646753643067
4.108110170138069
4.108110170138069
4.101955697973087
4.089646753643067
4.0711833371480655
4.040410976323072
4.0465654484880815
4.108110170138069
4.138882530963089
4.1327280587980795
4.114264642303079
4.114264642303079
4.108110170138069
4.083492281478085
4.108110170138069
4.108110170138069
4.114264642303079
4.101955697973087
4.108110170138069
4.101955697973087
4.089646753643067
4.077337809313075
4.089646753643067
4.083492281478085
4.077337809313075
4.065028864983084
4.077337809313075
4.108110170138069
4.095801225808079
4.083492281478085
4.052719920653064
4.034256504158063
4.0465654484880815
4.095801225808079
4.1327280587980795
4.108110170138069
4.101955697973087
4.095801225808079
4.089646753643067
4.089646753643067
4.089646753643067
4.089646753643067
4.083492281478085
4.077337809313075
4.083492281478085
4.083492281478085
4.077337809313075
4.0711833371480655
4.065028864983084
4.077337809313075
4.0711833371480655
4.077337809313075
4.083492281478085
4.0711833371480655
4.0711833371480655
4.101955697973087
4.095801225808079
4.095801225808079
4.089646753643067
4.083492281478085
4.0711833371480655
4.089646753643067
4.108110170138069
4.083492281478085
4.083492281478085
4.089646753643067
4.065028864983084
4.052719920653064
4.040410976323072
4.108110170138069
4.1327280587980795
4.120419114468088
4.108110170138069
4.101955697973087
4.108110170138069
4.101955697973087
4.095801225808079
4.101955697973087
4.101955697973087
4.095801225808079
4.095801225808079
4.095801225808079
4.058874392818074
4.058874392818074
4.114264642303079
4.12657358663307
4.120419114468088
4.108110170138069
4.108110170138069
4.095801225808079
4.101955697973087
4.089646753643067
4.095801225808079
4.095801225808079
4.089646753643067
4.095801225808079
4.077337809313075
4.095801225808079
4.095801225808079
4.077337809313075
4.089646753643067
4.083492281478085
4.089646753643067
4.0711833371480655
4.0711833371480655
4.095801225808079
4.083492281478085
4.077337809313075
4.089646753643067
4.089646753643067
4.077337809313075
4.077337809313075
4.058874392818074
4.083492281478085
4.101955697973087
4.089646753643067
4.089646753643067
4.089646753643067
4.089646753643067
4.095801225808079
4.089646753643067
4.077337809313075
4.077337809313075
4.095801225808079
4.089646753643067
4.101955697973087
4.101955697973087
4.089646753643067
4.052719920653064
4.0711833371480655
4.095801225808079
4.065028864983084
4.108110170138069
4.108110170138069
4.114264642303079
4.1327280587980795
4.1327280587980795
4.108110170138069
4.108110170138069
4.1327280587980795
4.151191475293081
4.1327280587980795
4.12657358663307
4.1327280587980795
4.12657358663307
4.120419114468088
4.108110170138069
4.101955697973087
4.101955697973087
4.089646753643067
4.095801225808079
4.120419114468088
4.108110170138069
4.0711833371480655
4.089646753643067
4.12657358663307
4.12657358663307
4.114264642303079
4.101955697973087
4.089646753643067
4.095801225808079
4.095801225808079
4.12657358663307
4.120419114468088
4.108110170138069
4.101955697973087
4.101955697973087
4.101955697973087
4.114264642303079
4.108110170138069
4.108110170138069
4.114264642303079
4.114264642303079
4.1327280587980795
4.1758093639530935
4.2065817247780855
4.255817502098108
4.305053279418103
4.323516695913104
4.280435390758093
4.237354085603107
4.169654891788083
4.101955697973087
4.0711833371480655
4.058874392818074
4.052719920653064
4.0465654484880815
4.058874392818074
4.089646753643067
4.095801225808079
4.108110170138069
4.101955697973087
4.108110170138069
4.101955697973087
4.108110170138069
4.114264642303079
4.1327280587980795
4.1327280587980795
4.1327280587980795
4.1327280587980795
4.1327280587980795
4.12657358663307
4.120419114468088
4.120419114468088
4.1327280587980795
4.1327280587980795
4.138882530963089
4.138882530963089
4.1327280587980795
4.12657358663307
4.1327280587980795
4.120419114468088
4.138882530963089
4.151191475293081
4.145037003128072
4.145037003128072
4.145037003128072
4.145037003128072
4.145037003128072
4.163500419623101
4.151191475293081
4.151191475293081
4.169654891788083
4.169654891788083
4.157345947458091
4.145037003128072
4.145037003128072
4.163500419623101
4.181963836118102
4.181963836118102
4.169654891788083
4.169654891788083
4.1758093639530935
4.169654891788083
4.169654891788083
4.1758093639530935
4.1942727804480935
4.200427252613103
4.188118308283084
4.1942727804480935
4.200427252613103
4.2065817247780855
4.2065817247780855
4.2065817247780855
4.212736196943095
4.212736196943095
4.2065817247780855
4.200427252613103
4.2065817247780855
4.2065817247780855
4.188118308283084
4.1758093639530935
4.1758093639530935
4.1758093639530935
4.163500419623101
4.157345947458091
4.138882530963089
4.1327280587980795
4.120419114468088
4.108110170138069
4.114264642303079
4.114264642303079
4.114264642303079
4.108110170138069
4.101955697973087
4.108110170138069
4.101955697973087
4.101955697973087
4.095801225808079
4.095801225808079
4.101955697973087
4.101955697973087
4.108110170138069
4.114264642303079
4.108110170138069
4.095801225808079
4.083492281478085
4.095801225808079
4.1327280587980795
4.120419114468088
4.108110170138069
4.101955697973087
4.114264642303079
4.120419114468088
4.114264642303079
4.120419114468088
4.120419114468088
4.114264642303079
4.108110170138069
4.108110170138069
4.114264642303079
4.114264642303079
4.108110170138069
4.095801225808079
4.083492281478085
4.120419114468088
4.1327280587980795
4.114264642303079
4.108110170138069
4.108110170138069
4.120419114468088
4.120419114468088
4.12657358663307
4.12657358663307
4.120419114468088
4.12657358663307
4.12657358663307
4.12657358663307
4.120419114468088
4.12657358663307
4.120419114468088
4.120419114468088
4.12657358663307
4.12657358663307
4.120419114468088
4.120419114468088
4.12657358663307
4.114264642303079
4.120419114468088
4.1327280587980795
4.12657358663307
4.120419114468088
4.120419114468088
4.114264642303079
4.1327280587980795
4.1327280587980795
4.114264642303079
4.138882530963089
4.138882530963089
4.12657358663307
4.114264642303079
4.120419114468088
4.1327280587980795
4.120419114468088
4.114264642303079
4.12657358663307
4.120419114468088
4.120419114468088
4.114264642303079
4.108110170138069
4.114264642303079
4.12657358663307
4.114264642303079
4.114264642303079
4.120419114468088
4.12657358663307
4.12657358663307
4.120419114468088
4.1327280587980795
4.120419114468088
4.1327280587980795
4.1327280587980795
4.12657358663307
4.12657358663307
4.1327280587980795
4.120419114468088
4.12657358663307
4.114264642303079
4.114264642303079
4.1327280587980795
4.1327280587980795
4.12657358663307
4.12657358663307
4.120419114468088
4.1327280587980795
4.12657358663307
4.12657358663307
4.12657358663307
4.12657358663307
4.120419114468088
4.120419114468088
4.12657358663307
4.12657358663307
4.1327280587980795
4.120419114468088
4.12657358663307
4.12657358663307
4.1327280587980795
4.12657358663307
4.1327280587980795
4.1327280587980795
4.138882530963089
4.1327280587980795
4.1327280587980795
4.1327280587980795
4.1327280587980795
4.12657358663307
4.114264642303079
4.1327280587980795
4.1327280587980795
4.1327280587980795
4.145037003128072
4.151191475293081
4.1327280587980795
4.1327280587980795
4.1327280587980795
4.12657358663307
4.12657358663307
4.138882530963089
4.138882530963089
4.12657358663307
4.12657358663307
4.1327280587980795
4.12657358663307
4.1327280587980795
4.145037003128072
4.1327280587980795
4.1327280587980795
4.1327280587980795
4.1327280587980795
4.12657358663307
4.1327280587980795
4.1327280587980795
4.138882530963089
4.12657358663307
4.120419114468088
4.12657358663307
4.138882530963089
4.1327280587980795
4.1327280587980795
4.1327280587980795
4.1327280587980795
4.1327280587980795
4.12657358663307
4.1327280587980795
4.138882530963089
4.145037003128072
4.145037003128072
4.138882530963089
4.138882530963089
4.138882530963089
4.12657358663307
4.138882530963089
4.138882530963089
4.1327280587980795
4.138882530963089
4.138882530963089
4.138882530963089
4.138882530963089
4.1327280587980795
4.12657358663307
4.145037003128072
4.151191475293081
4.138882530963089
4.1327280587980795
4.1327280587980795
4.145037003128072
4.151191475293081
4.151191475293081
4.138882530963089
4.138882530963089
4.157345947458091
4.163500419623101
4.151191475293081
4.145037003128072
4.157345947458091
4.157345947458091
4.151191475293081
4.145037003128072
4.145037003128072
4.151191475293081
4.138882530963089
4.114264642303079
4.138882530963089
4.1327280587980795
4.12657358663307
4.12657358663307
4.114264642303079
4.120419114468088
4.114264642303079
4.114264642303079
4.12657358663307
4.12657358663307
4.120419114468088
4.120419114468088
4.120419114468088
4.12657358663307
4.114264642303079
4.114264642303079
4.12657358663307
4.1327280587980795
4.12657358663307
4.120419114468088
4.108110170138069
4.114264642303079
4.12657358663307
4.1327280587980795
4.163500419623101
4.200427252613103
4.249663029933098
4.280435390758093
4.3112077515831135
4.3173622237481215
4.2865898629231
4.243508557768089
4.181963836118102
4.108110170138069
4.0711833371480655
4.058874392818074
4.065028864983084
4.0711833371480655
4.089646753643067
4.101955697973087
4.120419114468088
4.114264642303079
4.114264642303079
4.120419114468088
4.120419114468088
4.114264642303079
4.120419114468088
4.114264642303079
4.120419114468088
4.114264642303079
4.120419114468088
4.114264642303079
4.108110170138069
4.114264642303079
4.120419114468088
4.120419114468088
4.12657358663307
4.120419114468088
4.12657358663307
4.12657358663307
4.12657358663307
4.12657358663307
4.1327280587980795
4.1327280587980795
4.12657358663307
4.12657358663307
4.12657358663307
4.138882530963089
4.138882530963089
4.1327280587980795
4.138882530963089
4.145037003128072
4.145037003128072
4.145037003128072
4.138882530963089
4.145037003128072
4.145037003128072
4.145037003128072
4.145037003128072
4.151191475293081
4.157345947458091
4.157345947458091
4.181963836118102
4.218890669108104
4.225045141273086
4.225045141273086
4.218890669108104
4.231199613438097
4.231199613438097
4.225045141273086
4.225045141273086
4.231199613438097
4.231199613438097
4.237354085603107
4.237354085603107
4.237354085603107
4.237354085603107
4.225045141273086
4.225045141273086
4.218890669108104
4.218890669108104
4.2065817247780855
4.1942727804480935
4.1758093639530935
4.169654891788083
4.163500419623101
4.138882530963089
4.101955697973087
4.095801225808079
4.120419114468088
4.120419114468088
4.101955697973087
4.089646753643067
4.083492281478085
4.089646753643067
4.095801225808079
4.089646753643067
4.089646753643067
4.083492281478085
4.077337809313075
4.077337809313075
4.058874392818074
4.089646753643067
4.095801225808079
4.095801225808079
4.095801225808079
4.089646753643067
4.089646753643067
4.083492281478085
4.065028864983084
4.065028864983084
4.0711833371480655
4.089646753643067
4.095801225808079
4.095801225808079
4.089646753643067
4.0711833371480655
4.083492281478085
4.101955697973087
4.095801225808079
4.095801225808079
4.095801225808079
4.101955697973087
4.095801225808079
4.095801225808079
4.095801225808079
4.095801225808079
4.101955697973087
4.095801225808079
4.101955697973087
4.095801225808079
4.101955697973087
4.101955697973087
4.089646753643067
4.108110170138069
4.114264642303079
4.108110170138069
4.108110170138069
4.120419114468088
4.108110170138069
4.108110170138069
4.114264642303079
4.120419114468088
4.114264642303079
4.101955697973087
4.101955697973087
4.108110170138069
4.108110170138069
4.108110170138069
4.108110170138069
4.108110170138069
4.108110170138069
4.108110170138069
4.108110170138069
4.101955697973087
4.101955697973087
4.0711833371480655
4.108110170138069
4.114264642303079
4.108110170138069
4.101955697973087
4.114264642303079
4.12657358663307
4.108110170138069
4.089646753643067
4.101955697973087
4.108110170138069
4.108110170138069
4.108110170138069
4.108110170138069
4.101955697973087
4.108110170138069
4.101955697973087
4.108110170138069
4.101955697973087
4.095801225808079
4.101955697973087
4.114264642303079
4.114264642303079
4.114264642303079
4.120419114468088
4.114264642303079
4.120419114468088
4.114264642303079
4.114264642303079
4.114264642303079
4.120419114468088
4.114264642303079
4.108110170138069
4.101955697973087
4.114264642303079
4.120419114468088
4.108110170138069
4.108110170138069
4.108110170138069
4.108110170138069
4.114264642303079
4.108110170138069
4.101955697973087
4.089646753643067
4.101955697973087
4.114264642303079
4.108110170138069
4.114264642303079
4.120419114468088
4.114264642303079
4.108110170138069
4.120419114468088
4.108110170138069
4.095801225808079
4.108110170138069
4.120419114468088
4.12657358663307
4.114264642303079
4.114264642303079
4.120419114468088
4.120419114468088
4.108110170138069
4.108110170138069
4.101955697973087
4.114264642303079
4.101955697973087
4.101955697973087
4.101955697973087
4.138882530963089
4.1327280587980795
4.114264642303079
4.108110170138069
4.114264642303079
4.114264642303079
4.120419114468088
4.114264642303079
4.114264642303079
4.114264642303079
4.108110170138069
4.101955697973087
4.12657358663307
4.138882530963089
4.138882530963089
4.1327280587980795
4.1327280587980795
4.12657358663307
4.12657358663307
4.1327280587980795
4.1327280587980795
4.120419114468088
4.120419114468088
4.1327280587980795
4.12657358663307
4.095801225808079
4.0711833371480655
4.095801225808079
4.145037003128072
4.169654891788083
4.151191475293081
4.138882530963089
4.138882530963089
4.1327280587980795
4.1327280587980795
4.138882530963089
4.138882530963089
4.138882530963089
4.1327280587980795
4.138882530963089
4.138882530963089
4.120419114468088
4.12657358663307
4.138882530963089
4.145037003128072
4.138882530963089
4.138882530963089
4.145037003128072
4.151191475293081
4.1327280587980795
4.151191475293081
4.163500419623101
4.157345947458091
4.151191475293081
4.163500419623101
4.169654891788083
4.157345947458091
4.145037003128072
4.145037003128072
4.151191475293081
4.138882530963089
4.1327280587980795
4.151191475293081
4.157345947458091
4.145037003128072
4.120419114468088
4.095801225808079
4.095801225808079
4.108110170138069
4.138882530963089
4.157345947458091
4.151191475293081
4.1327280587980795
4.138882530963089
4.138882530963089
4.1327280587980795
4.12657358663307
4.12657358663307
4.1327280587980795
4.1327280587980795
4.120419114468088
4.120419114468088
4.120419114468088
4.12657358663307
4.1327280587980795
4.12657358663307
4.120419114468088
4.114264642303079
4.114264642303079
4.1327280587980795
4.169654891788083
4.218890669108104
4.249663029933098
4.280435390758093
4.292744335088111
4.292744335088111
4.2865898629231
4.237354085603107
4.163500419623101
4.101955697973087
4.077337809313075
4.0711833371480655
4.0711833371480655
4.083492281478085
4.083492281478085
4.089646753643067
4.101955697973087
4.108110170138069
4.120419114468088
4.12657358663307
4.120419114468088
4.120419114468088
4.108110170138069
4.108110170138069
4.120419114468088
4.120419114468088
4.114264642303079
4.114264642303079
4.101955697973087
4.083492281478085
4.077337809313075
4.095801225808079
4.138882530963089
4.138882530963089
4.1327280587980795
4.12657358663307
4.12657358663307
4.101955697973087
4.101955697973087
4.089646753643067
4.089646753643067
4.108110170138069
4.101955697973087
4.095801225808079
4.108110170138069
4.108110170138069
4.095801225808079
4.089646753643067
4.101955697973087
4.108110170138069
4.101955697973087
4.101955697973087
4.108110170138069
4.120419114468088
4.12657358663307
4.108110170138069
4.120419114468088
4.120419114468088
4.114264642303079
4.114264642303079
4.12657358663307
4.138882530963089
4.138882530963089
4.12657358663307
4.1327280587980795
4.151191475293081
4.157345947458091
4.151191475293081
4.157345947458091
4.157345947458091
4.151191475293081
4.151191475293081
4.151191475293081
4.151191475293081
4.157345947458091
4.151191475293081
4.157345947458091
4.145037003128072
4.138882530963089
4.114264642303079
4.114264642303079
4.095801225808079
4.083492281478085
4.083492281478085
4.089646753643067
4.089646753643067
4.0711833371480655
4.058874392818074
4.0465654484880815
4.040410976323072
4.0465654484880815
4.052719920653064
4.065028864983084
4.058874392818074
4.040410976323072
4.009638615498079
4.034256504158063
4.0711833371480655
4.077337809313075
4.065028864983084
4.065028864983084
4.0711833371480655
4.065028864983084
4.058874392818074
4.058874392818074
4.034256504158063
4.015793087663061
4.058874392818074
4.0711833371480655
4.052719920653064
4.021947559828071
4.034256504158063
4.0465654484880815
4.0711833371480655
4.077337809313075
4.083492281478085
4.083492281478085
4.083492281478085
4.089646753643067
4.095801225808079
4.095801225808079
4.083492281478085
4.083492281478085
4.108110170138069
4.108110170138069
4.108110170138069
4.077337809313075
4.0711833371480655
4.089646753643067
4.095801225808079
4.077337809313075
4.077337809313075
4.101955697973087
4.114264642303079
4.108110170138069
4.0711833371480655
4.095801225808079
4.095801225808079
4.095801225808079
4.083492281478085
4.083492281478085
4.0465654484880815
4.114264642303079
4.1327280587980795
4.138882530963089
4.12657358663307
4.12657358663307
4.12657358663307
4.138882530963089
4.138882530963089
4.12657358663307
4.114264642303079
4.101955697973087
4.089646753643067
4.089646753643067
4.077337809313075
4.095801225808079
4.108110170138069
4.089646753643067
4.089646753643067
4.095801225808079
4.095801225808079
4.077337809313075
4.052719920653064
4.0465654484880815
4.065028864983084
4.114264642303079
4.095801225808079
4.095801225808079
4.089646753643067
4.052719920653064
4.089646753643067
4.145037003128072
4.114264642303079
4.108110170138069
4.089646753643067
4.083492281478085
4.101955697973087
4.089646753643067
4.083492281478085
4.095801225808079
4.083492281478085
4.089646753643067
4.083492281478085
4.095801225808079
4.095801225808079
4.089646753643067
4.089646753643067
4.089646753643067
4.0711833371480655
4.077337809313075
4.0711833371480655
4.065028864983084
4.095801225808079
4.083492281478085
4.077337809313075
4.0711833371480655
4.089646753643067
4.114264642303079
4.095801225808079
4.108110170138069
4.108110170138069
4.101955697973087
4.095801225808079
4.089646753643067
4.095801225808079
4.089646753643067
4.089646753643067
4.095801225808079
4.089646753643067
4.095801225808079
4.095801225808079
4.089646753643067
4.095801225808079
4.089646753643067
4.065028864983084
4.095801225808079
4.1327280587980795
4.108110170138069
4.12657358663307
4.12657358663307
4.114264642303079
4.108110170138069
4.101955697973087
4.077337809313075
4.077337809313075
4.0711833371480655
4.101955697973087
4.101955697973087
4.108110170138069
4.089646753643067
4.0711833371480655
4.083492281478085
4.083492281478085
4.083492281478085
4.095801225808079
4.095801225808079
4.101955697973087
4.089646753643067
4.095801225808079
4.095801225808079
4.083492281478085
4.089646753643067
4.101955697973087
4.077337809313075
4.083492281478085
4.108110170138069
4.114264642303079
4.095801225808079
4.101955697973087
4.095801225808079
4.095801225808079
4.083492281478085
4.0711833371480655
4.089646753643067
4.114264642303079
4.114264642303079
4.089646753643067
4.095801225808079
4.089646753643067
4.101955697973087
4.120419114468088
4.108110170138069
4.12657358663307
4.261971974263091
4.465069555708134
4.631240304163148
4.748175275298167
4.828183413443182
4.908191551588198
4.982045217568204
5.0312809948882
5.0743623000432105
5.142061493858235
5.19129727117823
5.203606215508222
5.271305409323245
5.320541186643241
5.351313547468262
5.382085908293255
5.382085908293255
5.406703796953265
5.412858269118276
5.412858269118276
5.406703796953265
5.406703796953265
5.406703796953265
5.4005493247882566
5.394394852623274
5.394394852623274
5.363622491798253
5.345159075303252
5.326695658808251
5.33285013097326
5.345159075303252
5.3390046031382425
5.345159075303252
5.345159075303252
5.345159075303252
5.357468019633243
5.375931436128245
5.369776963963263
5.3390046031382425
5.3390046031382425
5.3390046031382425
5.326695658808251
5.295923297983257
5.283614353653239
5.308232242313249
5.326695658808251
5.289768825818246
5.185142799013221
4.834337885608192
4.077337809313075
3.3449556216779697
3.1110856794079322
3.043386485592936
3.0864677907479487
3.080313318582939
3.049540957757918
2.9879962361079313
2.9510694031179288
2.907988097962916
2.8649067928079033
2.8895246814679143
2.907988097962916
2.9141425701278982
2.901833625797906
2.932605986622927
2.877215737137895
2.747971821672884
2.471020574247862
1.7694107474377496
1.2462806134126705
1.1601180031026725
1.1724269474326645
1.1970448360926755
1.2339716690826785
1.2585895577426898
1.2955163907326928
1.326288751557686
1.3693700567126987
1.4124513618677115
1.5355408051677124
2.0217441062027888
2.975687291777912
3.375727982502963
3.529589786627985
3.6219068691030203
3.701915007248036
3.7449963124030208
3.7942320897230433
3.831158922713046
3.8619312835380395
3.886549172198051
3.9173215330230438
3.9357849495180455
3.948093893848065
3.9665573103430645
3.9850207268380675
4.015793087663061
4.052719920653064
4.028102031993082
3.905012588693053
3.264947483532954
2.335622186617841
1.990971745377768
1.91096360723278
1.91096360723278
1.972508328882766
2.003280689707787
2.009435161872797
2.015589634037779
2.04020752269779
2.064825411357801
2.0955977721827947
2.138679077337807
2.175605910327811
2.1817603824928202
2.194069326822812
2.2740774649678275
2.286386409297819
2.298695353627811
2.329467714452832
2.360240075277825
2.378703491772827
2.3971669082678284
2.4156303247628297
2.4402482134228407
2.4648661020828517
2.477175046412844
2.495638462907845
2.5141018794028467
2.544874240227868
2.5694921288878514
2.5941100175478624
2.618727906207874
2.6618092113628857
2.735662877342893
2.7848986546628876
2.883370209302905
3.0126141247679152
3.1726304010579467
3.437272704152977
3.8927036443630603
4.237354085603107
4.415833778388112
4.520459805193139
4.5943134711731455
4.631240304163148
4.649703720658149
4.67432160931816
4.67432160931816
4.711248442308165
4.735866330968175
4.735866330968175
4.7420208031331565
4.735866330968175
4.705093970143154
4.723557386638154
4.778947636123188
4.778947636123188
4.766638691793168
4.766638691793168
4.748175275298167
4.735866330968175
4.748175275298167
4.772793163958178
4.766638691793168
4.754329747463175
4.754329747463175
4.7420208031331565
4.7420208031331565
4.7420208031331565
4.735866330968175
4.7297118588031655
4.717402914473172
4.711248442308165
4.711248442308165
4.711248442308165
4.698939497978172
4.698939497978172
4.692785025813162
4.692785025813162
4.686630553648152
4.68047608148317
4.67432160931816
4.668167137153151
4.668167137153151
4.655858192823159
4.649703720658149
4.649703720658149
4.6435492484931675
4.637394776328158
4.631240304163148
4.631240304163148
4.606622415503137
4.6004679433381535
4.6004679433381535
4.6004679433381535
4.588158999008135
4.5820045268431535
4.575850054678144
4.575850054678144
4.575850054678144
4.569695582513134
4.563541110348153
4.551232166018132
4.54507769385315
4.557386638183142
4.551232166018132
4.551232166018132
4.52661427735815
4.514305333028129
4.52661427735815
4.508150860863147
4.501996388698137
4.501996388698137
4.495841916533129
4.501996388698137
4.508150860863147
4.489687444368147
4.489687444368147
4.483532972203136
4.483532972203136
4.483532972203136
4.471224027873144
4.465069555708134
4.465069555708134
4.465069555708134
4.458915083543125
4.458915083543125
4.452760611378115
4.458915083543125
4.440451667048122
4.421988250553122
4.440451667048122
4.452760611378115
4.458915083543125
4.440451667048122
4.434297194883113
4.428142722718132
4.428142722718132
4.428142722718132
4.421988250553122
4.421988250553122
4.40967930622313
4.40967930622313
4.40967930622313
4.40352483405812
4.40352483405812
4.397370361893111
4.397370361893111
4.391215889728128
4.391215889728128
4.391215889728128
4.385061417563119
4.391215889728128
4.385061417563119
4.360443528903107
4.385061417563119
4.385061417563119
4.360443528903107
4.354289056738125
4.360443528903107
4.360443528903107
4.360443528903107
4.360443528903107
4.360443528903107
4.354289056738125
4.354289056738125
4.335825640243124
4.335825640243124
4.348134584573115
4.341980112408105
4.335825640243124
4.335825640243124
4.335825640243124
4.323516695913104
4.329671168078114
4.323516695913104
4.3173622237481215
4.3173622237481215
4.323516695913104
4.323516695913104
4.3112077515831135
4.3112077515831135
4.3112077515831135
4.305053279418103
4.305053279418103
4.298898807253093
4.305053279418103
4.305053279418103
4.3112077515831135
4.298898807253093
4.298898807253093
4.292744335088111
4.292744335088111
4.2865898629231
4.292744335088111
4.305053279418103
4.298898807253093
4.2865898629231
4.27428091859311
4.280435390758093
4.292744335088111
4.298898807253093
4.292744335088111
4.2865898629231
4.2865898629231
4.292744335088111
4.280435390758093
4.280435390758093
4.2865898629231
4.292744335088111
4.292744335088111
4.2865898629231
4.27428091859311
4.2865898629231
4.280435390758093
4.27428091859311
4.2681264464281
4.261971974263091
4.2681264464281
4.261971974263091
4.249663029933098
4.243508557768089
4.231199613438097
4.249663029933098
4.243508557768089
4.243508557768089
4.243508557768089
4.237354085603107
4.237354085603107
4.237354085603107
4.237354085603107
4.231199613438097
4.231199613438097
4.225045141273086
4.231199613438097
4.225045141273086
4.231199613438097
4.225045141273086
4.231199613438097
4.225045141273086
4.212736196943095
4.212736196943095
4.225045141273086
4.218890669108104
4.231199613438097
4.255817502098108
4.292744335088111
4.323516695913104
4.3727524732331275
4.391215889728128
4.385061417563119
4.354289056738125
4.3173622237481215
4.255817502098108
4.200427252613103
4.169654891788083
4.163500419623101
4.163500419623101
4.163500419623101
4.169654891788083
4.181963836118102
4.1942727804480935
4.200427252613103
4.2065817247780855
4.2065817247780855
4.212736196943095
4.218890669108104
4.212736196943095
4.212736196943095
4.212736196943095
4.2065817247780855
4.212736196943095
4.218890669108104
4.218890669108104
4.218890669108104
4.2065817247780855
4.2065817247780855
4.225045141273086
4.218890669108104
4.212736196943095
4.212736196943095
4.218890669108104
4.212736196943095
4.200427252613103
4.2065817247780855
4.212736196943095
4.212736196943095
4.2065817247780855
4.2065817247780855
4.212736196943095
4.2065817247780855
4.249663029933098
4.452760611378115
4.575850054678144
4.54507769385315
4.508150860863147
4.471224027873144
4.446606139213133
4.434297194883113
4.40967930622313
4.385061417563119
4.3727524732331275
4.360443528903107
4.348134584573115
4.341980112408105
4.335825640243124
4.323516695913104
4.323516695913104
4.329671168078114
4.3173622237481215
4.3112077515831135
4.3112077515831135
4.305053279418103
4.305053279418103
4.305053279418103
4.3112077515831135
4.292744335088111
4.2865898629231
4.298898807253093
4.2865898629231
4.280435390758093
4.280435390758093
4.2681264464281
4.255817502098108
4.243508557768089
4.231199613438097
4.225045141273086
4.200427252613103
4.200427252613103
4.181963836118102
4.163500419623101
4.163500419623101
4.163500419623101
4.151191475293081
4.145037003128072
4.138882530963089
4.1327280587980795
4.138882530963089
4.138882530963089
4.1327280587980795
4.138882530963089
4.138882530963089
4.1327280587980795
4.12657358663307
4.114264642303079
4.120419114468088
4.1327280587980795
4.12657358663307
4.12657358663307
4.114264642303079
4.120419114468088
4.120419114468088
4.120419114468088
4.120419114468088
4.12657358663307
4.120419114468088
4.12657358663307
4.138882530963089
4.138882530963089
4.138882530963089
4.138882530963089
4.120419114468088
4.1327280587980795
4.1327280587980795
4.145037003128072
4.138882530963089
4.12657358663307
4.1327280587980795
4.1327280587980795
4.120419114468088
4.108110170138069
4.108110170138069
4.138882530963089
4.151191475293081
4.157345947458091
4.138882530963089
4.138882530963089
4.151191475293081
4.145037003128072
4.151191475293081
4.157345947458091
4.151191475293081
4.138882530963089
4.145037003128072
4.145037003128072
4.151191475293081
4.151191475293081
4.151191475293081
4.145037003128072
4.138882530963089
4.1327280587980795
4.145037003128072
4.157345947458091
4.163500419623101
4.145037003128072
4.138882530963089
4.1327280587980795
4.138882530963089
4.1327280587980795
4.157345947458091
4.145037003128072
4.1327280587980795
4.12657358663307
4.1327280587980795
4.138882530963089
4.138882530963089
4.1327280587980795
4.138882530963089
4.145037003128072
4.138882530963089
4.151191475293081
4.145037003128072
4.145037003128072
4.1327280587980795
4.138882530963089
4.1327280587980795
4.1327280587980795
4.151191475293081
4.145037003128072
4.138882530963089
4.145037003128072
4.151191475293081
4.138882530963089
4.12657358663307
4.12657358663307
4.138882530963089
4.1327280587980795
4.138882530963089
4.145037003128072
4.145037003128072
4.138882530963089
4.1327280587980795
4.1327280587980795
4.145037003128072
4.138882530963089
4.138882530963089
4.138882530963089
4.138882530963089
4.1327280587980795
4.1327280587980795
4.145037003128072
4.151191475293081
4.138882530963089
4.138882530963089
4.1327280587980795
4.138882530963089
4.1327280587980795
4.1327280587980795
4.151191475293081
4.157345947458091
4.145037003128072
4.138882530963089
4.145037003128072
4.138882530963089
4.138882530963089
4.145037003128072
4.145037003128072
4.145037003128072
4.138882530963089
4.145037003128072
4.138882530963089
4.1327280587980795
4.1327280587980795
4.138882530963089
4.1327280587980795
4.145037003128072
4.138882530963089
4.1327280587980795
4.12657358663307
4.138882530963089
4.138882530963089
4.138882530963089
4.12657358663307
4.1327280587980795
4.138882530963089
4.138882530963089
4.151191475293081
4.145037003128072
4.138882530963089
4.12657358663307
4.138882530963089
4.138882530963089
4.145037003128072
4.1327280587980795
4.12657358663307
4.138882530963089
4.138882530963089
4.145037003128072
4.1327280587980795
4.138882530963089
4.145037003128072
4.1327280587980795
4.1327280587980795
4.145037003128072
4.138882530963089
4.151191475293081
4.138882530963089
4.138882530963089
4.1327280587980795
4.1327280587980795
4.138882530963089
4.1327280587980795
4.1327280587980795
4.145037003128072
4.145037003128072
4.145037003128072
4.145037003128072
4.145037003128072
4.138882530963089
4.12657358663307
4.12657358663307
4.145037003128072
4.163500419623101
4.163500419623101
4.163500419623101
4.169654891788083
4.151191475293081
4.138882530963089
4.1327280587980795
4.145037003128072
4.145037003128072
4.151191475293081
4.138882530963089
4.12657358663307
4.138882530963089
4.138882530963089
4.12657358663307
4.138882530963089
4.12657358663307
4.1327280587980795
4.12657358663307
4.138882530963089
4.12657358663307
4.114264642303079
4.114264642303079
4.12657358663307
4.138882530963089
4.138882530963089
4.145037003128072
4.138882530963089
4.138882530963089
4.12657358663307
4.120419114468088
4.1327280587980795
4.12657358663307
4.138882530963089
4.145037003128072
4.151191475293081
4.169654891788083
4.218890669108104
4.2681264464281
4.292744335088111
4.3112077515831135
4.298898807253093
4.27428091859311
4.231199613438097
4.163500419623101
4.114264642303079
4.095801225808079
4.089646753643067
4.083492281478085
4.077337809313075
4.083492281478085
4.095801225808079
4.114264642303079
4.157345947458091
4.145037003128072
4.058874392818074
4.0711833371480655
4.1942727804480935
4.200427252613103
4.169654891788083
4.151191475293081
4.157345947458091
4.163500419623101
4.163500419623101
4.169654891788083
4.157345947458091
4.157345947458091
4.163500419623101
4.157345947458091
4.163500419623101
4.157345947458091
4.163500419623101
4.169654891788083
4.169654891788083
4.169654891788083
4.163500419623101
4.157345947458091
4.163500419623101
4.157345947458091
4.151191475293081
4.151191475293081
4.138882530963089
4.089646753643067
4.1327280587980795
4.218890669108104
4.188118308283084
4.1327280587980795
4.145037003128072
4.2065817247780855
4.212736196943095
4.200427252613103
4.200427252613103
4.181963836118102
4.1758093639530935
4.188118308283084
4.1758093639530935
4.1758093639530935
4.188118308283084
4.188118308283084
4.181963836118102
4.181963836118102
4.200427252613103
4.2065817247780855
4.2065817247780855
4.2065817247780855
4.218890669108104
4.218890669108104
4.212736196943095
4.212736196943095
4.212736196943095
4.212736196943095
4.2065817247780855
4.2065817247780855
4.188118308283084
4.1758093639530935
4.157345947458091
4.151191475293081
4.1327280587980795
4.12657358663307
4.145037003128072
4.145037003128072
4.120419114468088
4.089646753643067
4.114264642303079
4.108110170138069
4.108110170138069
4.108110170138069
4.108110170138069
4.108110170138069
4.095801225808079
4.0711833371480655
4.095801225808079
4.101955697973087
4.083492281478085
4.077337809313075
4.095801225808079
4.138882530963089
4.163500419623101
4.138882530963089
4.120419114468088
4.145037003128072
4.089646753643067
4.052719920653064
4.120419114468088
4.163500419623101
4.138882530963089
4.120419114468088
4.108110170138069
4.089646753643067
4.101955697973087
4.083492281478085
4.083492281478085
4.065028864983084
4.058874392818074
4.021947559828071
3.8927036443630603
3.5234353144630024
3.1480125123979352
2.7848986546628876
2.335622186617841
1.9171180793977614
1.8063375804277528
1.7940286360977609
1.7940286360977609
1.8063375804277528
1.7817196917677414
1.7755652196027594
1.7940286360977609
1.818646524757745
1.8740367742427766
1.91096360723278
1.9048091350677696
1.9232725515627715
1.9786628010477763
2.0217441062027888
2.0340530505327803
2.052516467027782
2.077134355687793
2.1017522443478045
2.114061188677796
2.138679077337807
2.1632969659978185
2.1817603824928202
2.212532743317813
2.2371506319778245
2.2679229928028177
2.286386409297819
2.304849825792821
2.335622186617841
2.347931130947833
2.3663945474428347
2.409475852597848
2.4587116299178424
2.471020574247862
2.501792935072855
2.520256351567857
2.5325652958978484
2.5387197680628573
2.563337656722869
2.612573434042864
2.6433457948678853
2.655654739197877
2.674118155692878
2.6925815721878803
2.704890516517872
2.729508405177883
2.7418173495078744
2.766435238167886
2.7910531268278973
2.8095165433228986
2.821825487652891
2.8402889041478923
2.8649067928079033
2.877215737137895
2.871061264972913
2.895679153632896
2.9387604587879093
2.9572238752829105
2.9633783474479203
2.9387604587879093
2.9633783474479203
3.0618499020879373
3.0618499020879373
3.0618499020879373
3.055695429922928
3.037232013427927
3.0987767350779407
3.154166984562945
3.1480125123979352
3.215711706212959
3.394191398997992
3.9911751990030497
4.618931359833156
4.797411052618189
4.889728135093197
4.957427328908192
4.994354161898196
5.0312809948882
5.0497444113832
5.062053355713221
5.080516772208221
5.092825716538213
5.105134660868233
5.105134660868233
5.105134660868233
5.111289133033214
5.111289133033214
5.117443605198224
5.105134660868233
5.098980188703223
5.105134660868233
5.105134660868233
5.086671244373231
5.105134660868233
5.105134660868233
5.092825716538213
5.068207827878203
5.062053355713221
5.062053355713221
5.062053355713221
5.0497444113832
5.043589939218219
5.0312809948882
5.018972050558207
5.006663106228215
5.006663106228215
5.006663106228215
4.982045217568204
4.975890745403193
4.994354161898196
4.994354161898196
4.975890745403193
4.957427328908192
4.93896391241319
4.932809440248209
4.9266549680832
4.902037079423188
4.902037079423188
4.9266549680832
4.9266549680832
4.902037079423188
4.889728135093197
4.877419190763177
4.871264718598195
4.871264718598195
4.8651102464331855
4.858955774268176
4.8466468299381855
4.840492357773174
4.840492357773174
4.889728135093197
4.889728135093197
4.889728135093197
4.877419190763177
4.871264718598195
4.8651102464331855
4.858955774268176
4.858955774268176
4.8466468299381855
4.840492357773174
4.81587446911319
4.81587446911319
4.828183413443182
4.822028941278172
4.809719996948181
4.81587446911319
4.809719996948181
4.7912565804531795
4.7912565804531795
4.778947636123188
4.772793163958178
4.778947636123188
4.766638691793168
4.760484219628157
4.748175275298167
4.735866330968175
4.7420208031331565
4.735866330968175
4.717402914473172
4.717402914473172
4.711248442308165
4.698939497978172
4.668167137153151
4.631240304163148
4.637394776328158
4.68047608148317
4.662012664988168
4.649703720658149
4.655858192823159
4.6435492484931675
4.637394776328158
4.637394776328158
4.631240304163148
4.612776887668146
4.6004679433381535
4.612776887668146
4.606622415503137
4.5943134711731455
4.5820045268431535
4.588158999008135
4.5820045268431535
4.569695582513134
4.563541110348153
4.551232166018132
4.557386638183142
4.563541110348153
4.569695582513134
4.575850054678144
4.618931359833156
4.668167137153151
4.698939497978172
4.717402914473172
4.698939497978172
4.655858192823159
4.618931359833156
4.557386638183142
4.489687444368147
4.458915083543125
4.446606139213133
4.434297194883113
4.440451667048122
4.452760611378115
4.458915083543125
4.452760611378115
4.458915083543125
4.477378500038126
4.477378500038126
4.471224027873144
4.477378500038126
4.477378500038126
4.458915083543125
4.452760611378115
4.458915083543125
4.446606139213133
4.434297194883113
4.452760611378115
4.458915083543125
4.440451667048122
4.440451667048122
4.434297194883113
4.440451667048122
4.415833778388112
4.415833778388112
4.415833778388112
4.415833778388112
4.397370361893111
4.397370361893111
4.40967930622313
4.397370361893111
4.397370361893111
4.40967930622313
4.421988250553122
4.415833778388112
4.40352483405812
4.40352483405812
4.40352483405812
4.40967930622313
4.40967930622313
4.397370361893111
4.40352483405812
4.40352483405812
4.397370361893111
4.40352483405812
4.391215889728128
4.391215889728128
4.397370361893111
4.391215889728128
4.385061417563119
4.391215889728128
4.40352483405812
4.415833778388112
4.40967930622313
4.397370361893111
4.397370361893111
4.40967930622313
4.40352483405812
4.40352483405812
4.415833778388112
4.40967930622313
4.40967930622313
4.40352483405812
4.40352483405812
4.391215889728128
4.397370361893111
4.385061417563119
4.3727524732331275
4.366598001068117
4.348134584573115
4.335825640243124
4.329671168078114
4.3112077515831135
4.305053279418103
4.305053279418103
4.298898807253093
4.280435390758093
4.27428091859311
4.255817502098108
4.261971974263091
4.255817502098108
4.261971974263091
4.261971974263091
4.261971974263091
4.261971974263091
4.261971974263091
4.249663029933098
4.249663029933098
4.243508557768089
4.249663029933098
4.243508557768089
4.249663029933098
4.249663029933098
4.243508557768089
4.237354085603107
4.237354085603107
4.243508557768089
4.249663029933098
4.237354085603107
4.231199613438097
4.225045141273086
4.231199613438097
4.243508557768089
4.237354085603107
4.243508557768089
4.237354085603107
4.231199613438097
4.231199613438097
4.225045141273086
4.231199613438097
4.231199613438097
4.231199613438097
4.231199613438097
4.231199613438097
4.225045141273086
4.225045141273086
4.231199613438097
4.218890669108104
4.2065817247780855
4.218890669108104
4.218890669108104
4.225045141273086
4.218890669108104
4.218890669108104
4.218890669108104
4.2065817247780855
4.1942727804480935
4.200427252613103
4.212736196943095
4.212736196943095
4.212736196943095
4.2065817247780855
4.200427252613103
4.200427252613103
4.218890669108104
4.212736196943095
4.212736196943095
4.2065817247780855
4.181963836118102
4.212736196943095
4.2065817247780855
4.1942727804480935
4.200427252613103
4.200427252613103
4.2065817247780855
4.2065817247780855
4.200427252613103
4.1942727804480935
4.1942727804480935
4.188118308283084
4.1942727804480935
4.200427252613103
4.2065817247780855
4.2065817247780855
4.2065817247780855
4.200427252613103
4.188118308283084
4.188118308283084
4.200427252613103
4.1942727804480935
4.1942727804480935
4.200427252613103
4.200427252613103
4.1942727804480935
4.188118308283084
4.188118308283084
4.1758093639530935
4.1942727804480935
4.2065817247780855
4.200427252613103
4.1942727804480935
4.188118308283084
4.169654891788083
4.200427252613103
4.2065817247780855
4.1942727804480935
4.1942727804480935
4.1942727804480935
4.188118308283084
4.188118308283084
4.181963836118102
4.181963836118102
4.181963836118102
4.188118308283084
4.200427252613103
4.1942727804480935
4.200427252613103
4.1942727804480935
4.181963836118102
4.188118308283084
4.181963836118102
4.188118308283084
4.188118308283084
4.2065817247780855
4.2065817247780855
4.1942727804480935
4.200427252613103
4.200427252613103
4.200427252613103
4.1942727804480935
4.188118308283084
4.188118308283084
4.2065817247780855
4.1942727804480935
4.200427252613103
4.188118308283084
4.1942727804480935
4.1942727804480935
4.1942727804480935
4.188118308283084
4.181963836118102
4.188118308283084
4.188118308283084
4.188118308283084
4.181963836118102
4.188118308283084
4.1758093639530935
4.1758093639530935
4.181963836118102
4.1758093639530935
4.1758093639530935
4.181963836118102
4.181963836118102
4.1942727804480935
4.1942727804480935
4.188118308283084
4.188118308283084
4.181963836118102
4.1942727804480935
4.181963836118102
4.1758093639530935
4.1758093639530935
4.181963836118102
4.181963836118102
4.188118308283084
4.181963836118102
4.181963836118102
4.181963836118102
4.181963836118102
4.181963836118102
4.188118308283084
4.181963836118102
4.188118308283084
4.181963836118102
4.181963836118102
4.181963836118102
4.188118308283084
4.188118308283084
4.188118308283084
4.1758093639530935
4.169654891788083
4.181963836118102
4.1758093639530935
4.188118308283084
4.188118308283084
4.188118308283084
4.188118308283084
4.188118308283084
4.181963836118102
4.1758093639530935
4.181963836118102
4.188118308283084
4.188118308283084
4.200427252613103
4.200427252613103
4.1942727804480935
4.181963836118102
4.188118308283084
4.200427252613103
4.2065817247780855
4.1942727804480935
4.188118308283084
4.200427252613103
4.1942727804480935
4.188118308283084
4.181963836118102
4.1758093639530935
4.1758093639530935
4.1758093639530935
4.181963836118102
4.1758093639530935
4.169654891788083
4.163500419623101
4.157345947458091
4.169654891788083
4.181963836118102
4.181963836118102
4.1758093639530935
4.169654891788083
4.163500419623101
4.169654891788083
4.1758093639530935
4.169654891788083
4.1758093639530935
4.169654891788083
4.1758093639530935
4.169654891788083
4.163500419623101
4.1758093639530935
4.1758093639530935
4.1758093639530935
4.188118308283084
4.231199613438097
4.280435390758093
4.3112077515831135
4.354289056738125
4.360443528903107
4.341980112408105
4.305053279418103
4.249663029933098
4.181963836118102
4.1327280587980795
4.108110170138069
4.114264642303079
4.1327280587980795
4.138882530963089
4.151191475293081
4.157345947458091
4.163500419623101
4.181963836118102
4.1942727804480935
4.181963836118102
4.188118308283084
4.188118308283084
4.188118308283084
4.1942727804480935
4.188118308283084
4.1758093639530935
4.181963836118102
4.188118308283084
4.188118308283084
4.188118308283084
4.181963836118102
4.181963836118102
4.200427252613103
4.200427252613103
4.1942727804480935
4.200427252613103
4.200427252613103
4.2065817247780855
4.200427252613103
4.200427252613103
4.1942727804480935
4.1942727804480935
4.1942727804480935
4.2065817247780855
4.2065817247780855
4.200427252613103
4.2065817247780855
4.200427252613103
4.212736196943095
4.212736196943095
4.2065817247780855
4.212736196943095
4.212736196943095
4.212736196943095
4.212736196943095
4.212736196943095
4.218890669108104
4.225045141273086
4.231199613438097
4.225045141273086
4.218890669108104
4.212736196943095
4.231199613438097
4.249663029933098
4.249663029933098
4.255817502098108
4.243508557768089
4.255817502098108
4.261971974263091
4.255817502098108
4.255817502098108
4.261971974263091
4.27428091859311
4.261971974263091
4.261971974263091
4.261971974263091
4.255817502098108
4.243508557768089
4.237354085603107
4.225045141273086
4.2065817247780855
4.1942727804480935
4.200427252613103
4.1942727804480935
4.1758093639530935
4.169654891788083
4.157345947458091
4.157345947458091
4.151191475293081
4.151191475293081
4.169654891788083
4.1758093639530935
4.163500419623101
4.151191475293081
4.145037003128072
4.151191475293081
4.163500419623101
4.163500419623101
4.163500419623101
4.151191475293081
4.157345947458091
4.163500419623101
4.163500419623101
4.163500419623101
4.163500419623101
4.151191475293081
4.145037003128072
4.163500419623101
4.163500419623101
4.163500419623101
4.169654891788083
4.163500419623101
4.163500419623101
4.157345947458091
4.157345947458091
4.163500419623101
4.157345947458091
4.157345947458091
4.157345947458091
4.157345947458091
4.163500419623101
4.163500419623101
4.169654891788083
4.1758093639530935
4.169654891788083
4.169654891788083
4.163500419623101
4.157345947458091
4.163500419623101
4.1758093639530935
4.1758093639530935
4.169654891788083
4.169654891788083
4.169654891788083
4.163500419623101
4.163500419623101
4.1758093639530935
4.1758093639530935
4.163500419623101
4.163500419623101
4.169654891788083
4.169654891788083
4.169654891788083
4.1758093639530935
4.163500419623101
4.1758093639530935
4.1758093639530935
4.1758093639530935
4.1758093639530935
4.169654891788083
4.181963836118102
4.188118308283084
4.1758093639530935
4.169654891788083
4.163500419623101
4.163500419623101
4.169654891788083
4.181963836118102
4.181963836118102
4.181963836118102
4.181963836118102
4.1758093639530935
4.188118308283084
4.1758093639530935
4.169654891788083
4.181963836118102
4.181963836118102
4.181963836118102
4.181963836118102
4.1758093639530935
4.181963836118102
4.1758093639530935
4.181963836118102
4.181963836118102
4.188118308283084
4.188118308283084
4.181963836118102
4.157345947458091
4.188118308283084
4.2065817247780855
4.188118308283084
4.169654891788083
4.151191475293081
4.138882530963089
4.169654891788083
4.181963836118102
4.2065817247780855
4.1942727804480935
4.1758093639530935
4.163500419623101
4.151191475293081
4.163500419623101
4.181963836118102
4.163500419623101
4.169654891788083
4.169654891788083
4.163500419623101
4.138882530963089
4.120419114468088
4.12657358663307
4.169654891788083
4.1942727804480935
4.169654891788083
4.163500419623101
4.12657358663307
4.1327280587980795
4.169654891788083
4.181963836118102
4.1758093639530935
4.157345947458091
4.157345947458091
4.151191475293081
4.1327280587980795
4.138882530963089
4.138882530963089
4.138882530963089
4.151191475293081
4.145037003128072
4.12657358663307
4.120419114468088
4.138882530963089
4.145037003128072
4.138882530963089
4.138882530963089
4.1327280587980795
4.12657358663307
4.120419114468088
4.114264642303079
4.089646753643067
4.101955697973087
4.151191475293081
4.157345947458091
4.151191475293081
4.138882530963089
4.12657358663307
4.1327280587980795
4.120419114468088
4.12657358663307
4.101955697973087
4.065028864983084
4.12657358663307
4.145037003128072
4.145037003128072
4.145037003128072
4.101955697973087
3.9296304773530633
3.394191398997992
2.667963683527869
2.0340530505327803
1.849418885582765
1.7694107474377496
1.7078660257877356
1.7386383866127564
1.7940286360977609
1.8124920525927626
1.7878741639327511
1.7817196917677414
1.8371099412527454
1.89865466290276
1.91096360723278
1.9294270237277809
1.9478904402227823
1.990971745377768
2.009435161872797
2.0278985783677985
2.0586709391927913
2.1017522443478045
2.120215660842805
2.150988021667799
2.1817603824928202
2.212532743317813
2.2371506319778245
2.249459576307816
2.2740774649678275
2.3110042979578305
2.3540856031128428
2.391012436102846
2.409475852597848
2.4279392690928487
2.4402482134228407
2.4648661020828517
2.477175046412844
2.501792935072855
2.520256351567857
2.526410823732866
2.55102871239285
2.575646601052861
2.587955545382853
2.6064189618778553
2.631036850537866
2.6433457948678853
2.655654739197877
2.680272627857888
2.6925815721878803
2.723353933012873
2.778744182497905
2.797207598992907
2.815671015487909
2.8279799598179
2.8341344319829105
2.858752320642893
2.877215737137895
2.901833625797906
2.9141425701278982
2.9202970422929075
2.9387604587879093
2.96953281961293
2.994150708272913
2.994150708272913
3.0249230690979347
3.0864677907479487
3.117240151572942
3.191093817552948
3.277256427862973
3.3141832608529764
3.2957198443579747
3.277256427862973
3.2464840670379527
3.1849393453879373
3.1357035680679433
3.160321456727955
3.1849393453879373
3.197248289717957
3.221866178377941
3.277256427862973
3.4557361206479786
3.831158922713046
4.508150860863147
4.858955774268176
4.975890745403193
5.0312809948882
5.068207827878203
5.105134660868233
5.135907021693225
5.154370438188227
5.154370438188227
5.142061493858235
5.19745174334324
5.21591515983824
5.209760687673231
5.203606215508222
5.203606215508222
5.203606215508222
5.203606215508222
5.203606215508222
5.203606215508222
5.19129727117823
5.178988326848239
5.166679382518219
5.172833854683229
5.178988326848239
5.166679382518219
5.166679382518219
5.160524910353237
5.160524910353237
5.148215966023217
5.142061493858235
5.135907021693225
5.123598077363234
5.098980188703223
5.0743623000432105
5.086671244373231
5.111289133033214
5.105134660868233
5.086671244373231
5.092825716538213
5.086671244373231
5.062053355713221
5.062053355713221
5.062053355713221
5.05589888354821
5.043589939218219
5.037435467053208
5.0312809948882
5.037435467053208
5.0312809948882
5.018972050558207
5.012817578393197
5.012817578393197
5.018972050558207
5.000508634063205
4.994354161898196
5.006663106228215
4.982045217568204
4.969736273238212
4.969736273238212
4.932809440248209
4.889728135093197
4.92050049591819
4.9266549680832
4.889728135093197
4.877419190763177
4.8466468299381855
4.834337885608192
4.81587446911319
4.803565524783171
4.7912565804531795
4.778947636123188
4.766638691793168
4.754329747463175
4.7420208031331565
4.7297118588031655
4.723557386638154
4.723557386638154
4.705093970143154
4.668167137153151
4.649703720658149
4.692785025813162
4.711248442308165
4.68047608148317
4.662012664988168
4.662012664988168
4.67432160931816
4.67432160931816
4.655858192823159
4.649703720658149
4.631240304163148
4.625085831998166
4.625085831998166
4.625085831998166
4.625085831998166
4.612776887668146
4.6004679433381535
4.606622415503137
4.588158999008135
4.563541110348153
4.6004679433381535
4.5943134711731455
4.575850054678144
4.5820045268431535
4.5820045268431535
4.557386638183142
4.52661427735815
4.54507769385315
4.5820045268431535
4.563541110348153
4.551232166018132
4.557386638183142
4.5327687495231315
4.5327687495231315
4.5327687495231315
4.538923221688139
4.5327687495231315
4.520459805193139
4.514305333028129
4.501996388698137
4.477378500038126
4.501996388698137
4.489687444368147
4.489687444368147
4.489687444368147
4.465069555708134
4.440451667048122
4.477378500038126
4.520459805193139
4.501996388698137
4.477378500038126
4.458915083543125
4.458915083543125
4.452760611378115
4.458915083543125
4.465069555708134
4.458915083543125
4.446606139213133
4.434297194883113
4.428142722718132
4.440451667048122
4.446606139213133
4.428142722718132
4.428142722718132
4.397370361893111
4.385061417563119
4.434297194883113
4.452760611378115
4.440451667048122
4.421988250553122
4.415833778388112
4.40967930622313
4.397370361893111
4.391215889728128
4.391215889728128
4.385061417563119
4.40352483405812
4.40352483405812
4.40967930622313
4.40352483405812
4.391215889728128
4.37890694539811
4.366598001068117
4.329671168078114
4.366598001068117
4.397370361893111
4.37890694539811
4.3727524732331275
4.37890694539811
4.360443528903107
4.341980112408105
4.360443528903107
4.360443528903107
4.3727524732331275
4.360443528903107
4.360443528903107
4.329671168078114
4.305053279418103
4.341980112408105
4.348134584573115
4.335825640243124
4.341980112408105
4.341980112408105
4.341980112408105
4.329671168078114
4.348134584573115
4.341980112408105
4.323516695913104
4.323516695913104
4.335825640243124
4.329671168078114
4.329671168078114
4.329671168078114
4.3173622237481215
4.3112077515831135
4.305053279418103
4.3112077515831135
4.3112077515831135
4.305053279418103
4.3112077515831135
4.305053279418103
4.298898807253093
4.280435390758093
4.27428091859311
4.298898807253093
4.292744335088111
4.292744335088111
4.305053279418103
4.2865898629231
4.27428091859311
4.280435390758093
4.292744335088111
4.27428091859311
4.27428091859311
4.27428091859311
4.255817502098108
4.243508557768089
4.261971974263091
4.2865898629231
4.292744335088111
4.280435390758093
4.27428091859311
4.2681264464281
4.27428091859311
4.2681264464281
4.261971974263091
4.261971974263091
4.2681264464281
4.261971974263091
4.261971974263091
4.2681264464281
4.2681264464281
4.255817502098108
4.231199613438097
4.255817502098108
4.280435390758093
4.280435390758093
4.2681264464281
4.249663029933098
4.261971974263091
4.249663029933098
4.249663029933098
4.249663029933098
4.255817502098108
4.249663029933098
4.255817502098108
4.27428091859311
4.249663029933098
4.231199613438097
4.2681264464281
4.2681264464281
4.255817502098108
4.261971974263091
4.249663029933098
4.249663029933098
4.27428091859311
4.280435390758093
4.2681264464281
4.2681264464281
4.261971974263091
4.243508557768089
4.218890669108104
4.237354085603107
4.249663029933098
4.225045141273086
4.231199613438097
4.255817502098108
4.261971974263091
4.249663029933098
4.243508557768089
4.225045141273086
4.218890669108104
4.231199613438097
4.237354085603107
4.243508557768089
4.231199613438097
4.231199613438097
4.237354085603107
4.225045141273086
4.212736196943095
4.225045141273086
4.237354085603107
4.237354085603107
4.237354085603107
4.237354085603107
4.225045141273086
4.218890669108104
4.218890669108104
4.225045141273086
4.231199613438097
4.261971974263091
4.298898807253093
4.341980112408105
4.385061417563119
4.40967930622313
4.397370361893111
4.354289056738125
4.335825640243124
4.292744335088111
4.231199613438097
4.181963836118102
4.1758093639530935
4.157345947458091
4.157345947458091
4.157345947458091
4.181963836118102
4.2065817247780855
4.2065817247780855
4.231199613438097
4.212736196943095
4.218890669108104
4.231199613438097
4.231199613438097
4.225045141273086
4.231199613438097
4.225045141273086
4.218890669108104
4.231199613438097
4.231199613438097
4.237354085603107
4.237354085603107
4.225045141273086
4.231199613438097
4.231199613438097
4.231199613438097
4.237354085603107
4.237354085603107
4.231199613438097
4.243508557768089
4.249663029933098
4.231199613438097
4.218890669108104
4.237354085603107
4.231199613438097
4.237354085603107
4.225045141273086
4.237354085603107
4.249663029933098
4.237354085603107
4.237354085603107
4.243508557768089
4.243508557768089
4.237354085603107
4.243508557768089
4.237354085603107
4.237354085603107
4.243508557768089
4.243508557768089
4.249663029933098
4.249663029933098
4.249663029933098
4.249663029933098
4.249663029933098
4.249663029933098
4.261971974263091
4.280435390758093
4.2865898629231
4.2865898629231
4.280435390758093
4.261971974263091
4.261971974263091
4.3112077515831135
4.305053279418103
4.2865898629231
4.2865898629231
4.2865898629231
4.280435390758093
4.27428091859311
4.2681264464281
4.261971974263091
4.243508557768089
4.231199613438097
4.212736196943095
4.212736196943095
4.218890669108104
4.2065817247780855
4.200427252613103
4.181963836118102
4.169654891788083
4.188118308283084
4.181963836118102
4.151191475293081
4.157345947458091
4.181963836118102
4.181963836118102
4.1758093639530935
4.181963836118102
4.1758093639530935
4.1758093639530935
4.169654891788083
4.169654891788083
4.1758093639530935
4.163500419623101
4.163500419623101
4.181963836118102
4.181963836118102
4.1758093639530935
4.1758093639530935
4.169654891788083
4.163500419623101
4.1758093639530935
4.169654891788083
4.163500419623101
4.169654891788083
4.169654891788083
4.169654891788083
4.181963836118102
4.169654891788083
4.169654891788083
4.1758093639530935
4.169654891788083
4.181963836118102
4.181963836118102
4.1758093639530935
4.188118308283084
4.181963836118102
4.1758093639530935
4.1758093639530935
4.1758093639530935
4.181963836118102
4.181963836118102
4.163500419623101
4.1758093639530935
4.181963836118102
4.1758093639530935
4.169654891788083
4.157345947458091
4.1758093639530935
4.1942727804480935
4.1942727804480935
4.181963836118102
4.151191475293081
4.151191475293081
4.1942727804480935
4.200427252613103
4.188118308283084
4.188118308283084
4.188118308283084
4.181963836118102
4.188118308283084
4.1758093639530935
4.1758093639530935
4.181963836118102
4.169654891788083
4.1758093639530935
4.1758093639530935
4.1758093639530935
4.1758093639530935
4.169654891788083
4.1758093639530935
4.169654891788083
4.169654891788083
4.169654891788083
4.169654891788083
4.157345947458091
4.151191475293081
4.181963836118102
4.181963836118102
4.181963836118102
4.1758093639530935
4.169654891788083
4.169654891788083
4.157345947458091
4.1327280587980795
4.151191475293081
4.188118308283084
4.1758093639530935
4.1758093639530935
4.163500419623101
4.145037003128072
4.157345947458091
4.181963836118102
4.181963836118102
4.1758093639530935
4.1758093639530935
4.163500419623101
4.151191475293081
4.138882530963089
4.169654891788083
4.188118308283084
4.188118308283084
4.1758093639530935
4.169654891788083
4.169654891788083
4.181963836118102
4.169654891788083
4.138882530963089
4.163500419623101
4.1758093639530935
4.1758093639530935
4.151191475293081
4.151191475293081
4.138882530963089
4.163500419623101
4.181963836118102
4.181963836118102
4.138882530963089
4.12657358663307
4.1942727804480935
4.1942727804480935
4.181963836118102
4.169654891788083
4.1758093639530935
4.1758093639530935
4.169654891788083
4.1758093639530935
4.1758093639530935
4.1758093639530935
4.169654891788083
4.163500419623101
4.163500419623101
4.151191475293081
4.163500419623101
4.181963836118102
4.163500419623101
4.157345947458091
4.169654891788083
4.157345947458091
4.169654891788083
4.200427252613103
4.1942727804480935
4.1758093639530935
4.181963836118102
4.169654891788083
4.169654891788083
4.169654891788083
4.169654891788083
4.163500419623101
4.163500419623101
4.151191475293081
4.151191475293081
4.1758093639530935
4.181963836118102
4.169654891788083
4.151191475293081
4.163500419623101
4.188118308283084
4.188118308283084
4.169654891788083
4.181963836118102
4.169654891788083
4.157345947458091
4.145037003128072
4.157345947458091
4.181963836118102
4.188118308283084
4.163500419623101
4.169654891788083
4.1942727804480935
4.188118308283084
4.188118308283084
4.163500419623101
4.163500419623101
4.181963836118102
4.188118308283084
4.181963836118102
4.188118308283084
4.181963836118102
4.1758093639530935
4.200427252613103
4.2065817247780855
4.181963836118102
4.1942727804480935
4.1942727804480935
4.188118308283084
4.181963836118102
4.1758093639530935
4.157345947458091
4.1327280587980795
4.1327280587980795
4.181963836118102
4.163500419623101
4.151191475293081
4.169654891788083
4.181963836118102
4.145037003128072
4.077337809313075
4.12657358663307
4.212736196943095
4.218890669108104
4.188118308283084
4.181963836118102
4.1758093639530935
4.169654891788083
4.163500419623101
4.157345947458091
4.163500419623101
4.169654891788083
4.157345947458091
4.163500419623101
4.163500419623101
4.169654891788083
4.1942727804480935
4.231199613438097
4.261971974263091
4.27428091859311
4.341980112408105
4.341980112408105
4.305053279418103
4.2681264464281
4.218890669108104
4.169654891788083
4.114264642303079
4.058874392818074
4.077337809313075
4.138882530963089
4.1327280587980795
4.1327280587980795
4.120419114468088
4.151191475293081
4.169654891788083
4.1758093639530935
4.169654891788083
4.163500419623101
4.163500419623101
4.163500419623101
4.138882530963089
4.145037003128072
4.157345947458091
4.138882530963089
4.145037003128072
4.163500419623101
4.169654891788083
4.163500419623101
4.181963836118102
4.188118308283084
4.181963836118102
4.1758093639530935
4.163500419623101
4.163500419623101
4.169654891788083
4.169654891788083
4.1758093639530935
4.1758093639530935
4.169654891788083
4.163500419623101
4.163500419623101
4.169654891788083
4.1758093639530935
4.181963836118102
4.1758093639530935
4.151191475293081
4.163500419623101
4.1942727804480935
4.200427252613103
4.181963836118102
4.163500419623101
4.188118308283084
4.212736196943095
4.2065817247780855
4.2065817247780855
4.200427252613103
4.212736196943095
4.212736196943095
4.218890669108104
4.2065817247780855
4.200427252613103
4.231199613438097
4.237354085603107
4.218890669108104
4.225045141273086
4.255817502098108
4.27428091859311
4.261971974263091
4.249663029933098
4.249663029933098
4.249663029933098
4.261971974263091
4.2681264464281
4.249663029933098
4.231199613438097
4.218890669108104
4.218890669108104
4.218890669108104
4.2065817247780855
4.181963836118102
4.163500419623101
4.163500419623101
4.169654891788083
4.163500419623101
4.157345947458091
4.145037003128072
4.138882530963089
4.163500419623101
4.157345947458091
4.138882530963089
4.138882530963089
4.151191475293081
4.151191475293081
4.145037003128072
4.157345947458091
4.151191475293081
4.145037003128072
4.1327280587980795
4.1327280587980795
4.145037003128072
4.1327280587980795
4.12657358663307
4.169654891788083
4.1758093639530935
4.151191475293081
4.145037003128072
4.157345947458091
4.151191475293081
4.145037003128072
4.157345947458091
4.151191475293081
4.151191475293081
4.145037003128072
4.138882530963089
4.151191475293081
4.151191475293081
4.1327280587980795
4.12657358663307
4.169654891788083
4.169654891788083
4.151191475293081
4.145037003128072
4.157345947458091
4.151191475293081
4.138882530963089
4.169654891788083
4.169654891788083
4.157345947458091
4.169654891788083
4.169654891788083
4.163500419623101
4.151191475293081
4.157345947458091
4.151191475293081
4.145037003128072
4.169654891788083
4.169654891788083
4.151191475293081
4.145037003128072
4.151191475293081
4.163500419623101
4.169654891788083
4.163500419623101
4.163500419623101
4.157345947458091
4.163500419623101
4.157345947458091
4.163500419623101
4.157345947458091
4.157345947458091
4.157345947458091
4.157345947458091
4.157345947458091
4.157345947458091
4.157345947458091
4.151191475293081
4.138882530963089
4.138882530963089
4.1758093639530935
4.181963836118102
4.157345947458091
4.157345947458091
4.169654891788083
4.163500419623101
4.145037003128072
4.145037003128072
4.163500419623101
4.163500419623101
4.157345947458091
4.157345947458091
4.151191475293081
4.157345947458091
4.151191475293081
4.151191475293081
4.157345947458091
4.157345947458091
4.151191475293081
4.138882530963089
4.1327280587980795
4.151191475293081
4.163500419623101
4.157345947458091
4.145037003128072
4.145037003128072
4.157345947458091
4.157345947458091
4.169654891788083
4.169654891788083
4.169654891788083
4.163500419623101
4.151191475293081
4.157345947458091
4.163500419623101
4.157345947458091
4.163500419623101
4.157345947458091
4.145037003128072
4.138882530963089
4.169654891788083
4.163500419623101
4.151191475293081
4.169654891788083
4.163500419623101
4.157345947458091
4.163500419623101
4.169654891788083
4.163500419623101
4.151191475293081
4.138882530963089
4.1327280587980795
4.145037003128072
4.151191475293081
4.151191475293081
4.157345947458091
4.151191475293081
4.1327280587980795
4.145037003128072
4.151191475293081
4.1758093639530935
4.163500419623101
4.163500419623101
4.157345947458091
4.157345947458091
4.163500419623101
4.157345947458091
4.169654891788083
4.169654891788083
4.163500419623101
4.157345947458091
4.163500419623101
4.163500419623101
4.157345947458091
4.157345947458091
4.169654891788083
4.1758093639530935
4.157345947458091
4.151191475293081
4.169654891788083
4.181963836118102
4.181963836118102
4.1758093639530935
4.1758093639530935
4.169654891788083
4.157345947458091
4.169654891788083
4.1758093639530935
4.181963836118102
4.181963836118102
4.1758093639530935
4.1758093639530935
4.1758093639530935
4.181963836118102
4.151191475293081
4.145037003128072
4.1942727804480935
4.212736196943095
4.188118308283084
4.212736196943095
4.212736196943095
4.2065817247780855
4.212736196943095
4.218890669108104
4.200427252613103
4.200427252613103
4.225045141273086
4.231199613438097
4.231199613438097
4.212736196943095
4.237354085603107
4.298898807253093
4.3173622237481215
4.3173622237481215
4.3112077515831135
4.3112077515831135
4.305053279418103
4.3173622237481215
4.341980112408105
4.348134584573115
4.360443528903107
4.385061417563119
4.385061417563119
4.397370361893111
4.415833778388112
4.415833778388112
4.40967930622313
4.3727524732331275
4.360443528903107
4.391215889728128
4.366598001068117
4.329671168078114
4.323516695913104
4.3173622237481215
4.292744335088111
4.27428091859311
4.261971974263091
4.249663029933098
4.237354085603107
4.225045141273086
4.212736196943095
4.212736196943095
4.200427252613103
4.188118308283084
4.181963836118102
4.181963836118102
4.181963836118102
4.181963836118102
4.231199613438097
4.27428091859311
4.305053279418103
4.3173622237481215
4.335825640243124
4.298898807253093
4.249663029933098
4.200427252613103
4.145037003128072
4.083492281478085
4.0711833371480655
4.058874392818074
4.040410976323072
4.065028864983084
4.095801225808079
4.108110170138069
4.108110170138069
4.108110170138069
4.101955697973087
4.089646753643067
4.101955697973087
4.12657358663307
4.114264642303079
4.108110170138069
4.101955697973087
4.095801225808079
4.101955697973087
4.108110170138069
4.120419114468088
4.089646753643067
4.0465654484880815
4.108110170138069
4.163500419623101
4.145037003128072
4.1327280587980795
4.1327280587980795
4.120419114468088
4.1327280587980795
4.12657358663307
4.1327280587980795
4.1327280587980795
4.12657358663307
4.12657358663307
4.120419114468088
4.1327280587980795
4.12657358663307
4.1327280587980795
4.12657358663307
4.138882530963089
4.1327280587980795
4.12657358663307
4.114264642303079
4.114264642303079
4.1327280587980795
4.151191475293081
4.151191475293081
4.145037003128072
4.151191475293081
4.163500419623101
4.157345947458091
4.157345947458091
4.138882530963089
4.12657358663307
4.169654891788083
4.2065817247780855
4.1942727804480935
4.188118308283084
4.181963836118102
4.169654891788083
4.181963836118102
4.200427252613103
4.200427252613103
4.200427252613103
4.188118308283084
4.163500419623101
4.181963836118102
4.1942727804480935
4.163500419623101
4.163500419623101
4.157345947458091
4.138882530963089
4.12657358663307
4.12657358663307
4.108110170138069
4.089646753643067
4.065028864983084
4.089646753643067
4.095801225808079
4.089646753643067
4.077337809313075
4.077337809313075
4.0711833371480655
4.065028864983084
4.077337809313075
4.065028864983084
4.052719920653064
4.052719920653064
4.065028864983084
4.052719920653064
4.0465654484880815
4.065028864983084
4.0711833371480655
4.052719920653064
4.052719920653064
4.052719920653064
4.028102031993082
4.0711833371480655
4.083492281478085
4.065028864983084
4.034256504158063
4.0465654484880815
4.089646753643067
4.0711833371480655
4.065028864983084
4.0465654484880815
4.0465654484880815
4.040410976323072
4.040410976323072
4.040410976323072
4.040410976323072
4.040410976323072
4.034256504158063
4.028102031993082
4.015793087663061
4.034256504158063
4.034256504158063
4.021947559828071
4.021947559828071
4.009638615498079
4.028102031993082
4.052719920653064
4.040410976323072
4.040410976323072
4.034256504158063
4.034256504158063
4.0465654484880815
4.052719920653064
4.052719920653064
4.052719920653064
4.0465654484880815
4.040410976323072
4.009638615498079
4.021947559828071
4.065028864983084
4.0711833371480655
4.058874392818074
4.065028864983084
4.058874392818074
4.0465654484880815
4.058874392818074
4.065028864983084
4.052719920653064
4.052719920653064
4.052719920653064
4.052719920653064
4.052719920653064
4.058874392818074
4.077337809313075
4.077337809313075
4.065028864983084
4.052719920653064
4.0711833371480655
4.0711833371480655
4.083492281478085
4.101955697973087
4.083492281478085
4.083492281478085
4.083492281478085
4.077337809313075
4.077337809313075
4.077337809313075
4.095801225808079
4.089646753643067
4.065028864983084
4.083492281478085
4.108110170138069
4.089646753643067
4.095801225808079
4.101955697973087
4.101955697973087
4.095801225808079
4.101955697973087
4.108110170138069
4.101955697973087
4.089646753643067
4.089646753643067
4.120419114468088
4.114264642303079
4.108110170138069
4.108110170138069
4.114264642303079
4.108110170138069
4.095801225808079
4.089646753643067
4.101955697973087
4.12657358663307
4.120419114468088
4.12657358663307
4.108110170138069
4.095801225808079
4.101955697973087
4.108110170138069
4.114264642303079
4.114264642303079
4.12657358663307
4.120419114468088
4.108110170138069
4.101955697973087
4.120419114468088
4.1327280587980795
4.1327280587980795
4.114264642303079
4.114264642303079
4.120419114468088
4.101955697973087
4.12657358663307
4.145037003128072
4.1327280587980795
4.114264642303079
4.120419114468088
4.145037003128072
4.1327280587980795
4.12657358663307
4.145037003128072
4.151191475293081
4.145037003128072
4.151191475293081
4.138882530963089
4.138882530963089
4.145037003128072
4.145037003128072
4.151191475293081
4.138882530963089
4.138882530963089
4.138882530963089
4.151191475293081
4.151191475293081
4.138882530963089
4.12657358663307
4.151191475293081
4.163500419623101
4.151191475293081
4.145037003128072
4.145037003128072
4.157345947458091
4.169654891788083
4.1758093639530935
4.169654891788083
4.151191475293081
4.157345947458091
4.163500419623101
4.145037003128072
4.163500419623101
4.163500419623101
4.169654891788083
4.163500419623101
4.157345947458091
4.157345947458091
4.1758093639530935
4.1758093639530935
4.151191475293081
4.1758093639530935
4.200427252613103
4.188118308283084
4.200427252613103
4.200427252613103
4.200427252613103
4.188118308283084
4.1758093639530935
4.188118308283084
4.200427252613103
4.1942727804480935
4.188118308283084
4.1758093639530935
4.181963836118102
4.1758093639530935
4.163500419623101
4.163500419623101
4.151191475293081
4.138882530963089
4.163500419623101
4.1758093639530935
4.157345947458091
4.163500419623101
4.1758093639530935
4.1758093639530935
4.1758093639530935
4.163500419623101
4.169654891788083
4.163500419623101
4.163500419623101
4.163500419623101
4.163500419623101
4.169654891788083
4.169654891788083
4.169654891788083
4.163500419623101
4.151191475293081
4.120419114468088
4.12657358663307
4.163500419623101
4.212736196943095
4.237354085603107
4.280435390758093
4.305053279418103
4.329671168078114
4.335825640243124
4.335825640243124
4.292744335088111
4.231199613438097
4.169654891788083
4.120419114468088
4.101955697973087
4.108110170138069
4.108110170138069
4.108110170138069
4.114264642303079
4.157345947458091
4.157345947458091
4.163500419623101
4.1758093639530935
4.181963836118102
4.163500419623101
4.145037003128072
4.151191475293081
4.1758093639530935
4.181963836118102
4.200427252613103
4.212736196943095
4.212736196943095
4.225045141273086
4.255817502098108
4.280435390758093
4.2865898629231
4.292744335088111
4.292744335088111
4.292744335088111
4.280435390758093
4.280435390758093
4.27428091859311
4.280435390758093
4.2681264464281
4.2681264464281
4.255817502098108
4.249663029933098
4.255817502098108
4.261971974263091
4.261971974263091
4.261971974263091
4.249663029933098
4.243508557768089
4.243508557768089
4.249663029933098
4.243508557768089
4.225045141273086
4.2065817247780855
4.200427252613103
4.212736196943095
4.218890669108104
4.212736196943095
4.212736196943095
4.212736196943095
4.2065817247780855
4.200427252613103
4.212736196943095
4.231199613438097
4.225045141273086
4.231199613438097
4.225045141273086
4.231199613438097
4.231199613438097
4.249663029933098
4.255817502098108
4.261971974263091
4.261971974263091
4.261971974263091
4.255817502098108
4.249663029933098
4.243508557768089
4.231199613438097
4.231199613438097
4.225045141273086
4.2065817247780855
4.188118308283084
4.1758093639530935
4.169654891788083
4.157345947458091
4.145037003128072
4.12657358663307
4.120419114468088
4.114264642303079
4.12657358663307
4.138882530963089
4.114264642303079
4.114264642303079
4.12657358663307
4.114264642303079
4.108110170138069
4.108110170138069
4.108110170138069
4.108110170138069
4.101955697973087
4.101955697973087
4.101955697973087
4.108110170138069
4.114264642303079
4.101955697973087
4.108110170138069
4.083492281478085
4.065028864983084
4.108110170138069
4.1327280587980795
4.108110170138069
4.095801225808079
4.108110170138069
4.114264642303079
4.108110170138069
4.108110170138069
4.108110170138069
4.083492281478085
4.065028864983084
4.114264642303079
4.1327280587980795
4.12657358663307
4.108110170138069
4.108110170138069
4.101955697973087
4.108110170138069
4.108110170138069
4.108110170138069
4.101955697973087
4.101955697973087
4.114264642303079
4.108110170138069
4.114264642303079
4.114264642303079
4.108110170138069
4.108110170138069
4.095801225808079
4.114264642303079
4.114264642303079
4.095801225808079
4.101955697973087
4.114264642303079
4.101955697973087
4.101955697973087
4.108110170138069
4.120419114468088
4.120419114468088
4.120419114468088
4.12657358663307
4.120419114468088
4.12657358663307
4.120419114468088
4.114264642303079
4.120419114468088
4.114264642303079
4.114264642303079
4.120419114468088
4.120419114468088
4.108110170138069
4.114264642303079
4.108110170138069
4.120419114468088
4.120419114468088
4.108110170138069
4.108110170138069
4.114264642303079
4.138882530963089
4.1327280587980795
4.12657358663307
4.120419114468088
4.12657358663307
4.12657358663307
4.120419114468088
4.12657358663307
4.12657358663307
4.120419114468088
4.101955697973087
4.120419114468088
4.138882530963089
4.138882530963089
4.12657358663307
4.1327280587980795
4.1327280587980795
4.12657358663307
4.1327280587980795
4.120419114468088
4.12657358663307
4.12657358663307
4.12657358663307
4.12657358663307
4.114264642303079
4.101955697973087
4.108110170138069
4.114264642303079
4.145037003128072
4.145037003128072
4.12657358663307
4.120419114468088
4.114264642303079
4.101955697973087
4.12657358663307
4.138882530963089
4.1327280587980795
4.12657358663307
4.120419114468088
4.120419114468088
4.1327280587980795
4.12657358663307
4.1327280587980795
4.1327280587980795
4.12657358663307
4.108110170138069
4.095801225808079
4.101955697973087
4.108110170138069
4.114264642303079
4.114264642303079
4.095801225808079
4.089646753643067
4.114264642303079
4.101955697973087
4.095801225808079
4.095801225808079
4.120419114468088
4.12657358663307
4.095801225808079
4.089646753643067
4.089646753643067
4.101955697973087
4.120419114468088
4.114264642303079
4.108110170138069
4.101955697973087
4.101955697973087
4.101955697973087
4.101955697973087
4.101955697973087
4.083492281478085
4.083492281478085
4.108110170138069
4.120419114468088
4.095801225808079
4.101955697973087
4.120419114468088
4.1327280587980795
4.120419114468088
4.101955697973087
4.114264642303079
4.114264642303079
4.108110170138069
4.114264642303079
4.12657358663307
4.12657358663307
4.108110170138069
4.108110170138069
4.114264642303079
4.12657358663307
4.120419114468088
4.095801225808079
4.108110170138069
4.12657358663307
4.1327280587980795
4.12657358663307
4.12657358663307
4.108110170138069
4.095801225808079
4.101955697973087
4.114264642303079
4.145037003128072
4.145037003128072
4.138882530963089
4.138882530963089
4.138882530963089
4.138882530963089
4.1327280587980795
4.12657358663307
4.145037003128072
4.163500419623101
4.151191475293081
4.145037003128072
4.145037003128072
4.138882530963089
4.12657358663307
4.12657358663307
4.120419114468088
4.108110170138069
4.114264642303079
4.114264642303079
4.120419114468088
4.120419114468088
4.108110170138069
4.108110170138069
4.120419114468088
4.138882530963089
4.12657358663307
4.12657358663307
4.108110170138069
4.101955697973087
4.12657358663307
4.12657358663307
4.120419114468088
4.120419114468088
4.114264642303079
4.114264642303079
4.114264642303079
4.12657358663307
4.120419114468088
4.101955697973087
4.095801225808079
4.12657358663307
4.157345947458091
4.1942727804480935
4.237354085603107
4.27428091859311
4.305053279418103
4.323516695913104
4.3112077515831135
4.2681264464281
4.218890669108104
4.151191475293081
4.089646753643067
4.0711833371480655
4.077337809313075
4.0711833371480655
4.083492281478085
4.089646753643067
4.101955697973087
4.114264642303079
4.1327280587980795
4.12657358663307
4.1327280587980795
4.138882530963089
4.1327280587980795
4.138882530963089
4.157345947458091
4.145037003128072
4.138882530963089
4.1327280587980795
4.145037003128072
4.151191475293081
4.145037003128072
4.151191475293081
4.151191475293081
4.1327280587980795
4.1327280587980795
4.151191475293081
4.163500419623101
4.157345947458091
4.151191475293081
4.151191475293081
4.151191475293081
4.163500419623101
4.163500419623101
4.169654891788083
4.169654891788083
4.163500419623101
4.163500419623101
4.1758093639530935
4.169654891788083
4.163500419623101
4.169654891788083
4.169654891788083
4.169654891788083
4.181963836118102
4.169654891788083
4.181963836118102
4.181963836118102
4.212736196943095
4.212736196943095
4.2065817247780855
4.2065817247780855
4.2065817247780855
4.212736196943095
4.218890669108104
4.225045141273086
4.225045141273086
4.225045141273086
4.237354085603107
4.225045141273086
4.231199613438097
4.231199613438097
4.237354085603107
4.231199613438097
4.218890669108104
4.237354085603107
4.237354085603107
4.243508557768089
4.243508557768089
4.231199613438097
4.225045141273086
4.2065817247780855
4.2065817247780855
4.188118308283084
4.181963836118102
4.169654891788083
4.157345947458091
4.138882530963089
4.120419114468088
4.12657358663307
4.12657358663307
4.1327280587980795
4.12657358663307
4.120419114468088
4.114264642303079
4.12657358663307
4.114264642303079
4.114264642303079
4.114264642303079
4.108110170138069
4.12657358663307
4.120419114468088
4.120419114468088
4.120419114468088
4.114264642303079
4.114264642303079
4.114264642303079
4.101955697973087
4.114264642303079
4.12657358663307
4.12657358663307
4.12657358663307
4.12657358663307
4.1327280587980795
4.1327280587980795
4.114264642303079
4.114264642303079
4.120419114468088
4.12657358663307
4.12657358663307
4.12657358663307
4.120419114468088
4.114264642303079
4.108110170138069
4.108110170138069
4.1327280587980795
4.1327280587980795
4.12657358663307
4.114264642303079
4.114264642303079
4.1327280587980795
4.120419114468088
4.120419114468088
4.114264642303079
4.120419114468088
4.12657358663307
4.120419114468088
4.138882530963089
4.1327280587980795
4.138882530963089
4.12657358663307
4.12657358663307
4.114264642303079
4.12657358663307
4.1327280587980795
4.138882530963089
4.1327280587980795
4.1327280587980795
4.138882530963089
4.1327280587980795
4.1327280587980795
4.138882530963089
4.1327280587980795
4.1327280587980795
4.138882530963089
4.138882530963089
4.1327280587980795
4.138882530963089
4.138882530963089
4.1327280587980795
4.12657358663307
4.12657358663307
4.145037003128072
4.138882530963089
4.1327280587980795
4.1327280587980795
4.145037003128072
4.151191475293081
4.138882530963089
4.151191475293081
4.145037003128072
4.1327280587980795
4.12657358663307
4.145037003128072
4.151191475293081
4.145037003128072
4.145037003128072
4.145037003128072
4.1327280587980795
4.145037003128072
4.145037003128072
4.138882530963089
4.138882530963089
4.145037003128072
4.138882530963089
4.138882530963089
4.145037003128072
4.151191475293081
4.157345947458091
4.145037003128072
4.138882530963089
4.138882530963089
4.145037003128072
4.138882530963089
4.163500419623101
4.163500419623101
4.145037003128072
4.120419114468088
4.12657358663307
4.151191475293081
4.151191475293081
4.151191475293081
4.151191475293081
4.145037003128072
4.145037003128072
4.151191475293081
4.138882530963089
4.1327280587980795
4.157345947458091
4.151191475293081
4.151191475293081
4.1327280587980795
4.12657358663307
4.138882530963089
4.151191475293081
4.151191475293081
4.151191475293081
4.151191475293081
4.145037003128072
4.151191475293081
4.151191475293081
4.12657358663307
4.12657358663307
4.151191475293081
4.151191475293081
4.151191475293081
4.145037003128072
4.145037003128072
4.145037003128072
4.1327280587980795
4.12657358663307
4.145037003128072
4.138882530963089
4.1327280587980795
4.138882530963089
4.157345947458091
4.151191475293081
4.12657358663307
4.138882530963089
4.169654891788083
4.157345947458091
4.151191475293081
4.138882530963089
4.1327280587980795
4.145037003128072
4.157345947458091
4.151191475293081
4.151191475293081
4.138882530963089
4.145037003128072
4.145037003128072
4.145037003128072
4.145037003128072
4.151191475293081
4.138882530963089
4.138882530963089
4.12657358663307
4.145037003128072
4.157345947458091
4.145037003128072
4.145037003128072
4.145037003128072
4.138882530963089
4.12657358663307
4.138882530963089
4.138882530963089
4.145037003128072
4.163500419623101
4.157345947458091
4.157345947458091
4.151191475293081
4.138882530963089
4.1327280587980795
4.151191475293081
4.1758093639530935
4.169654891788083
4.145037003128072
4.1327280587980795
4.169654891788083
4.163500419623101
4.151191475293081
4.145037003128072
4.1327280587980795
4.114264642303079
4.1327280587980795
4.12657358663307
4.12657358663307
4.138882530963089
4.1327280587980795
4.120419114468088
4.1327280587980795
4.120419114468088
4.095801225808079
4.0711833371480655
4.120419114468088
4.163500419623101
4.138882530963089
4.114264642303079
4.138882530963089
4.151191475293081
4.1327280587980795
4.12657358663307
4.1327280587980795
4.12657358663307
4.12657358663307
4.120419114468088
4.101955697973087
4.108110170138069
4.138882530963089
4.1758093639530935
4.212736196943095
4.261971974263091
4.2865898629231
4.255817502098108
4.2865898629231
4.305053279418103
4.261971974263091
4.1758093639530935
4.120419114468088
4.114264642303079
4.095801225808079
4.065028864983084
4.083492281478085
4.095801225808079
4.095801225808079
4.114264642303079
4.1327280587980795
4.145037003128072
4.151191475293081
4.138882530963089
4.145037003128072
4.1327280587980795
4.12657358663307
4.145037003128072
4.151191475293081
4.145037003128072
4.138882530963089
4.138882530963089
4.163500419623101
4.1327280587980795
4.120419114468088
4.157345947458091
4.169654891788083
4.145037003128072
4.151191475293081
4.151191475293081
4.138882530963089
4.151191475293081
4.1758093639530935
4.151191475293081
4.1327280587980795
4.151191475293081
4.169654891788083
4.151191475293081
4.12657358663307
4.163500419623101
4.1758093639530935
4.151191475293081
4.169654891788083
4.188118308283084
4.181963836118102
4.1758093639530935
4.163500419623101
4.157345947458091
4.163500419623101
4.188118308283084
4.188118308283084
4.181963836118102
4.1758093639530935
4.163500419623101
4.181963836118102
4.188118308283084
4.1758093639530935
4.181963836118102
4.1942727804480935
4.2065817247780855
4.188118308283084
4.200427252613103
4.218890669108104
4.212736196943095
4.212736196943095
4.225045141273086
4.218890669108104
4.212736196943095
4.2065817247780855
4.1942727804480935
4.1942727804480935
4.1758093639530935
4.1758093639530935
4.1758093639530935
4.151191475293081
4.138882530963089
4.12657358663307
4.12657358663307
4.120419114468088
4.095801225808079
4.095801225808079
4.108110170138069
4.101955697973087
4.101955697973087
4.077337809313075
4.0711833371480655
4.089646753643067
4.108110170138069
4.108110170138069
4.089646753643067
4.065028864983084
4.065028864983084
4.095801225808079
4.108110170138069
4.095801225808079
4.101955697973087
4.089646753643067
4.083492281478085
4.077337809313075
4.108110170138069
4.120419114468088
4.101955697973087
4.095801225808079
4.101955697973087
4.101955697973087
4.101955697973087
4.101955697973087
4.114264642303079
4.108110170138069
4.108110170138069
4.108110170138069
4.101955697973087
4.089646753643067
4.089646753643067
4.083492281478085
4.120419114468088
4.145037003128072
4.1327280587980795
4.120419114468088
4.12657358663307
4.120419114468088
4.108110170138069
4.120419114468088
4.1327280587980795
4.12657358663307
4.120419114468088
4.101955697973087
4.108110170138069
4.1327280587980795
4.145037003128072
4.1327280587980795
4.12657358663307
4.1327280587980795
4.138882530963089
4.145037003128072
4.138882530963089
4.138882530963089
4.12657358663307
4.12657358663307
4.120419114468088
4.108110170138069
4.1327280587980795
4.163500419623101
4.138882530963089
4.1327280587980795
4.1327280587980795
4.138882530963089
4.145037003128072
4.145037003128072
4.145037003128072
4.145037003128072
4.138882530963089
4.138882530963089
4.145037003128072
4.1327280587980795
4.1327280587980795
4.145037003128072
4.145037003128072
4.151191475293081
4.145037003128072
4.145037003128072
4.138882530963089
4.12657358663307
4.1327280587980795
4.145037003128072
4.1327280587980795
4.138882530963089
4.1327280587980795
4.12657358663307
4.145037003128072
4.120419114468088
4.114264642303079
4.145037003128072
4.151191475293081
4.151191475293081
4.145037003128072
4.138882530963089
4.1327280587980795
4.1327280587980795
4.12657358663307
4.1327280587980795
4.138882530963089
4.138882530963089
4.12657358663307
4.114264642303079
4.12657358663307
4.169654891788083
4.157345947458091
4.138882530963089
4.145037003128072
4.138882530963089
4.1327280587980795
4.145037003128072
4.1327280587980795
4.1327280587980795
4.120419114468088
4.1327280587980795
4.145037003128072
4.1327280587980795
4.151191475293081
4.151191475293081
4.145037003128072
4.145037003128072
4.1327280587980795
4.138882530963089
4.1327280587980795
4.12657358663307
4.1327280587980795
4.1327280587980795
4.12657358663307
4.1327280587980795
4.12657358663307
4.12657358663307
4.138882530963089
4.1327280587980795
4.1327280587980795
4.1327280587980795
4.1327280587980795
4.114264642303079
4.120419114468088
4.138882530963089
4.108110170138069
4.120419114468088
4.145037003128072
4.1327280587980795
4.12657358663307
4.108110170138069
4.089646753643067
4.108110170138069
4.138882530963089
4.1327280587980795
4.108110170138069
4.108110170138069
4.138882530963089
4.12657358663307
4.12657358663307
4.114264642303079
4.114264642303079
4.114264642303079
4.120419114468088
4.1327280587980795
4.1327280587980795
4.12657358663307
4.108110170138069
4.12657358663307
4.12657358663307
4.12657358663307
4.138882530963089
4.138882530963089
4.12657358663307
4.108110170138069
4.114264642303079
4.108110170138069
4.101955697973087
4.108110170138069
4.138882530963089
4.145037003128072
4.145037003128072
4.1327280587980795
4.120419114468088
4.12657358663307
4.138882530963089
4.138882530963089
4.138882530963089
4.1327280587980795
4.157345947458091
4.157345947458091
4.145037003128072
4.145037003128072
4.145037003128072
4.145037003128072
4.1327280587980795
4.138882530963089
4.1327280587980795
4.12657358663307
4.1327280587980795
4.1327280587980795
4.138882530963089
4.1327280587980795
4.120419114468088
4.120419114468088
4.0711833371480655
4.083492281478085
4.157345947458091
4.151191475293081
4.1327280587980795
4.1327280587980795
4.12657358663307
4.12657358663307
4.120419114468088
4.114264642303079
4.114264642303079
4.114264642303079
4.120419114468088
4.114264642303079
4.101955697973087
4.108110170138069
4.12657358663307
4.120419114468088
4.108110170138069
4.095801225808079
4.151191475293081
4.218890669108104
4.255817502098108
4.292744335088111
4.305053279418103
4.3112077515831135
4.2865898629231
4.237354085603107
4.169654891788083
4.101955697973087
4.0711833371480655
4.065028864983084
4.058874392818074
4.0711833371480655
4.083492281478085
4.095801225808079
4.095801225808079
4.108110170138069
4.120419114468088
4.151191475293081
4.145037003128072
4.1327280587980795
4.12657358663307
4.12657358663307
4.138882530963089
4.157345947458091
4.157345947458091
4.145037003128072
4.145037003128072
4.1327280587980795
4.138882530963089
4.151191475293081
4.151191475293081
4.151191475293081
4.151191475293081
4.145037003128072
4.145037003128072
4.138882530963089
4.157345947458091
4.169654891788083
4.163500419623101
4.157345947458091
4.151191475293081
4.151191475293081
4.157345947458091
4.163500419623101
4.163500419623101
4.1758093639530935
4.181963836118102
4.181963836118102
4.169654891788083
4.169654891788083
4.181963836118102
4.1758093639530935
4.169654891788083
4.169654891788083
4.1758093639530935
4.188118308283084
4.181963836118102
4.200427252613103
4.1942727804480935
4.200427252613103
4.188118308283084
4.188118308283084
4.1942727804480935
4.225045141273086
4.218890669108104
4.212736196943095
4.200427252613103
4.212736196943095
4.218890669108104
4.231199613438097
4.237354085603107
4.231199613438097
4.237354085603107
4.225045141273086
4.212736196943095
4.212736196943095
4.212736196943095
4.200427252613103
4.188118308283084
4.1758093639530935
4.163500419623101
4.169654891788083
4.157345947458091
4.145037003128072
4.138882530963089
4.120419114468088
4.120419114468088
4.120419114468088
4.120419114468088
4.114264642303079
4.108110170138069
4.101955697973087
4.101955697973087
4.108110170138069
4.095801225808079
4.089646753643067
4.083492281478085
4.095801225808079
4.120419114468088
4.108110170138069
4.114264642303079
4.108110170138069
4.114264642303079
4.108110170138069
4.101955697973087
4.101955697973087
4.108110170138069
4.108110170138069
4.101955697973087
4.114264642303079
4.114264642303079
4.114264642303079
4.101955697973087
4.095801225808079
4.114264642303079
4.114264642303079
4.12657358663307
4.120419114468088
4.101955697973087
4.089646753643067
4.095801225808079
4.120419114468088
4.138882530963089
4.120419114468088
4.120419114468088
4.114264642303079
4.095801225808079
4.114264642303079
4.12657358663307
4.1327280587980795
4.12657358663307
4.12657358663307
4.120419114468088
4.120419114468088
4.114264642303079
4.114264642303079
4.12657358663307
4.1327280587980795
4.114264642303079
4.114264642303079
4.120419114468088
4.120419114468088
4.1327280587980795
4.138882530963089
4.138882530963089
4.12657358663307
4.12657358663307
4.12657358663307
4.12657358663307
4.12657358663307
4.145037003128072
4.138882530963089
4.1327280587980795
4.1327280587980795
4.12657358663307
4.138882530963089
4.1327280587980795
4.12657358663307
4.120419114468088
4.114264642303079
4.138882530963089
4.138882530963089
4.145037003128072
4.145037003128072
4.138882530963089
4.12657358663307
4.1327280587980795
4.1327280587980795
4.12657358663307
4.12657358663307
4.120419114468088
4.120419114468088
4.138882530963089
4.138882530963089
4.114264642303079
4.12657358663307
4.138882530963089
4.12657358663307
4.120419114468088
4.1327280587980795
4.138882530963089
4.1327280587980795
4.1327280587980795
4.1327280587980795
4.114264642303079
4.145037003128072
4.138882530963089
4.1327280587980795
4.138882530963089
4.120419114468088
4.114264642303079
4.1327280587980795
4.138882530963089
4.138882530963089
4.138882530963089
4.145037003128072
4.138882530963089
4.138882530963089
4.12657358663307
4.1327280587980795
4.138882530963089
4.151191475293081
4.145037003128072
4.145037003128072
4.1327280587980795
4.114264642303079
4.12657358663307
4.138882530963089
4.1327280587980795
4.138882530963089
4.1327280587980795
4.1327280587980795
4.12657358663307
4.138882530963089
4.138882530963089
4.12657358663307
4.114264642303079
4.1327280587980795
4.151191475293081
4.138882530963089
4.1327280587980795
4.1327280587980795
4.12657358663307
4.1327280587980795
4.12657358663307
4.138882530963089
4.145037003128072
4.138882530963089
4.114264642303079
4.114264642303079
4.145037003128072
4.138882530963089
4.1327280587980795
4.1327280587980795
4.1327280587980795
4.1327280587980795
4.120419114468088
4.114264642303079
4.108110170138069
4.12657358663307
4.1327280587980795
4.1327280587980795
4.1327280587980795
4.12657358663307
4.120419114468088
4.120419114468088
4.1327280587980795
4.12657358663307
4.12657358663307
4.12657358663307
4.138882530963089
4.12657358663307
4.1327280587980795
4.12657358663307
4.1327280587980795
4.1327280587980795
4.12657358663307
4.12657358663307
4.114264642303079
4.12657358663307
4.138882530963089
4.138882530963089
4.120419114468088
4.145037003128072
4.151191475293081
4.157345947458091
4.145037003128072
4.1327280587980795
4.145037003128072
4.163500419623101
4.157345947458091
4.151191475293081
4.145037003128072
4.151191475293081
4.138882530963089
4.138882530963089
4.145037003128072
4.138882530963089
4.1327280587980795
4.1327280587980795
4.108110170138069
4.095801225808079
4.120419114468088
4.12657358663307
4.1327280587980795
4.120419114468088
4.114264642303079
4.108110170138069
4.101955697973087
4.101955697973087
4.120419114468088
4.12657358663307
4.120419114468088
4.1327280587980795
4.12657358663307
4.108110170138069
4.101955697973087
4.12657358663307
4.12657358663307
4.114264642303079
4.114264642303079
4.120419114468088
4.12657358663307
4.12657358663307
4.138882530963089
4.169654891788083
4.212736196943095
4.2681264464281
4.305053279418103
4.3112077515831135
4.2865898629231
4.225045141273086
4.163500419623101
4.1327280587980795
4.108110170138069
4.089646753643067
4.065028864983084
4.065028864983084
4.0711833371480655
4.083492281478085
4.120419114468088
4.120419114468088
4.108110170138069
4.1327280587980795
4.1327280587980795
4.138882530963089
4.145037003128072
4.138882530963089
4.145037003128072
4.151191475293081
4.151191475293081
4.145037003128072
4.1327280587980795
4.145037003128072
4.157345947458091
4.157345947458091
4.151191475293081
4.151191475293081
4.151191475293081
4.145037003128072
4.1327280587980795
4.12657358663307
4.169654891788083
4.163500419623101
4.145037003128072
4.1327280587980795
4.151191475293081
4.163500419623101
4.169654891788083
4.157345947458091
4.163500419623101
4.163500419623101
4.169654891788083
4.169654891788083
4.163500419623101
4.157345947458091
4.157345947458091
4.169654891788083
4.163500419623101
4.163500419623101
4.169654891788083
4.157345947458091
4.157345947458091
4.169654891788083
4.200427252613103
4.1942727804480935
4.1942727804480935
4.1942727804480935
4.188118308283084
4.1942727804480935
4.188118308283084
4.181963836118102
4.2065817247780855
4.218890669108104
4.218890669108104
4.225045141273086
4.218890669108104
4.2065817247780855
4.200427252613103
4.1942727804480935
4.225045141273086
4.231199613438097
4.218890669108104
4.200427252613103
4.188118308283084
4.169654891788083
4.138882530963089
4.1327280587980795
4.151191475293081
4.151191475293081
4.138882530963089
4.145037003128072
4.1327280587980795
4.114264642303079
4.101955697973087
4.0711833371480655
4.101955697973087
4.1327280587980795
4.114264642303079
4.114264642303079
4.108110170138069
4.101955697973087
4.108110170138069
4.108110170138069
4.101955697973087
4.108110170138069
4.114264642303079
4.108110170138069
4.120419114468088
4.108110170138069
4.108110170138069
4.108110170138069
4.114264642303079
4.101955697973087
4.101955697973087
4.089646753643067
4.101955697973087
4.1327280587980795
4.1327280587980795
4.120419114468088
4.114264642303079
4.12657358663307
4.120419114468088
4.12657358663307
4.120419114468088
4.120419114468088
4.12657358663307
4.12657358663307
4.108110170138069
4.138882530963089
4.145037003128072
4.151191475293081
4.120419114468088
4.095801225808079
4.083492281478085
4.151191475293081
4.1942727804480935
4.1942727804480935
4.2065817247780855
4.218890669108104
4.225045141273086
4.231199613438097
4.225045141273086
4.225045141273086
4.218890669108104
4.237354085603107
4.243508557768089
4.243508557768089
4.249663029933098
4.255817502098108
4.255817502098108
4.255817502098108
4.243508557768089
4.243508557768089
4.231199613438097
4.1942727804480935
4.1942727804480935
4.231199613438097
4.243508557768089
4.231199613438097
4.218890669108104
4.2065817247780855
4.200427252613103
4.200427252613103
4.1942727804480935
4.188118308283084
4.188118308283084
4.188118308283084
4.181963836118102
4.1758093639530935
4.169654891788083
4.163500419623101
4.157345947458091
4.151191475293081
4.1327280587980795
4.1327280587980795
4.114264642303079
4.114264642303079
4.089646753643067
4.0711833371480655
4.089646753643067
4.095801225808079
4.089646753643067
4.095801225808079
4.083492281478085
4.083492281478085
4.077337809313075
4.089646753643067
4.101955697973087
4.095801225808079
4.083492281478085
4.083492281478085
4.095801225808079
4.095801225808079
4.095801225808079
4.089646753643067
4.095801225808079
4.101955697973087
4.095801225808079
4.065028864983084
4.083492281478085
4.120419114468088
4.12657358663307
4.145037003128072
4.145037003128072
4.120419114468088
4.145037003128072
4.1758093639530935
4.200427252613103
4.188118308283084
4.188118308283084
4.1942727804480935
4.1942727804480935
4.188118308283084
4.188118308283084
4.181963836118102
4.200427252613103
4.200427252613103
4.2065817247780855
4.200427252613103
4.200427252613103
4.1942727804480935
4.181963836118102
4.169654891788083
4.1942727804480935
4.231199613438097
4.231199613438097
4.212736196943095
4.2065817247780855
4.2065817247780855
4.2065817247780855
4.2065817247780855
4.225045141273086
4.212736196943095
4.2065817247780855
4.2065817247780855
4.200427252613103
4.200427252613103
4.200427252613103
4.200427252613103
4.200427252613103
4.181963836118102
4.200427252613103
4.188118308283084
4.188118308283084
4.225045141273086
4.225045141273086
4.2065817247780855
4.181963836118102
4.145037003128072
4.157345947458091
4.2065817247780855
4.1942727804480935
4.181963836118102
4.1758093639530935
4.181963836118102
4.169654891788083
4.157345947458091
4.145037003128072
4.151191475293081
4.151191475293081
4.145037003128072
4.145037003128072
4.138882530963089
4.145037003128072
4.1327280587980795
4.12657358663307
4.145037003128072
4.145037003128072
4.138882530963089
4.120419114468088
4.1327280587980795
4.163500419623101
4.145037003128072
4.145037003128072
4.138882530963089
4.151191475293081
4.138882530963089
4.138882530963089
4.138882530963089
4.138882530963089
4.151191475293081
4.145037003128072
4.1327280587980795
4.1327280587980795
4.120419114468088
4.114264642303079
4.151191475293081
4.145037003128072
4.114264642303079
4.095801225808079
4.101955697973087
4.114264642303079
4.120419114468088
4.114264642303079
4.114264642303079
4.101955697973087
4.108110170138069
4.101955697973087
4.095801225808079
4.095801225808079
4.095801225808079
4.095801225808079
4.089646753643067
4.083492281478085
4.101955697973087
4.114264642303079
4.095801225808079
4.101955697973087
4.101955697973087
4.083492281478085
4.083492281478085
4.101955697973087
4.101955697973087
4.120419114468088
4.138882530963089
4.181963836118102
4.218890669108104
4.2681264464281
4.2865898629231
4.27428091859311
4.243508557768089
4.2065817247780855
4.157345947458091
4.108110170138069
4.065028864983084
4.040410976323072
4.021947559828071
4.028102031993082
4.065028864983084
4.089646753643067
4.089646753643067
4.108110170138069
4.114264642303079
4.114264642303079
4.083492281478085
4.077337809313075
4.114264642303079
4.1327280587980795
4.095801225808079
4.089646753643067
4.120419114468088
4.138882530963089
4.1327280587980795
4.12657358663307
4.114264642303079
4.114264642303079
4.114264642303079
4.114264642303079
4.108110170138069
4.114264642303079
4.1327280587980795
4.12657358663307
4.120419114468088
4.095801225808079
4.12657358663307
4.145037003128072
4.1327280587980795
4.145037003128072
4.145037003128072
4.12657358663307
4.1327280587980795
4.157345947458091
4.157345947458091
4.151191475293081
4.151191475293081
4.151191475293081
4.145037003128072
4.145037003128072
4.145037003128072
4.157345947458091
4.157345947458091
4.151191475293081
4.145037003128072
4.138882530963089
4.157345947458091
4.1758093639530935
4.181963836118102
4.1758093639530935
4.169654891788083
4.188118308283084
4.212736196943095
4.200427252613103
4.212736196943095
4.212736196943095
4.2065817247780855
4.2065817247780855
4.218890669108104
4.218890669108104
4.225045141273086
4.212736196943095
4.2065817247780855
4.200427252613103
4.181963836118102
4.169654891788083
4.181963836118102
4.163500419623101
4.138882530963089
4.12657358663307
4.1327280587980795
4.1327280587980795
4.12657358663307
4.108110170138069
4.095801225808079
4.065028864983084
4.077337809313075
4.108110170138069
4.108110170138069
4.089646753643067
4.077337809313075
4.065028864983084
4.077337809313075
4.095801225808079
4.089646753643067
4.083492281478085
4.077337809313075
4.083492281478085
4.0711833371480655
4.058874392818074
4.077337809313075
4.101955697973087
4.083492281478085
4.052719920653064
4.0465654484880815
4.083492281478085
4.108110170138069
4.101955697973087
4.089646753643067
4.083492281478085
4.0711833371480655
4.065028864983084
4.077337809313075
4.089646753643067
4.089646753643067
4.077337809313075
4.065028864983084
4.083492281478085
4.108110170138069
4.101955697973087
4.095801225808079
4.089646753643067
4.089646753643067
4.077337809313075
4.077337809313075
4.095801225808079
4.089646753643067
4.083492281478085
4.077337809313075
4.058874392818074
4.077337809313075
4.108110170138069
4.089646753643067
4.089646753643067
4.108110170138069
4.077337809313075
4.058874392818074
4.108110170138069
4.12657358663307
4.095801225808079
4.077337809313075
4.083492281478085
4.089646753643067
4.095801225808079
4.108110170138069
4.120419114468088
4.101955697973087
4.101955697973087
4.095801225808079
4.077337809313075
4.108110170138069
4.120419114468088
4.108110170138069
4.108110170138069
4.120419114468088
4.114264642303079
4.108110170138069
4.095801225808079
4.095801225808079
4.108110170138069
4.120419114468088
4.120419114468088
4.108110170138069
4.101955697973087
4.089646753643067
4.101955697973087
4.1327280587980795
4.1327280587980795
4.114264642303079
4.101955697973087
4.108110170138069
4.101955697973087
4.114264642303079
4.120419114468088
4.101955697973087
4.095801225808079
4.114264642303079
4.095801225808079
4.101955697973087
4.101955697973087
4.101955697973087
4.052719920653064
4.052719920653064
4.138882530963089
4.151191475293081
4.120419114468088
4.108110170138069
4.108110170138069
4.101955697973087
4.083492281478085
4.095801225808079
4.108110170138069
4.12657358663307
4.114264642303079
4.101955697973087
4.120419114468088
4.108110170138069
4.101955697973087
4.120419114468088
4.120419114468088
4.120419114468088
4.108110170138069
4.0711833371480655
4.083492281478085
4.120419114468088
4.138882530963089
4.114264642303079
4.089646753643067
4.108110170138069
4.138882530963089
4.120419114468088
4.101955697973087
4.089646753643067
4.108110170138069
4.108110170138069
4.089646753643067
4.108110170138069
4.101955697973087
4.083492281478085
4.12657358663307
4.120419114468088
4.101955697973087
4.108110170138069
4.114264642303079
4.12657358663307
4.120419114468088
4.101955697973087
4.101955697973087
4.101955697973087
4.101955697973087
4.095801225808079
4.089646753643067
4.095801225808079
4.101955697973087
4.0711833371480655
4.089646753643067
4.108110170138069
4.108110170138069
4.108110170138069
4.114264642303079
4.108110170138069
4.114264642303079
4.108110170138069
4.077337809313075
4.0465654484880815
4.065028864983084
4.101955697973087
4.101955697973087
4.101955697973087
4.114264642303079
4.108110170138069
4.095801225808079
4.095801225808079
4.095801225808079
4.095801225808079
4.089646753643067
4.101955697973087
4.101955697973087
4.101955697973087
4.101955697973087
4.083492281478085
4.108110170138069
4.114264642303079
4.108110170138069
4.089646753643067
4.083492281478085
4.101955697973087
4.12657358663307
4.12657358663307
4.114264642303079
4.120419114468088
4.120419114468088
4.120419114468088
4.114264642303079
4.114264642303079
4.108110170138069
4.101955697973087
4.089646753643067
4.089646753643067
4.095801225808079
4.083492281478085
4.065028864983084
4.058874392818074
4.083492281478085
4.101955697973087
4.114264642303079
4.108110170138069
4.108110170138069
4.095801225808079
4.089646753643067
4.089646753643067
4.101955697973087
4.101955697973087
4.101955697973087
4.095801225808079
4.065028864983084
4.052719920653064
4.089646753643067
4.120419114468088
4.095801225808079
4.108110170138069
4.114264642303079
4.120419114468088
4.157345947458091
4.212736196943095
4.255817502098108
4.298898807253093
4.305053279418103
4.261971974263091
4.237354085603107
4.181963836118102
4.114264642303079
4.065028864983084
4.040410976323072
4.021947559828071
4.0465654484880815
4.0711833371480655
4.095801225808079
4.089646753643067
4.089646753643067
4.101955697973087
4.108110170138069
4.108110170138069
4.114264642303079
4.120419114468088
4.120419114468088
4.1327280587980795
4.12657358663307
4.114264642303079
4.12657358663307
4.1327280587980795
4.1327280587980795
4.1327280587980795
4.1327280587980795
4.1327280587980795
4.114264642303079
4.120419114468088
4.145037003128072
4.151191475293081
4.151191475293081
4.12657358663307
4.138882530963089
4.151191475293081
4.145037003128072
4.151191475293081
4.151191475293081
4.145037003128072
4.1327280587980795
4.138882530963089
4.163500419623101
4.151191475293081
