-2.335622186617841
-2.434093741257831
-2.360240075277825
-2.3663945474428347
-2.372549019607845
-2.335622186617841
-2.329467714452832
-2.391012436102846
-2.329467714452832
-2.2063782711528033
-2.409475852597848
-2.391012436102846
-2.3663945474428347
-2.3417766587828237
-2.329467714452832
-2.249459576307816
-2.360240075277825
-2.3417766587828237
-2.335622186617841
-2.335622186617841
-2.335622186617841
-2.304849825792821
-2.2925408814628288
-2.3233132422878215
-2.1694514381628007
-0.8523943948526291
-2.2371506319778245
-2.298695353627811
-2.298695353627811
-2.3171587701228398
-2.2925408814628288
-3.0864677907479487
-3.357264566007989
-2.544874240227868
-2.347931130947833
-2.304849825792821
-2.2802319371328093
-2.150988021667799
-2.2433051041428067
-2.3110042979578305
-2.298695353627811
-2.304849825792821
-2.329467714452832
-2.3233132422878215
-2.3171587701228398
-2.298695353627811
-2.2740774649678275
-2.261768520637808
-2.3171587701228398
-2.3110042979578305
-2.2740774649678275
-2.1079067165127863
-2.378703491772827
-2.3663945474428347
-2.3171587701228398
-2.286386409297819
-2.3540856031128428
-2.298695353627811
-2.3233132422878215
-2.2925408814628288
-2.2679229928028177
-2.261768520637808
-2.329467714452832
-2.3110042979578305
-2.2679229928028177
-2.200223798987821
-2.391012436102846
-2.3663945474428347
-2.3233132422878215
-2.304849825792821
-2.249459576307816
-2.360240075277825
-2.329467714452832
-2.3233132422878215
-2.3540856031128428
-2.347931130947833
-2.329467714452832
-2.335622186617841
-2.2925408814628288
-2.114061188677796
-1.6709391927977324
-2.120215660842805
-2.255614048472826
-2.2802319371328093
-2.3110042979578305
-2.2679229928028177
-2.261768520637808
-2.329467714452832
-1.9171180793977614
-2.2433051041428067
-2.6433457948678853
-2.409475852597848
-2.372549019607845
-2.4402482134228407
-2.9572238752829105
-2.778744182497905
-2.483329518577854
-2.409475852597848
-2.3848579639378364
-2.378703491772827
-2.372549019607845
-2.335622186617841
-2.261768520637808
-2.409475852597848
-2.347931130947833
-2.298695353627811
-2.2925408814628288
-2.2740774649678275
-2.3417766587828237
-2.526410823732866
-2.4587116299178424
-2.471020574247862
-2.4402482134228407
-2.3971669082678284
-2.378703491772827
-2.409475852597848
-2.403321380432838
-2.304849825792821
-2.3848579639378364
-2.434093741257831
-2.3540856031128428
-2.298695353627811
-1.8432644134177558
-2.0340530505327803
-2.2925408814628288
-1.855573357747775
-2.3110042979578305
-2.6987360443528896
-2.403321380432838
-2.360240075277825
-2.378703491772827
-2.360240075277825
-2.347931130947833
-2.360240075277825
-2.4525571577528327
-2.391012436102846
-2.8464433763129016
-2.858752320642893
-2.4525571577528327
-2.372549019607845
-2.378703491772827
-2.286386409297819
-2.403321380432838
-2.360240075277825
-2.3233132422878215
-2.3233132422878215
-1.9232725515627715
-0.7662317845426038
-2.187914854657802
-3.1233946237379517
-3.055695429922928
-2.434093741257831
-2.2925408814628288
-2.2679229928028177
-2.255614048472826
-2.2063782711528033
-2.2371506319778245
-2.249459576307816
-2.249459576307816
-2.249459576307816
-2.255614048472826
-2.286386409297819
-2.261768520637808
-2.2309961598128147
-2.1325246051727973
-2.4217847969278394
-2.378703491772827
-2.3110042979578305
-2.2740774649678275
-2.3110042979578305
-2.298695353627811
-2.2802319371328093
-2.255614048472826
-2.261768520637808
-2.3971669082678284
-2.2925408814628288
-2.2371506319778245
-2.261768520637808
-2.1632969659978185
-2.3848579639378364
-2.391012436102846
-2.286386409297819
-2.255614048472826
-2.3171587701228398
-2.3171587701228398
-2.286386409297819
-2.304849825792821
-2.2740774649678275
-2.2433051041428067
-2.286386409297819
-2.304849825792821
-2.2925408814628288
-2.224841687647805
-2.347931130947833
-2.3971669082678284
-2.360240075277825
-2.329467714452832
-2.3233132422878215
-2.3171587701228398
-2.335622186617841
-2.304849825792821
-2.298695353627811
-2.2802319371328093
-2.304849825792821
-2.304849825792821
-2.2925408814628288
-2.2740774649678275
-2.372549019607845
-2.3540856031128428
-2.261768520637808
-1.8863457185727683
-2.261768520637808
-2.667963683527869
-2.391012436102846
-2.335622186617841
-2.329467714452832
-2.304849825792821
-2.329467714452832
-2.286386409297819
-2.3110042979578305
-2.255614048472826
-2.298695353627811
-2.391012436102846
-2.3540856031128428
-2.3417766587828237
-2.3417766587828237
-2.329467714452832
-2.1263701330077875
-0.8277765061926179
-1.990971745377768
-2.2740774649678275
-2.249459576307816
-2.286386409297819
-2.2925408814628288
-2.212532743317813
-2.507947407237865
-3.6465247577630313
-2.7910531268278973
-2.4156303247628297
-2.3848579639378364
-2.335622186617841
-2.3417766587828237
-2.347931130947833
-2.2371506319778245
-2.2802319371328093
-2.3171587701228398
-2.2740774649678275
-2.255614048472826
-2.255614048472826
-2.3971669082678284
-2.612573434042864
-2.335622186617841
-2.335622186617841
-2.304849825792821
-2.3171587701228398
-2.298695353627811
-2.2925408814628288
-2.304849825792821
-2.2925408814628288
-2.249459576307816
-2.403321380432838
-2.3233132422878215
-2.150988021667799
-2.0278985783677985
-2.4402482134228407
-2.329467714452832
-2.2925408814628288
-2.2802319371328093
-1.9601993845527748
-1.1231911701126696
-1.9048091350677696
-2.1694514381628007
-2.2371506319778245
-2.255614048472826
-2.372549019607845
-3.394191398997992
-3.018768596932925
-2.200223798987821
-2.1632969659978185
-2.298695353627811
-2.286386409297819
-2.2925408814628288
-2.304849825792821
-2.347931130947833
-2.360240075277825
-2.347931130947833
-2.3171587701228398
-2.286386409297819
-2.2679229928028177
-2.2309961598128147
-2.194069326822812
-1.8124920525927626
-1.6340123598077294
-2.138679077337807
-2.298695353627811
-2.347931130947833
-2.3663945474428347
-2.3971669082678284
-2.3848579639378364
-2.391012436102846
-2.3848579639378364
-2.3417766587828237
-2.3171587701228398
-2.3233132422878215
-2.255614048472826
-2.391012436102846
-2.624882378372884
-2.4648661020828517
-2.3663945474428347
-2.3110042979578305
-2.3417766587828237
-2.335622186617841
-2.3233132422878215
-2.2925408814628288
-2.286386409297819
-2.347931130947833
-2.360240075277825
-2.3171587701228398
-2.304849825792821
-2.360240075277825
-2.624882378372884
-2.4402482134228407
-2.298695353627811
-2.3233132422878215
-2.3171587701228398
-2.3233132422878215
-2.304849825792821
-2.298695353627811
-2.2740774649678275
-2.286386409297819
-2.255614048472826
-2.255614048472826
-1.861727829912757
-2.212532743317813
-2.5941100175478624
-2.3540856031128428
-2.2925408814628288
-2.2679229928028177
-2.286386409297819
-2.329467714452832
-2.329467714452832
-2.347931130947833
-2.3233132422878215
-2.2925408814628288
-2.3233132422878215
-2.3663945474428347
-2.304849825792821
-2.2309961598128147
-2.070979883522784
-2.255614048472826
-2.3233132422878215
-2.3417766587828237
-2.298695353627811
-1.2031993082576575
-2.4587116299178424
-3.1357035680679433
-2.4525571577528327
-2.347931130947833
-2.3417766587828237
-2.3233132422878215
-2.3110042979578305
-2.2925408814628288
-2.618727906207874
-2.649500267032867
-2.4156303247628297
-2.3663945474428347
-2.360240075277825
-2.3540856031128428
-2.3540856031128428
-2.3110042979578305
-2.4279392690928487
-2.3848579639378364
-2.3540856031128428
-2.360240075277825
-2.3233132422878215
-2.3110042979578305
-2.212532743317813
-2.298695353627811
-2.4156303247628297
-2.3848579639378364
-2.335622186617841
-2.3417766587828237
-2.3540856031128428
-2.3417766587828237
-2.304849825792821
-2.2802319371328093
-2.3540856031128428
-2.3417766587828237
-2.3110042979578305
-2.2925408814628288
-1.9601993845527748
-1.25243508557768
-2.052516467027782
-3.3203377330179857
-2.981841763942921
-2.4402482134228407
-2.347931130947833
-2.298695353627811
-2.3171587701228398
-2.335622186617841
-2.286386409297819
-2.3233132422878215
-2.3848579639378364
-2.3540856031128428
-2.224841687647805
-2.434093741257831
-2.391012436102846
-2.347931130947833
-2.3971669082678284
-2.3110042979578305
-2.2679229928028177
-2.304849825792821
-2.3171587701228398
-2.2925408814628288
-2.298695353627811
-2.286386409297819
-2.2063782711528033
-2.304849825792821
-2.212532743317813
-2.304849825792821
-2.329467714452832
-2.261768520637808
-2.3110042979578305
-2.2740774649678275
-2.2679229928028177
-2.372549019607845
-2.304849825792821
-2.2925408814628288
-2.304849825792821
-2.2925408814628288
-2.378703491772827
-2.2371506319778245
-1.9171180793977614
-1.7878741639327511
-2.1817603824928202
-2.2309961598128147
-2.2679229928028177
-2.255614048472826
-2.261768520637808
-2.286386409297819
-2.2802319371328093
-2.3663945474428347
-2.3110042979578305
-2.304849825792821
-2.286386409297819
-2.3171587701228398
-2.3971669082678284
-2.8402889041478923
-2.5141018794028467
-2.4217847969278394
-2.360240075277825
-2.304849825792821
-2.304849825792821
-2.298695353627811
-1.9417359680577726
-2.2186872154828228
-2.612573434042864
-2.471020574247862
-2.347931130947833
-2.2802319371328093
-2.2802319371328093
-2.4279392690928487
-2.403321380432838
-2.298695353627811
-2.261768520637808
-2.3417766587828237
-2.335622186617841
-2.3417766587828237
-2.3110042979578305
-2.3171587701228398
-2.335622186617841
-2.224841687647805
-2.360240075277825
-2.304849825792821
-2.175605910327811
-2.1694514381628007
-2.2802319371328093
-2.3110042979578305
-2.3417766587828237
-2.335622186617841
-2.4156303247628297
-2.391012436102846
-2.347931130947833
-2.335622186617841
-2.335622186617841
-2.3110042979578305
-2.3110042979578305
-2.200223798987821
-2.224841687647805
-2.255614048472826
-2.3848579639378364
-2.298695353627811
-2.2309961598128147
-2.2371506319778245
-2.224841687647805
-2.255614048472826
-2.2802319371328093
-2.298695353627811
-2.2679229928028177
-2.2371506319778245
-2.298695353627811
-2.286386409297819
-2.261768520637808
-2.286386409297819
-2.600264489712873
-2.378703491772827
-2.304849825792821
-2.298695353627811
-2.286386409297819
-2.2925408814628288
-2.255614048472826
-2.261768520637808
-1.966353856717784
-1.9048091350677696
-4.489687444368147
-2.907988097962916
-2.4402482134228407
-2.1325246051727973
-2.003280689707787
-1.6217034154777374
-1.757101803107758
-2.255614048472826
-2.3540856031128428
-2.1817603824928202
-2.224841687647805
-2.2925408814628288
-2.729508405177883
-2.483329518577854
-2.329467714452832
-2.329467714452832
-2.2740774649678275
-2.286386409297819
-2.3417766587828237
-2.3540856031128428
-2.372549019607845
-2.286386409297819
-2.3110042979578305
-2.329467714452832
-2.3110042979578305
-2.2740774649678275
-2.298695353627811
-2.335622186617841
-2.378703491772827
-2.2740774649678275
-2.286386409297819
-2.335622186617841
-2.378703491772827
-2.3663945474428347
-2.3663945474428347
-2.360240075277825
-2.391012436102846
-2.347931130947833
-2.3663945474428347
-2.372549019607845
-2.3663945474428347
-2.335622186617841
-2.3417766587828237
-2.378703491772827
-2.372549019607845
-2.2925408814628288
-2.3233132422878215
-2.378703491772827
-2.360240075277825
-2.372549019607845
-2.3417766587828237
-2.249459576307816
-1.4555326670226965
-1.7324839144477464
-1.590931054652717
-1.0801098649576568
-2.1632969659978185
-2.2371506319778245
-2.2063782711528033
-2.4587116299178424
-3.5911345082780266
-2.821825487652891
-2.378703491772827
-2.3417766587828237
-2.3417766587828237
-2.3540856031128428
-2.3110042979578305
-2.329467714452832
-2.3233132422878215
-2.329467714452832
-2.335622186617841
-2.329467714452832
-2.261768520637808
-2.2309961598128147
-2.2433051041428067
-2.3417766587828237
-2.3540856031128428
-2.3110042979578305
-2.3171587701228398
-2.304849825792821
-2.2925408814628288
-2.304849825792821
-2.298695353627811
-2.2433051041428067
-2.2925408814628288
-2.2802319371328093
-2.2679229928028177
-2.249459576307816
-2.249459576307816
-2.391012436102846
-2.3233132422878215
-2.286386409297819
-2.304849825792821
-2.2925408814628288
-2.329467714452832
-2.3171587701228398
-2.2740774649678275
-2.2802319371328093
-2.224841687647805
-2.2309961598128147
-2.304849825792821
-2.261768520637808
-2.194069326822812
-2.3417766587828237
-2.298695353627811
-2.3233132422878215
-2.3233132422878215
-2.329467714452832
-2.3110042979578305
-2.304849825792821
-2.2925408814628288
-2.335622186617841
-2.3417766587828237
-2.298695353627811
-2.298695353627811
-2.304849825792821
-2.3171587701228398
-2.3971669082678284
-2.114061188677796
-1.9417359680577726
-2.255614048472826
-0.9447114773276367
-2.526410823732866
-3.535744258793022
-2.772589710332896
-2.4156303247628297
-2.360240075277825
-2.335622186617841
-2.3171587701228398
-2.304849825792821
-1.8678823020777668
-1.578622110322725
-2.1263701330077875
-2.2433051041428067
-2.2679229928028177
-2.261768520637808
-2.2679229928028177
-2.2679229928028177
-2.224841687647805
-2.298695353627811
-2.3233132422878215
-2.2802319371328093
-2.2309961598128147
-2.194069326822812
-2.3417766587828237
-2.4217847969278394
-2.255614048472826
-2.372549019607845
-2.3971669082678284
-2.4279392690928487
-2.4648661020828517
-2.4217847969278394
-2.434093741257831
-2.378703491772827
-2.3233132422878215
-2.409475852597848
-2.360240075277825
-2.335622186617841
-2.5141018794028467
-3.055695429922928
-2.624882378372884
-2.434093741257831
-2.391012436102846
-2.409475852597848
-2.3848579639378364
-2.391012436102846
-2.3540856031128428
-2.3540856031128428
-2.3540856031128428
-2.304849825792821
-2.3540856031128428
-2.3417766587828237
-2.2925408814628288
-2.3417766587828237
-2.501792935072855
-2.329467714452832
-2.286386409297819
-2.378703491772827
-2.3663945474428347
-2.347931130947833
-2.3663945474428347
-2.372549019607845
-2.360240075277825
-2.335622186617841
-1.9417359680577726
-2.2802319371328093
-2.631036850537866
-2.3848579639378364
-2.4587116299178424
-2.360240075277825
-2.3110042979578305
-2.2802319371328093
-2.3233132422878215
-2.335622186617841
-2.3417766587828237
-2.3171587701228398
-2.298695353627811
-2.3233132422878215
-2.347931130947833
-2.2679229928028177
-2.2679229928028177
-2.224841687647805
-2.360240075277825
-2.3110042979578305
-2.298695353627811
-2.329467714452832
-2.3233132422878215
-2.304849825792821
-2.2925408814628288
-2.286386409297819
-2.329467714452832
-2.298695353627811
-2.3233132422878215
-2.2740774649678275
-2.2925408814628288
-2.403321380432838
-2.4402482134228407
-2.304849825792821
-2.4217847969278394
-2.3663945474428347
-2.391012436102846
-2.3663945474428347
-2.360240075277825
-2.360240075277825
-2.3540856031128428
-2.347931130947833
-2.391012436102846
-2.347931130947833
-2.304849825792821
-2.2679229928028177
-2.55102871239285
-2.446402685587851
-2.360240075277825
-2.335622186617841
-2.4156303247628297
-2.3848579639378364
-2.3540856031128428
-2.3540856031128428
-2.335622186617841
-2.3233132422878215
-2.2371506319778245
-2.286386409297819
-1.892500190737778
-0.6062155082525723
-2.089443300017785
-2.2186872154828228
-2.2309961598128147
-2.2186872154828228
-2.7848986546628876
-3.504971897968029
-2.618727906207874
-2.3663945474428347
-2.3540856031128428
-2.329467714452832
-2.286386409297819
-2.304849825792821
-2.304849825792821
-2.2186872154828228
-2.3663945474428347
-2.3663945474428347
-2.329467714452832
-2.347931130947833
-2.3171587701228398
-2.2740774649678275
-2.2679229928028177
-2.378703491772827
-2.3110042979578305
-2.2679229928028177
-2.2740774649678275
-2.255614048472826
-2.175605910327811
-2.175605910327811
-2.403321380432838
-2.391012436102846
-2.3171587701228398
-2.2740774649678275
-2.2679229928028177
-2.2925408814628288
-2.261768520637808
-2.261768520637808
-2.261768520637808
-2.3417766587828237
-2.372549019607845
-2.3233132422878215
-2.2740774649678275
-2.212532743317813
-2.1632969659978185
-2.3171587701228398
-2.3110042979578305
-2.3171587701228398
-2.3171587701228398
-2.286386409297819
-2.2740774649678275
-2.2802319371328093
-2.2740774649678275
-2.2925408814628288
-2.224841687647805
-2.1817603824928202
-2.2433051041428067
-2.212532743317813
-2.2679229928028177
-2.3417766587828237
-2.2802319371328093
-2.224841687647805
-2.298695353627811
-2.2802319371328093
-1.8678823020777668
-2.2802319371328093
-2.649500267032867
-2.3663945474428347
-2.3417766587828237
-2.286386409297819
-2.298695353627811
-2.2309961598128147
-2.194069326822812
-2.3848579639378364
-2.304849825792821
-2.2740774649678275
-2.2679229928028177
-2.2371506319778245
-2.298695353627811
-2.261768520637808
-2.2679229928028177
-2.2925408814628288
-2.286386409297819
-2.298695353627811
-2.261768520637808
-2.2063782711528033
-2.2063782711528033
-2.378703491772827
-2.286386409297819
-2.255614048472826
-2.224841687647805
-2.255614048472826
-2.2740774649678275
-2.335622186617841
-2.3540856031128428
-2.360240075277825
-2.3971669082678284
-2.4217847969278394
-2.409475852597848
-2.329467714452832
-2.0586709391927913
-0.9816383103176396
-2.070979883522784
-2.286386409297819
-2.2371506319778245
-2.2802319371328093
-2.329467714452832
-2.2925408814628288
-2.600264489712873
-3.560362147453033
-2.7910531268278973
-2.3971669082678284
-2.3171587701228398
-2.286386409297819
-2.255614048472826
-2.477175046412844
-2.304849825792821
-2.360240075277825
-2.3663945474428347
-2.3110042979578305
-2.335622186617841
-2.335622186617841
-2.003280689707787
-1.2031993082576575
-2.501792935072855
-3.3141832608529764
-2.55102871239285
-2.3110042979578305
-2.194069326822812
-2.286386409297819
-2.255614048472826
-2.261768520637808
-2.212532743317813
-2.2679229928028177
-2.3171587701228398
-2.2740774649678275
-2.2802319371328093
-2.2679229928028177
-2.2679229928028177
-2.249459576307816
-2.1817603824928202
-2.2679229928028177
-2.286386409297819
-2.5941100175478624
-2.3663945474428347
-2.255614048472826
-2.2186872154828228
-2.212532743317813
-2.1817603824928202
-2.2186872154828228
-2.212532743317813
-2.2371506319778245
-2.224841687647805
-2.2063782711528033
-2.2186872154828228
-2.200223798987821
-2.064825411357801
-1.9048091350677696
-2.1571424938328088
-2.224841687647805
-2.2679229928028177
-2.2186872154828228
-2.2063782711528033
-2.2309961598128147
-2.2740774649678275
-2.2433051041428067
-2.2433051041428067
-2.2679229928028177
-2.2802319371328093
-2.224841687647805
-2.2063782711528033
-2.2186872154828228
-2.2802319371328093
-2.255614048472826
-2.2371506319778245
-2.2433051041428067
-2.3110042979578305
-2.2925408814628288
-2.249459576307816
-2.261768520637808
-2.286386409297819
-2.286386409297819
-2.261768520637808
-2.2186872154828228
-2.175605910327811
-2.0278985783677985
-1.855573357747775
-2.2063782711528033
-2.5141018794028467
-2.360240075277825
-2.200223798987821
-2.1817603824928202
-2.2063782711528033
-2.2186872154828228
-2.194069326822812
-2.175605910327811
-2.212532743317813
-2.2186872154828228
-2.212532743317813
-2.3110042979578305
-2.3110042979578305
-2.2740774649678275
-2.261768520637808
-2.2371506319778245
-2.249459576307816
-2.2740774649678275
-2.2925408814628288
-2.249459576307816
-2.255614048472826
-2.261768520637808
-2.249459576307816
-2.2309961598128147
-2.3171587701228398
-2.304849825792821
-2.4217847969278394
-2.298695353627811
-2.286386409297819
-2.286386409297819
-2.212532743317813
-2.2740774649678275
-2.3233132422878215
-2.304849825792821
-2.286386409297819
-2.286386409297819
-2.286386409297819
-2.2740774649678275
-1.830955469087764
-2.249459576307816
-2.7418173495078744
-2.4217847969278394
-2.329467714452832
-2.2925408814628288
-2.261768520637808
-2.2802319371328093
-2.2371506319778245
-2.286386409297819
-2.2925408814628288
-2.286386409297819
-2.298695353627811
-2.304849825792821
-2.2433051041428067
-2.1694514381628007
-2.224841687647805
-2.378703491772827
-1.9971262175427773
-0.8400854505226096
-2.212532743317813
-2.3233132422878215
-2.3417766587828237
-2.372549019607845
-3.25263853920299
-3.326492205182996
-2.5387197680628573
-2.4217847969278394
-2.360240075277825
-2.347931130947833
-2.434093741257831
-2.372549019607845
-2.3540856031128428
-2.446402685587851
-2.3971669082678284
-2.391012436102846
-2.3663945474428347
-2.378703491772827
-2.360240075277825
-2.3171587701228398
-2.298695353627811
-2.403321380432838
-2.329467714452832
-2.3233132422878215
-2.335622186617841
-2.378703491772827
-2.360240075277825
-2.360240075277825
-2.347931130947833
-2.372549019607845
-2.378703491772827
-2.3417766587828237
-2.335622186617841
-2.3233132422878215
-2.3171587701228398
-2.372549019607845
-2.3171587701228398
-2.3110042979578305
-2.4587116299178424
-2.495638462907845
-2.4648661020828517
-2.434093741257831
-2.409475852597848
-2.4156303247628297
-2.4402482134228407
-2.4217847969278394
-2.4217847969278394
-2.434093741257831
-2.409475852597848
-2.4217847969278394
-2.372549019607845
-2.298695353627811
-2.3540856031128428
-2.409475852597848
-2.4156303247628297
-2.4279392690928487
-2.4525571577528327
-2.434093741257831
-2.4217847969278394
-2.434093741257831
-2.526410823732866
-2.4402482134228407
-2.070979883522784
-2.4525571577528327
-2.754126293837894
-2.477175046412844
-2.434093741257831
-2.55718318455786
-2.520256351567857
-2.501792935072855
-2.434093741257831
-2.4648661020828517
-2.4894839907428636
-2.477175046412844
-2.434093741257831
-2.4217847969278394
-2.4587116299178424
-2.403321380432838
-2.360240075277825
-2.360240075277825
-2.347931130947833
-2.4525571577528327
-2.391012436102846
-2.3663945474428347
-2.3848579639378364
-2.372549019607845
-2.378703491772827
-2.378703491772827
-2.3417766587828237
-2.391012436102846
-2.4156303247628297
-2.360240075277825
-2.3171587701228398
-2.3233132422878215
-2.298695353627811
-2.4525571577528327
-2.3848579639378364
-2.3540856031128428
-2.329467714452832
-2.3848579639378364
-2.3848579639378364
-2.335622186617841
-2.3233132422878215
-2.261768520637808
-2.298695353627811
-2.3233132422878215
-2.304849825792821
-2.335622186617841
-2.2186872154828228
-2.434093741257831
-2.3848579639378364
-2.3663945474428347
-2.360240075277825
-2.298695353627811
-2.298695353627811
-2.4279392690928487
-2.403321380432838
-2.372549019607845
-2.403321380432838
-2.360240075277825
-1.9971262175427773
-0.8585488670176111
-3.154166984562973
-3.24648406703798
-2.5325652958978484
-2.3971669082678284
-2.378703491772827
-2.3540856031128428
-2.4279392690928487
-2.495638462907845
-2.391012436102846
-2.378703491772827
-2.3233132422878215
-2.286386409297819
-2.304849825792821
-2.286386409297819
-2.261768520637808
-2.587955545382853
-2.4648661020828517
-2.3540856031128428
-2.335622186617841
-2.298695353627811
-2.3417766587828237
-2.3417766587828237
-2.3171587701228398
-2.2925408814628288
-2.286386409297819
-2.3233132422878215
-2.3110042979578305
-2.2679229928028177
-2.1325246051727973
-2.015589634037779
-2.249459576307816
-2.249459576307816
-2.304849825792821
-2.2925408814628288
-2.2802319371328093
-2.2925408814628288
-2.2433051041428067
-2.249459576307816
-2.249459576307816
-2.2371506319778245
-2.2925408814628288
-2.261768520637808
-2.2309961598128147
-2.471020574247862
-2.526410823732866
-2.3848579639378364
-2.329467714452832
-1.6955570814577436
-0.9200935886676254
-1.9601993845527748
-2.631036850537866
-2.409475852597848
-2.347931130947833
-2.3233132422878215
-2.347931130947833
-3.1972482897179852
-3.154166984562973
-2.212532743317813
-2.3540856031128428
-2.3663945474428347
-2.372549019607845
-2.347931130947833
-2.329467714452832
-2.2925408814628288
-2.3110042979578305
-2.286386409297819
-2.329467714452832
-2.304849825792821
-2.3171587701228398
-2.2679229928028177
-2.2063782711528033
-2.3110042979578305
-2.4156303247628297
-2.3417766587828237
-2.3110042979578305
-2.3233132422878215
-2.3233132422878215
-2.2925408814628288
-2.138679077337807
-2.255614048472826
-2.612573434042864
-2.4156303247628297
-2.378703491772827
-2.3110042979578305
-2.2679229928028177
-2.015589634037779
-1.7509473309427481
-2.3540856031128428
-2.5941100175478624
-2.3663945474428347
-2.298695353627811
-2.304849825792821
-2.2925408814628288
-2.3233132422878215
-2.261768520637808
-2.3233132422878215
-2.3848579639378364
-2.2925408814628288
-2.2925408814628288
-2.471020574247862
-2.600264489712873
-2.3663945474428347
-2.3110042979578305
-2.347931130947833
-2.391012436102846
-2.434093741257831
-2.4648661020828517
-2.4587116299178424
-2.4525571577528327
-2.3971669082678284
-2.2740774649678275
-2.009435161872797
-2.624882378372884
-2.5141018794028467
-2.335622186617841
-2.329467714452832
-2.335622186617841
-2.3233132422878215
-2.286386409297819
-2.329467714452832
-1.9971262175427773
-1.1478090587726528
-1.9786628010477763
-2.2063782711528033
-2.261768520637808
-2.4217847969278394
-3.461890592813016
-2.871061264972913
-2.3971669082678284
-2.3848579639378364
-2.3417766587828237
-2.3233132422878215
-2.3233132422878215
-2.3540856031128428
-2.329467714452832
-2.3110042979578305
-2.3233132422878215
-2.335622186617841
-2.286386409297819
-2.3233132422878215
-2.261768520637808
-2.1817603824928202
-1.855573357747775
-2.052516467027782
-2.194069326822812
-2.2433051041428067
-2.249459576307816
-2.286386409297819
-2.2740774649678275
-2.2371506319778245
-2.286386409297819
-2.2679229928028177
-2.261768520637808
-2.286386409297819
-2.2925408814628288
-2.403321380432838
-3.2403295948729705
-2.754126293837894
-2.477175046412844
-2.409475852597848
-2.372549019607845
-2.3663945474428347
-2.3848579639378364
-2.3540856031128428
-2.3171587701228398
-2.2186872154828228
-2.372549019607845
-2.3417766587828237
-2.3233132422878215
-2.224841687647805
-1.9417359680577726
-2.298695353627811
-2.304849825792821
-2.2925408814628288
-2.3417766587828237
-2.298695353627811
-2.3171587701228398
-2.2740774649678275
-2.2679229928028177
-2.298695353627811
-2.2802319371328093
-2.2740774649678275
-2.2679229928028177
-2.255614048472826
-1.954044912387765
-2.409475852597848
-2.6618092113628857
-2.409475852597848
-2.329467714452832
-2.3110042979578305
-2.335622186617841
-2.335622186617841
-2.3233132422878215
-2.329467714452832
-2.3110042979578305
-2.304849825792821
-2.304849825792821
-2.2679229928028177
-2.1325246051727973
-2.3540856031128428
-2.3540856031128428
-2.2740774649678275
-2.2679229928028177
-2.3110042979578305
-2.261768520637808
-2.3171587701228398
-2.347931130947833
-2.304849825792821
-2.2925408814628288
-2.3110042979578305
-2.3233132422878215
-2.2740774649678275
-1.8740367742427766
-1.855573357747775
-2.2063782711528033
-2.2433051041428067
-2.2679229928028177
-2.2740774649678275
-2.2802319371328093
-2.2802319371328093
-2.261768520637808
-2.2802319371328093
-2.2740774649678275
-2.255614048472826
-2.2433051041428067
-2.261768520637808
-2.5387197680628573
-2.8402889041478923
-2.4217847969278394
-2.360240075277825
-2.329467714452832
-2.335622186617841
-2.3233132422878215
-2.3233132422878215
-2.304849825792821
-2.2740774649678275
-2.2371506319778245
-2.347931130947833
-2.286386409297819
-2.249459576307816
-2.2679229928028177
-2.526410823732866
-2.089443300017785
-1.3201342793926762
-3.1110856794079322
-2.877215737137895
-2.4279392690928487
-2.335622186617841
-2.3110042979578305
-2.304849825792821
-2.3110042979578305
-2.261768520637808
-2.3171587701228398
-2.3110042979578305
-2.150988021667799
-2.120215660842805
-2.372549019607845
-2.347931130947833
-2.3417766587828237
-2.329467714452832
-2.360240075277825
-2.347931130947833
-2.3663945474428347
-2.335622186617841
-2.3233132422878215
-2.3171587701228398
-2.3417766587828237
-2.286386409297819
-2.175605910327811
-1.5170773886727107
-1.972508328882766
-2.2309961598128147
-2.2925408814628288
-2.304849825792821
-2.2802319371328093
-2.2433051041428067
-2.360240075277825
-2.3171587701228398
-2.304849825792821
-2.2740774649678275
-2.2740774649678275
-2.298695353627811
-2.360240075277825
-3.25263853920299
-2.944914930952919
-2.378703491772827
-2.2679229928028177
-2.2371506319778245
-2.2371506319778245
-2.255614048472826
-2.249459576307816
-2.2433051041428067
-2.409475852597848
-2.372549019607845
-2.347931130947833
-2.335622186617841
-2.2740774649678275
-2.0463619948628
-2.261768520637808
-2.286386409297819
-2.3110042979578305
-2.298695353627811
-2.286386409297819
-2.2309961598128147
-2.304849825792821
-2.2433051041428067
-1.818646524757745
-2.2679229928028177
-2.624882378372884
-2.347931130947833
-2.255614048472826
-2.187914854657802
-2.391012436102846
-2.3417766587828237
-2.335622186617841
-2.3233132422878215
-2.329467714452832
-2.304849825792821
-2.286386409297819
-2.298695353627811
-2.329467714452832
-2.3110042979578305
-2.2433051041428067
-2.286386409297819
-2.2802319371328093
-2.2740774649678275
-2.4279392690928487
-2.372549019607845
-2.3417766587828237
-2.3417766587828237
-2.2679229928028177
-2.446402685587851
-2.403321380432838
-2.3663945474428347
-2.409475852597848
-2.378703491772827
-2.2802319371328093
-2.347931130947833
-2.3233132422878215
-2.2371506319778245
-2.335622186617841
-2.434093741257831
-2.434093741257831
-2.3848579639378364
-2.3540856031128428
-2.3663945474428347
-2.391012436102846
-2.403321380432838
-2.360240075277825
-2.403321380432838
-2.3971669082678284
-2.3848579639378364
-2.378703491772827
-2.372549019607845
-2.409475852597848
-2.4156303247628297
-2.4279392690928487
-2.403321380432838
-2.4156303247628297
-2.446402685587851
-2.434093741257831
-2.2433051041428067
-0.901630172172624
-2.1325246051727973
-2.175605910327811
-2.120215660842805
-2.8649067928079033
-2.403321380432838
-2.507947407237865
-2.8033620711578893
-3.6711426464230414
-2.883370209302905
-2.5325652958978484
-2.4587116299178424
-2.4279392690928487
-2.434093741257831
-2.4402482134228407
-2.372549019607845
-2.4402482134228407
-2.4648661020828517
-2.409475852597848
-2.3417766587828237
-2.391012436102846
-2.4648661020828517
-2.391012436102846
-2.298695353627811
-2.403321380432838
-2.3848579639378364
-2.3848579639378364
-2.3540856031128428
-2.360240075277825
-2.335622186617841
-2.3171587701228398
-2.286386409297819
-2.329467714452832
-2.286386409297819
-1.89865466290276
-2.1325246051727973
-2.2802319371328093
-2.3417766587828237
-2.347931130947833
-2.347931130947833
-2.372549019607845
-2.378703491772827
-2.403321380432838
-2.378703491772827
-2.360240075277825
-2.378703491772827
-2.378703491772827
-2.372549019607845
-2.7848986546628876
-2.7171994608478913
-2.434093741257831
-2.4279392690928487
-2.3971669082678284
-2.3417766587828237
-2.347931130947833
-2.3663945474428347
-2.3663945474428347
-2.3171587701228398
-2.304849825792821
-2.329467714452832
-2.2925408814628288
-2.2186872154828228
-2.175605910327811
-2.434093741257831
-2.391012436102846
-2.2925408814628288
-1.9048091350677696
-2.3171587701228398
-2.6618092113628857
-2.3971669082678284
-2.347931130947833
-2.347931130947833
-2.329467714452832
-2.304849825792821
-2.298695353627811
-2.286386409297819
-2.3110042979578305
-2.4156303247628297
-2.2433051041428067
-2.372549019607845
-2.360240075277825
-2.329467714452832
-2.3171587701228398
-2.2802319371328093
-2.286386409297819
-2.286386409297819
-2.261768520637808
-2.298695353627811
-2.3110042979578305
-2.2802319371328093
-2.187914854657802
-2.3848579639378364
-2.372549019607845
-2.335622186617841
-2.2925408814628288
-2.3848579639378364
-2.372549019607845
-2.3417766587828237
-2.3110042979578305
-2.304849825792821
-2.2925408814628288
-2.2802319371328093
-2.249459576307816
-2.261768520637808
-2.187914854657802
-2.4217847969278394
-2.4402482134228407
-2.3171587701228398
-2.2925408814628288
-2.2371506319778245
-2.255614048472826
-2.261768520637808
-2.224841687647805
-2.261768520637808
-2.286386409297819
-2.3110042979578305
-2.3417766587828237
-2.3848579639378364
-2.286386409297819
-2.1571424938328088
-2.286386409297819
-2.298695353627811
-2.304849825792821
-2.2925408814628288
-1.954044912387765
-1.1170366979476598
-3.154166984562973
-2.858752320642893
-2.372549019607845
-2.298695353627811
-2.298695353627811
-2.2309961598128147
-2.3110042979578305
-2.55102871239285
-2.4894839907428636
-2.3848579639378364
-2.3171587701228398
-2.3110042979578305
-2.3110042979578305
-2.3417766587828237
-2.2740774649678275
-2.255614048472826
-2.2925408814628288
-2.2740774649678275
-2.2679229928028177
-2.255614048472826
-2.2371506319778245
-2.2740774649678275
-2.335622186617841
-2.255614048472826
-2.286386409297819
-2.249459576307816
-2.2433051041428067
-2.2433051041428067
-2.2740774649678275
-2.304849825792821
-2.304849825792821
-2.249459576307816
-2.3848579639378364
-2.3540856031128428
-2.2925408814628288
-2.255614048472826
-2.4156303247628297
-2.360240075277825
-2.3663945474428347
-2.3417766587828237
-2.3540856031128428
-2.360240075277825
-2.3233132422878215
-2.3110042979578305
-2.347931130947833
-2.3233132422878215
-2.286386409297819
-2.249459576307816
-2.2679229928028177
-2.2925408814628288
-2.4279392690928487
-2.3171587701228398
-2.2925408814628288
-2.3110042979578305
-2.3233132422878215
-2.286386409297819
-2.261768520637808
-2.304849825792821
-2.2925408814628288
-2.2925408814628288
-2.298695353627811
-2.2925408814628288
-1.892500190737778
-2.249459576307816
-2.6925815721878803
-2.4217847969278394
-2.378703491772827
-2.360240075277825
-2.3540856031128428
-2.3540856031128428
-2.3110042979578305
-2.3417766587828237
-2.298695353627811
-2.3171587701228398
-2.335622186617841
-2.3233132422878215
-2.255614048472826
-2.150988021667799
-2.3417766587828237
-2.409475852597848
-2.2802319371328093
-2.2679229928028177
-2.2925408814628288
-2.255614048472826
-2.2679229928028177
-2.2433051041428067
-2.1817603824928202
-2.3540856031128428
-2.2925408814628288
-2.2679229928028177
-2.255614048472826
-2.2371506319778245
-2.4217847969278394
-2.329467714452832
-2.298695353627811
-2.3171587701228398
-2.3233132422878215
-2.3110042979578305
-2.2802319371328093
-2.2802319371328093
-2.255614048472826
-2.249459576307816
-2.378703491772827
-2.2371506319778245
-2.194069326822812
-1.892500190737778
-1.3324432237226955
-2.015589634037779
-2.2433051041428067
-2.286386409297819
-2.286386409297819
-2.255614048472826
-2.2925408814628288
-2.261768520637808
-2.2925408814628288
-2.304849825792821
-2.2740774649678275
-2.2309961598128147
-2.3663945474428347
-2.5387197680628573
-3.006459652602933
-1.6524757763027313
-1.9786628010477763
-2.200223798987821
-2.3110042979578305
-2.8895246814679143
-3.504971897968029
-2.624882378372884
-2.3540856031128428
-2.347931130947833
-2.3540856031128428
-2.329467714452832
-2.2802319371328093
-2.200223798987821
-2.3848579639378364
-2.409475852597848
-2.329467714452832
-2.335622186617841
-2.298695353627811
-2.298695353627811
-2.304849825792821
-2.2371506319778245
-2.3417766587828237
-2.304849825792821
-2.298695353627811
-2.2925408814628288
-2.2802319371328093
-2.249459576307816
-2.2679229928028177
-2.403321380432838
-2.360240075277825
-2.3663945474428347
-2.3540856031128428
-2.3110042979578305
-2.3110042979578305
-2.286386409297819
-2.2925408814628288
-2.3110042979578305
-2.3110042979578305
-2.3171587701228398
-2.261768520637808
-2.194069326822812
-2.1694514381628007
-2.434093741257831
-2.2925408814628288
-2.2802319371328093
-2.347931130947833
-2.2679229928028177
-2.261768520637808
-2.249459576307816
-2.298695353627811
-2.2925408814628288
-2.212532743317813
-2.224841687647805
-2.1571424938328088
-2.120215660842805
-1.5663131659927332
-1.5540042216627135
-2.1694514381628007
-2.249459576307816
-2.2679229928028177
-2.335622186617841
-2.2925408814628288
-2.255614048472826
-1.9171180793977614
-2.2371506319778245
-2.624882378372884
-2.3663945474428347
-1.7694107474377496
-1.3016708628976748
-2.5694921288878514
-3.375727982502991
-2.544874240227868
-2.329467714452832
-2.2925408814628288
-2.3171587701228398
-3.2034027618829675
-3.301874316522985
-2.526410823732866
-2.3848579639378364
-2.3417766587828237
-2.347931130947833
-2.347931130947833
-2.298695353627811
-1.89865466290276
-2.003280689707787
-2.3110042979578305
-2.3171587701228398
-2.3171587701228398
-2.286386409297819
-2.286386409297819
-2.255614048472826
-2.2433051041428067
-2.329467714452832
-2.2802319371328093
-2.298695353627811
-2.3233132422878215
-2.2371506319778245
-2.0463619948628
-1.9294270237277809
-2.224841687647805
-2.2740774649678275
-2.2186872154828228
-2.2371506319778245
-2.261768520637808
-2.2802319371328093
-2.255614048472826
-2.2679229928028177
-2.2925408814628288
-2.304849825792821
-2.3233132422878215
-2.255614048472826
-2.3663945474428347
-2.723353933012873
-2.4587116299178424
-2.2679229928028177
-2.3663945474428347
-2.3848579639378364
-2.372549019607845
-2.3233132422878215
-2.329467714452832
-2.3233132422878215
-1.9786628010477763
-1.2832074464026733
-1.8432644134177558
-2.1263701330077875
-2.200223798987821
-2.2371506319778245
-2.304849825792821
-2.3233132422878215
-2.3233132422878215
-3.184939345387966
-3.277256427862973
-2.5141018794028467
-2.347931130947833
-2.3233132422878215
-2.3233132422878215
-2.335622186617841
-2.3171587701228398
-2.212532743317813
-2.304849825792821
-2.2433051041428067
-2.3663945474428347
-2.3540856031128428
-2.3110042979578305
-2.329467714452832
-2.3540856031128428
-2.3171587701228398
-2.335622186617841
-2.298695353627811
-2.329467714452832
-2.2925408814628288
-2.2679229928028177
-2.261768520637808
-2.2063782711528033
-2.261768520637808
-2.4279392690928487
-2.3110042979578305
-2.2802319371328093
-2.304849825792821
-2.3171587701228398
-2.304849825792821
-2.3417766587828237
-2.304849825792821
-2.3171587701228398
-2.3110042979578305
-2.3171587701228398
-2.2740774649678275
-2.224841687647805
-2.194069326822812
-2.255614048472826
-2.2679229928028177
-2.261768520637808
-2.2679229928028177
-2.2309961598128147
-2.2433051041428067
-2.255614048472826
-2.2063782711528033
-2.1632969659978185
-2.286386409297819
-2.261768520637808
-2.2186872154828228
-2.1632969659978185
-2.070979883522784
-2.298695353627811
-2.1632969659978185
-1.7509473309427481
-2.0955977721827947
-2.483329518577854
-2.2186872154828228
-2.1325246051727973
-2.089443300017785
-2.1079067165127863
-2.052516467027782
-2.070979883522784
-2.1448335495027893
-2.083288827852803
-1.990971745377768
-2.224841687647805
-2.2063782711528033
-2.1694514381628007
-2.1571424938328088
-2.114061188677796
-2.2802319371328093
-2.2186872154828228
-2.175605910327811
-2.1632969659978185
-2.187914854657802
-2.2063782711528033
-2.200223798987821
-2.150988021667799
-1.9971262175427773
-1.9171180793977614
-2.1325246051727973
-2.1571424938328088
-2.194069326822812
-2.2309961598128147
-2.2186872154828228
-2.2186872154828228
-2.175605910327811
-2.2186872154828228
-2.255614048472826
-2.2309961598128147
-2.2371506319778245
-2.224841687647805
-2.255614048472826
-2.667963683527869
-2.4648661020828517
-2.2925408814628288
-2.2802319371328093
-2.2740774649678275
-2.2371506319778245
-2.2433051041428067
-2.1632969659978185
-2.298695353627811
-2.2802319371328093
-2.261768520637808
-2.261768520637808
-2.212532743317813
-2.200223798987821
-2.2063782711528033
-2.150988021667799
-2.187914854657802
-2.1694514381628007
-1.7447928587777384
-0.6062155082525723
-2.064825411357801
-2.1632969659978185
-2.200223798987821
-3.080313318582939
-3.2403295948729705
-2.4894839907428636
-2.3233132422878215
-2.298695353627811
-2.409475852597848
-2.4279392690928487
-2.3171587701228398
-2.249459576307816
-2.3417766587828237
-2.286386409297819
-2.2802319371328093
-2.2740774649678275
-2.298695353627811
-2.3233132422878215
-2.2925408814628288
-2.2679229928028177
-2.2925408814628288
-2.261768520637808
-2.2309961598128147
-2.360240075277825
-2.2740774649678275
-2.298695353627811
-2.3110042979578305
-2.2802319371328093
-2.2925408814628288
-2.298695353627811
-2.3233132422878215
-2.304849825792821
-2.298695353627811
-2.3110042979578305
-1.7817196917677414
-2.3233132422878215
-2.600264489712873
-2.483329518577854
-2.378703491772827
-2.347931130947833
-2.3110042979578305
-2.372549019607845
-2.329467714452832
-2.3848579639378364
-2.3540856031128428
-2.3540856031128428
-2.378703491772827
-2.378703491772827
-2.347931130947833
-2.335622186617841
-2.298695353627811
-2.360240075277825
-2.3848579639378364
-2.3848579639378364
-2.372549019607845
-2.3663945474428347
-2.347931130947833
-2.360240075277825
-2.329467714452832
-2.483329518577854
-2.403321380432838
-2.3417766587828237
-2.0217441062027888
-2.391012436102846
-2.711044988682881
-2.729508405177883
-2.624882378372884
-2.624882378372884
-2.55718318455786
-2.563337656722869
-2.5387197680628573
-2.5141018794028467
-2.526410823732866
-2.581801073217871
-2.624882378372884
-2.68642710002287
-2.6433457948678853
-2.575646601052861
-2.5387197680628573
-2.612573434042864
-2.612573434042864
-2.5325652958978484
-2.55718318455786
-2.612573434042864
-2.587955545382853
-2.55102871239285
-2.495638462907845
-2.446402685587851
-2.4525571577528327
-2.4525571577528327
-2.372549019607845
-2.372549019607845
-2.3663945474428347
-2.4587116299178424
-2.409475852597848
-2.3663945474428347
-2.372549019607845
-2.304849825792821
-2.335622186617841
-2.378703491772827
-2.378703491772827
-2.378703491772827
-2.372549019607845
-2.391012436102846
-2.3663945474428347
-2.2925408814628288
-2.3540856031128428
-2.3663945474428347
-2.4279392690928487
-2.372549019607845
-2.3233132422878215
-2.3110042979578305
-2.304849825792821
-2.2186872154828228
-2.3233132422878215
-2.2740774649678275
-2.3171587701228398
-2.3233132422878215
-2.2925408814628288
-2.2371506319778245
-1.8801912464077586
-1.0062561989776508
-1.7817196917677414
-2.052516467027782
-2.1448335495027893
-2.1632969659978185
-2.138679077337807
-2.175605910327811
-2.2925408814628288
-3.326492205182996
-2.871061264972913
-2.3417766587828237
-2.249459576307816
-2.212532743317813
-2.200223798987821
-2.2309961598128147
-2.2186872154828228
-1.178581419597674
-1.2955163907326928
-2.298695353627811
-2.4587116299178424
-2.286386409297819
-2.286386409297819
-2.304849825792821
-2.6064189618778553
-3.529589786628012
-2.754126293837894
-2.409475852597848
-2.347931130947833
-2.089443300017785
-2.255614048472826
-2.3663945474428347
-2.2433051041428067
-2.3171587701228398
-2.378703491772827
-2.3417766587828237
-2.3540856031128428
-2.335622186617841
-2.3233132422878215
-2.304849825792821
-2.2679229928028177
-2.372549019607845
-2.335622186617841
-2.4217847969278394
-2.55718318455786
-2.360240075277825
-2.335622186617841
-2.3171587701228398
-2.249459576307816
-2.2925408814628288
-2.2802319371328093
-2.304849825792821
-2.286386409297819
-2.298695353627811
-2.2802319371328093
-2.2925408814628288
-2.2679229928028177
-2.2802319371328093
-2.391012436102846
-2.3663945474428347
-2.2802319371328093
-2.255614048472826
-2.2802319371328093
-2.249459576307816
-2.187914854657802
-2.2925408814628288
-2.298695353627811
-2.304849825792821
-2.3417766587828237
-2.378703491772827
-2.378703491772827
-2.200223798987821
-2.3540856031128428
-2.477175046412844
-2.3417766587828237
-2.329467714452832
-2.304849825792821
-2.2802319371328093
-2.255614048472826
-2.2186872154828228
-1.9171180793977614
-2.150988021667799
-2.618727906207874
-2.3540856031128428
-2.2433051041428067
-2.261768520637808
-2.5141018794028467
-2.3233132422878215
-2.329467714452832
-2.347931130947833
-2.2802319371328093
-2.298695353627811
-2.3233132422878215
-2.3233132422878215
-2.2925408814628288
-2.2063782711528033
-2.286386409297819
-2.2740774649678275
-2.194069326822812
-2.0586709391927913
-1.9971262175427773
-2.249459576307816
-2.2063782711528033
-2.175605910327811
-2.304849825792821
-2.261768520637808
-2.2433051041428067
-2.2433051041428067
-2.261768520637808
-2.298695353627811
-2.2433051041428067
-2.2371506319778245
-2.255614048472826
-2.2371506319778245
-2.2371506319778245
-2.3233132422878215
-2.286386409297819
-2.2740774649678275
-2.286386409297819
-2.2740774649678275
-2.2802319371328093
-2.298695353627811
-1.9048091350677696
-1.0493375041326358
-1.8863457185727683
-2.1263701330077875
-2.3233132422878215
-3.38803692683301
-2.871061264972913
-2.4587116299178424
-2.2925408814628288
-2.360240075277825
-2.2433051041428067
-2.2186872154828228
-2.2679229928028177
-2.261768520637808
-2.286386409297819
-2.249459576307816
-2.261768520637808
-2.298695353627811
-2.298695353627811
-2.261768520637808
-2.255614048472826
-2.391012436102846
-2.2925408814628288
-2.2802319371328093
-2.3110042979578305
-2.261768520637808
-2.2433051041428067
-2.286386409297819
-2.2371506319778245
-2.329467714452832
-2.3233132422878215
-2.2740774649678275
-2.2740774649678275
-2.2679229928028177
-2.1632969659978185
-2.347931130947833
-2.2679229928028177
-2.3540856031128428
-2.3233132422878215
-2.2679229928028177
-2.2679229928028177
-2.298695353627811
-2.2802319371328093
-2.2679229928028177
-2.2925408814628288
-2.3233132422878215
-2.3110042979578305
-2.298695353627811
-2.261768520637808
-2.403321380432838
-2.360240075277825
-2.2740774649678275
-2.187914854657802
-2.304849825792821
-2.2679229928028177
-2.2679229928028177
-2.2433051041428067
-2.249459576307816
-2.2740774649678275
-2.2740774649678275
-2.249459576307816
-2.261768520637808
-2.150988021667799
-2.2433051041428067
-1.8863457185727683
-2.2063782711528033
-2.618727906207874
-2.3663945474428347
-2.2925408814628288
-2.3110042979578305
-2.304849825792821
-2.3171587701228398
-2.3233132422878215
-2.304849825792821
-2.3110042979578305
-2.298695353627811
-2.200223798987821
-2.175605910327811
-2.304849825792821
-2.329467714452832
-2.3110042979578305
-2.2679229928028177
-2.2802319371328093
-2.255614048472826
-2.304849825792821
-2.2802319371328093
-2.2433051041428067
-2.2186872154828228
-2.2371506319778245
-2.2309961598128147
-2.200223798987821
-2.3171587701228398
-2.3417766587828237
-2.187914854657802
-2.1448335495027893
-2.1632969659978185
-2.1632969659978185
-2.1817603824928202
-2.1325246051727973
-2.1632969659978185
-2.212532743317813
-2.1694514381628007
-2.194069326822812
-2.1632969659978185
-2.083288827852803
-2.1694514381628007
-2.2679229928028177
-2.175605910327811
-2.286386409297819
-2.2186872154828228
-2.1817603824928202
-2.2063782711528033
-2.200223798987821
-2.2186872154828228
-2.2186872154828228
-2.2186872154828228
-2.255614048472826
-2.212532743317813
-2.1325246051727973
-2.1632969659978185
-2.298695353627811
-2.2309961598128147
-2.015589634037779
-1.1724269474326645
-1.4555326670226965
-1.966353856717784
-2.1263701330077875
-2.2186872154828228
-2.2802319371328093
-2.304849825792821
-2.575646601052861
-3.554207675288024
-2.778744182497905
-2.55102871239285
-2.618727906207874
-2.3848579639378364
-2.298695353627811
-2.298695353627811
-2.255614048472826
-2.2679229928028177
-2.2679229928028177
-2.3110042979578305
-2.3540856031128428
-2.298695353627811
-2.261768520637808
-2.286386409297819
-2.1817603824928202
-2.120215660842805
-2.2433051041428067
-2.2740774649678275
-2.2679229928028177
-2.2740774649678275
-2.255614048472826
-2.2371506319778245
-2.212532743317813
-2.212532743317813
-2.200223798987821
-2.1817603824928202
-2.212532743317813
-2.2186872154828228
-2.194069326822812
-2.1325246051727973
-2.2309961598128147
-2.403321380432838
-2.3233132422878215
-2.3110042979578305
-2.304849825792821
-2.3110042979578305
-2.298695353627811
-2.2740774649678275
-2.2802319371328093
-2.378703491772827
-2.329467714452832
-2.3110042979578305
-2.255614048472826
-2.2063782711528033
-2.3233132422878215
-2.2740774649678275
-2.224841687647805
-2.298695353627811
-2.2679229928028177
-2.2433051041428067
-2.2802319371328093
-2.2679229928028177
-2.2679229928028177
-2.200223798987821
-1.8371099412527454
-2.212532743317813
-2.575646601052861
-2.200223798987821
-2.3233132422878215
-2.378703491772827
-2.3110042979578305
-1.830955469087764
-2.3171587701228398
-2.6064189618778553
-2.3540856031128428
-2.3417766587828237
-2.2802319371328093
-2.304849825792821
-2.286386409297819
-2.2802319371328093
-2.224841687647805
-2.2433051041428067
-2.347931130947833
-2.335622186617841
-2.2740774649678275
-2.2679229928028177
-2.298695353627811
-1.7509473309427481
-1.0924188092876486
-2.1448335495027893
-2.255614048472826
-2.2679229928028177
-2.249459576307816
-2.255614048472826
-2.261768520637808
-3.1233946237379517
-3.289565372192993
-2.495638462907845
-2.3171587701228398
-2.2433051041428067
-2.255614048472826
-2.2371506319778245
-2.2371506319778245
-2.2186872154828228
-2.298695353627811
-2.255614048472826
-2.255614048472826
-2.2186872154828228
-2.200223798987821
-2.150988021667799
-2.175605910327811
-2.3233132422878215
-2.2679229928028177
-2.2309961598128147
-2.2309961598128147
-2.2433051041428067
-2.255614048472826
-2.2063782711528033
-2.200223798987821
-2.255614048472826
-2.261768520637808
-2.224841687647805
-1.892500190737778
-1.0431830319676536
-1.7940286360977609
-2.1448335495027893
-2.544874240227868
-3.492662953638009
-2.6618092113628857
-2.335622186617841
-2.249459576307816
-2.212532743317813
-2.224841687647805
-2.2371506319778245
-2.1817603824928202
-2.212532743317813
-2.1694514381628007
-2.150988021667799
-2.138679077337807
-2.298695353627811
-2.249459576307816
-2.2063782711528033
-2.175605910327811
-2.2679229928028177
-2.2371506319778245
-2.329467714452832
-2.1263701330077875
-2.1571424938328088
-2.2371506319778245
-2.2309961598128147
-2.194069326822812
-2.249459576307816
-2.255614048472826
-2.304849825792821
-2.2186872154828228
-2.2371506319778245
-2.224841687647805
-2.212532743317813
-2.175605910327811
-2.2740774649678275
-2.2433051041428067
-2.261768520637808
-2.2371506319778245
-2.2433051041428067
-2.2371506319778245
-2.2309961598128147
-2.114061188677796
-2.2309961598128147
-2.2925408814628288
-2.286386409297819
-2.249459576307816
-2.249459576307816
-2.2740774649678275
-2.2371506319778245
-2.2740774649678275
-2.3417766587828237
-2.2802319371328093
-2.286386409297819
-2.286386409297819
-2.2679229928028177
-2.1571424938328088
-2.4402482134228407
-2.347931130947833
-2.2802319371328093
-2.2679229928028177
-2.2433051041428067
-1.89865466290276
-2.2186872154828228
-2.55718318455786
-2.200223798987821
-2.224841687647805
-2.1817603824928202
-2.187914854657802
-2.212532743317813
-2.2309961598128147
-2.446402685587851
-2.403321380432838
-2.3417766587828237
-2.403321380432838
-2.3848579639378364
-2.335622186617841
-2.3110042979578305
-2.3110042979578305
-2.304849825792821
-2.286386409297819
-2.261768520637808
-2.3233132422878215
-2.2925408814628288
-2.2309961598128147
-2.2433051041428067
-2.261768520637808
-2.249459576307816
-2.261768520637808
-2.2309961598128147
-2.329467714452832
-2.2802319371328093
-2.2925408814628288
-2.3171587701228398
-2.286386409297819
-2.304849825792821
-2.255614048472826
-2.1632969659978185
-2.224841687647805
-2.194069326822812
-2.3540856031128428
-2.261768520637808
-2.255614048472826
-2.2740774649678275
-2.2309961598128147
-2.261768520637808
-2.3110042979578305
-2.2740774649678275
-2.2925408814628288
-2.2925408814628288
-2.255614048472826
-2.187914854657802
-2.187914854657802
-2.150988021667799
-2.329467714452832
-2.2433051041428067
-2.2679229928028177
-2.261768520637808
-2.2740774649678275
-2.249459576307816
-1.9417359680577726
-1.0801098649576568
-1.861727829912757
-2.150988021667799
-2.2309961598128147
-2.1817603824928202
-2.187914854657802
-2.3110042979578305
-3.0864677907479487
-3.4434271763180146
-2.5325652958978484
-2.3417766587828237
-2.329467714452832
-2.3110042979578305
-2.3233132422878215
-2.2802319371328093
-2.200223798987821
-2.378703491772827
-2.3171587701228398
-2.255614048472826
-2.2309961598128147
-2.138679077337807
-2.347931130947833
-2.249459576307816
-2.224841687647805
-2.2679229928028177
-2.286386409297819
-2.2802319371328093
-2.2802319371328093
-2.2740774649678275
-2.261768520637808
-2.261768520637808
-2.249459576307816
-2.2925408814628288
-2.261768520637808
-2.2925408814628288
-2.3233132422878215
-2.3171587701228398
-2.2802319371328093
-2.212532743317813
-2.249459576307816
-2.3417766587828237
-2.304849825792821
-2.255614048472826
-2.2679229928028177
-2.2740774649678275
-2.249459576307816
-2.224841687647805
-2.1571424938328088
-2.138679077337807
-2.304849825792821
-2.298695353627811
-2.261768520637808
-2.255614048472826
-2.261768520637808
-2.3171587701228398
-2.261768520637808
-2.255614048472826
-2.286386409297819
-2.2679229928028177
-2.261768520637808
-2.2679229928028177
-2.224841687647805
-2.2186872154828228
-2.052516467027782
-2.304849825792821
-2.6371913227028756
-2.409475852597848
-2.3171587701228398
-2.2740774649678275
-2.175605910327811
-2.2740774649678275
-2.391012436102846
-2.329467714452832
-2.304849825792821
-2.335622186617841
-2.304849825792821
-2.2186872154828228
-2.200223798987821
-2.2740774649678275
-2.3663945474428347
-2.298695353627811
-2.2802319371328093
-2.2679229928028177
-2.2802319371328093
-2.304849825792821
-2.2740774649678275
-2.2740774649678275
-2.329467714452832
-2.298695353627811
-2.261768520637808
-2.2371506319778245
-2.3171587701228398
-2.335622186617841
-2.2740774649678275
-2.2433051041428067
-2.378703491772827
-2.3417766587828237
-2.335622186617841
-2.335622186617841
-2.329467714452832
-2.3110042979578305
-2.286386409297819
-2.3171587701228398
-2.3540856031128428
-2.298695353627811
-2.304849825792821
-2.3848579639378364
-2.360240075277825
-2.329467714452832
-2.3540856031128428
-2.3110042979578305
-2.3233132422878215
-2.329467714452832
-2.304849825792821
-2.3233132422878215
-2.3233132422878215
-2.3417766587828237
-2.2802319371328093
-2.329467714452832
-2.329467714452832
-2.471020574247862
-2.04020752269779
-1.1970448360926755
-1.9232725515627715
-2.2063782711528033
-2.9510694031179288
-3.437272704153005
-2.6064189618778553
-2.409475852597848
-2.3848579639378364
-2.3233132422878215
-2.2740774649678275
-2.224841687647805
-1.7201749701177547
-1.9478904402227823
-2.2371506319778245
-2.3110042979578305
-2.372549019607845
-2.409475852597848
-2.372549019607845
-2.335622186617841
-2.347931130947833
-2.3971669082678284
-2.372549019607845
-2.391012436102846
-2.3540856031128428
-2.3233132422878215
-2.9202970422929075
-3.184939345387966
-2.520256351567857
-2.4402482134228407
-2.347931130947833
-2.335622186617841
-2.335622186617841
-2.3417766587828237
-2.335622186617841
-2.194069326822812
-1.578622110322725
-1.11088222578265
-1.990971745377768
-2.501792935072855
-2.0278985783677985
-1.9232725515627715
-2.1817603824928202
-2.55718318455786
-3.511126370133011
-2.772589710332896
-2.4217847969278394
-2.3110042979578305
-2.298695353627811
-2.3171587701228398
-2.298695353627811
-2.200223798987821
-2.3233132422878215
-2.360240075277825
-2.3171587701228398
-2.391012436102846
-2.329467714452832
-2.298695353627811
-2.304849825792821
-2.2433051041428067
-2.335622186617841
-2.298695353627811
-2.286386409297819
-2.261768520637808
-2.2371506319778245
-2.2925408814628288
-2.2679229928028177
-2.187914854657802
-2.224841687647805
-2.3971669082678284
-2.3971669082678284
-2.2802319371328093
-2.249459576307816
-2.2740774649678275
-2.2740774649678275
-2.2679229928028177
-2.3171587701228398
-2.298695353627811
-2.286386409297819
-2.329467714452832
-2.286386409297819
-2.2309961598128147
-2.286386409297819
-2.4156303247628297
-2.4279392690928487
-2.3171587701228398
-2.3233132422878215
-2.298695353627811
-2.286386409297819
-2.2802319371328093
-2.2802319371328093
-2.304849825792821
-2.3110042979578305
-2.286386409297819
-2.329467714452832
-2.2740774649678275
-2.1571424938328088
-1.9478904402227823
-2.212532743317813
-2.0340530505327803
-2.064825411357801
-2.631036850537866
-2.4279392690928487
-2.3417766587828237
-2.3171587701228398
-2.298695353627811
-2.2740774649678275
-2.3417766587828237
-2.3417766587828237
-2.2925408814628288
-2.175605910327811
-2.212532743317813
-2.4587116299178424
-2.304849825792821
-2.2433051041428067
-2.3171587701228398
-2.3233132422878215
-2.2925408814628288
-2.2740774649678275
-2.298695353627811
-2.304849825792821
-2.2802319371328093
-1.8432644134177558
-0.7108415350575992
-2.187914854657802
-2.249459576307816
-2.4156303247628297
-2.2679229928028177
-2.286386409297819
-2.3233132422878215
-3.184939345387966
-3.3203377330179857
-2.526410823732866
-2.4217847969278394
-2.3848579639378364
-2.3417766587828237
-2.3540856031128428
-2.3540856031128428
-2.2925408814628288
-2.249459576307816
-2.446402685587851
-2.3848579639378364
-2.3663945474428347
-2.329467714452832
-2.3171587701228398
-2.329467714452832
-2.335622186617841
-2.3540856031128428
-2.3417766587828237
-2.329467714452832
-2.3110042979578305
-2.298695353627811
-2.2802319371328093
-1.990971745377768
-1.954044912387765
-2.2433051041428067
-2.2925408814628288
-2.329467714452832
-2.298695353627811
-2.3171587701228398
-2.304849825792821
-2.3540856031128428
-2.286386409297819
-2.2802319371328093
-2.2802319371328093
-2.304849825792821
-2.329467714452832
-2.526410823732866
-2.8095165433228986
-2.434093741257831
-2.3848579639378364
-2.335622186617841
-2.286386409297819
-2.3110042979578305
-2.3417766587828237
-2.329467714452832
-2.3171587701228398
-2.329467714452832
-2.372549019607845
-2.347931130947833
-2.2925408814628288
-2.1325246051727973
-1.855573357747775
-2.175605910327811
-2.2433051041428067
-2.2063782711528033
-1.9848172732127856
-2.329467714452832
-2.655654739197877
-2.409475852597848
-2.3417766587828237
-2.347931130947833
-2.298695353627811
-2.2740774649678275
-2.3110042979578305
-2.4217847969278394
-2.797207598992907
-2.4587116299178424
-2.335622186617841
-2.3110042979578305
-2.2371506319778245
-2.2433051041428067
-2.3110042979578305
-2.3417766587828237
-2.391012436102846
-2.3848579639378364
-2.403321380432838
-2.409475852597848
-2.3663945474428347
-2.329467714452832
-2.409475852597848
-2.403321380432838
-2.347931130947833
-2.3663945474428347
-2.3171587701228398
-2.335622186617841
-2.360240075277825
-2.3171587701228398
-2.286386409297819
-2.3417766587828237
-2.378703491772827
-2.360240075277825
-2.3233132422878215
-2.329467714452832
-2.3540856031128428
-2.4648661020828517
-2.391012436102846
-2.3417766587828237
-2.3540856031128428
-2.3663945474428347
-2.3540856031128428
-2.378703491772827
-2.409475852597848
-2.4525571577528327
-2.409475852597848
-2.403321380432838
-2.391012436102846
-2.329467714452832
-2.2309961598128147
-2.446402685587851
-2.335622186617841
-2.4156303247628297
-2.347931130947833
-2.2925408814628288
-2.003280689707787
-1.2278171969176688
-1.9294270237277809
-2.2186872154828228
-3.2218661783779687
-3.258793011367972
-2.507947407237865
-2.3233132422878215
-2.304849825792821
-2.477175046412844
-2.372549019607845
-2.335622186617841
-2.2925408814628288
-2.4402482134228407
-2.3971669082678284
-2.335622186617841
-2.347931130947833
-2.372549019607845
-2.360240075277825
-2.3540856031128428
-2.360240075277825
-2.391012436102846
-2.298695353627811
-2.4894839907428636
-2.378703491772827
-2.335622186617841
-2.3663945474428347
-2.391012436102846
-2.347931130947833
-2.3233132422878215
-2.360240075277825
-2.378703491772827
-2.329467714452832
-2.3233132422878215
-2.378703491772827
-2.286386409297819
-2.212532743317813
-2.4525571577528327
-2.4648661020828517
-2.4156303247628297
-2.372549019607845
-2.3540856031128428
-2.372549019607845
-2.329467714452832
-2.4217847969278394
-2.378703491772827
-2.403321380432838
-2.3971669082678284
-2.360240075277825
-2.3848579639378364
-2.200223798987821
-2.3110042979578305
-2.4525571577528327
-2.347931130947833
-2.298695353627811
-2.298695353627811
-2.298695353627811
-2.2802319371328093
-2.2740774649678275
-2.2371506319778245
-2.3663945474428347
-2.3110042979578305
-2.2925408814628288
-2.224841687647805
-1.91096360723278
-2.618727906207874
-2.723353933012873
-2.3848579639378364
-2.4587116299178424
-2.3110042979578305
-2.261768520637808
-2.3171587701228398
-2.378703491772827
-2.360240075277825
-2.249459576307816
-2.298695353627811
-2.4217847969278394
-2.329467714452832
-2.138679077337807
-1.9601993845527748
-2.261768520637808
-2.304849825792821
-2.261768520637808
-2.255614048472826
-2.3540856031128428
-2.329467714452832
-2.2679229928028177
-2.261768520637808
-2.329467714452832
-2.347931130947833
-1.972508328882766
-2.360240075277825
-2.5694921288878514
-2.3663945474428347
-2.4402482134228407
-2.372549019607845
-2.372549019607845
-2.3663945474428347
-2.2433051041428067
-2.372549019607845
-2.409475852597848
-2.3971669082678284
-2.3848579639378364
-2.3417766587828237
-2.378703491772827
-2.3971669082678284
-1.9171180793977614
-1.3324432237226955
-1.990971745377768
-2.255614048472826
-2.304849825792821
-2.335622186617841
-2.3233132422878215
-2.391012436102846
-3.301874316522985
-3.344955621677997
-2.55102871239285
-2.409475852597848
-2.4402482134228407
-2.391012436102846
-2.3171587701228398
-2.249459576307816
-2.04020752269779
-0.9324025329976448
-2.261768520637808
-2.3233132422878215
-2.3417766587828237
-2.3110042979578305
-2.2925408814628288
-2.4587116299178424
-3.578825563948035
-3.049540957757918
-2.4648661020828517
-2.3971669082678284
-2.3540856031128428
-2.2802319371328093
-2.4156303247628297
-2.378703491772827
-2.360240075277825
-2.3171587701228398
-2.2740774649678275
-2.2679229928028177
-2.372549019607845
-2.409475852597848
-2.378703491772827
-2.4156303247628297
-2.471020574247862
-2.403321380432838
-2.347931130947833
-1.818646524757745
-1.5970855268177266
-2.187914854657802
-2.255614048472826
-2.2740774649678275
-2.286386409297819
-2.2679229928028177
-2.298695353627811
-2.2925408814628288
-2.2925408814628288
-2.3417766587828237
-2.3417766587828237
-2.224841687647805
-2.286386409297819
-2.754126293837894
-3.1972482897179852
-2.55718318455786
-2.378703491772827
-2.360240075277825
-2.347931130947833
-2.3110042979578305
-2.3233132422878215
-2.3110042979578305
-2.329467714452832
-2.286386409297819
-2.2740774649678275
-2.304849825792821
-2.286386409297819
-2.1817603824928202
-2.2063782711528033
-2.3233132422878215
-2.3417766587828237
-2.347931130947833
-2.304849825792821
-2.304849825792821
-2.347931130947833
-2.3233132422878215
-1.9294270237277809
-2.3171587701228398
-2.667963683527869
-2.4525571577528327
-2.329467714452832
-2.2925408814628288
-2.4217847969278394
-2.4587116299178424
-2.347931130947833
-2.3171587701228398
-2.335622186617841
-2.372549019607845
-2.3417766587828237
-2.3417766587828237
-2.372549019607845
-2.3417766587828237
-2.286386409297819
-2.2925408814628288
-2.2740774649678275
-2.298695353627811
-2.3663945474428347
-2.403321380432838
-2.304849825792821
-2.3663945474428347
-2.3971669082678284
-2.3540856031128428
-2.3110042979578305
-2.347931130947833
-2.372549019607845
-2.335622186617841
-2.304849825792821
-2.4279392690928487
-2.3848579639378364
-2.3663945474428347
-2.575646601052861
-2.587955545382853
-2.446402685587851
-2.3663945474428347
-2.2802319371328093
-2.403321380432838
-2.409475852597848
-2.360240075277825
-2.347931130947833
-2.360240075277825
-2.372549019607845
-2.3417766587828237
-2.304849825792821
-2.3540856031128428
-2.1817603824928202
-2.4156303247628297
-2.372549019607845
-2.360240075277825
-2.372549019607845
-2.372549019607845
-2.3540856031128428
-2.378703491772827
-2.3848579639378364
-2.3848579639378364
-2.0217441062027888
-1.2462806134126705
-1.9478904402227823
-2.3110042979578305
-3.381882454668
-2.9879962361079313
-2.471020574247862
-2.409475852597848
-2.3540856031128428
-2.3233132422878215
-2.329467714452832
-2.3233132422878215
-2.329467714452832
-2.3417766587828237
-2.3971669082678284
-2.4156303247628297
-2.3663945474428347
-2.304849825792821
-2.2186872154828228
-2.4217847969278394
-2.4525571577528327
-2.3971669082678284
-2.347931130947833
-2.360240075277825
-2.3848579639378364
-2.3540856031128428
-2.3110042979578305
-2.335622186617841
-2.378703491772827
-2.3417766587828237
-2.329467714452832
-2.3417766587828237
-2.261768520637808
-2.4279392690928487
-2.335622186617841
-2.224841687647805
-2.391012436102846
-2.3171587701228398
-2.286386409297819
-2.286386409297819
-2.3171587701228398
-2.3110042979578305
-2.2740774649678275
-2.255614048472826
-2.3233132422878215
-2.2679229928028177
-2.2186872154828228
-2.2740774649678275
-2.3171587701228398
-2.298695353627811
-2.249459576307816
-2.249459576307816
-2.3171587701228398
-2.3171587701228398
-2.3110042979578305
-2.261768520637808
-2.298695353627811
-2.347931130947833
-2.2925408814628288
-2.2309961598128147
-2.3171587701228398
-2.360240075277825
-2.329467714452832
-2.298695353627811
-1.8001831082627426
-2.3171587701228398
-2.5941100175478624
-2.3233132422878215
-2.3110042979578305
-2.298695353627811
-2.286386409297819
-2.2371506319778245
-2.261768520637808
-2.255614048472826
-2.261768520637808
-2.2740774649678275
-2.298695353627811
-2.335622186617841
-2.3171587701228398
-2.2679229928028177
-2.2433051041428067
-2.2371506319778245
-2.2063782711528033
-2.2309961598128147
-2.2186872154828228
-2.2679229928028177
-2.3233132422878215
-2.286386409297819
-2.261768520637808
-2.347931130947833
-2.4402482134228407
-2.446402685587851
-2.3971669082678284
-2.3417766587828237
-2.335622186617841
-2.3171587701228398
-2.261768520637808
-2.2802319371328093
-2.261768520637808
-2.3233132422878215
-2.304849825792821
-2.2371506319778245
-2.298695353627811
-2.335622186617841
-2.360240075277825
-2.261768520637808
-2.298695353627811
-2.4217847969278394
-2.3540856031128428
-2.298695353627811
-2.298695353627811
-2.3110042979578305
-2.255614048472826
-2.2309961598128147
-2.261768520637808
-2.2925408814628288
-2.261768520637808
-2.194069326822812
-2.4279392690928487
-2.347931130947833
-2.335622186617841
-2.261768520637808
-1.9601993845527748
-1.2031993082576575
-1.9232725515627715
-2.187914854657802
-2.2309961598128147
-2.249459576307816
-2.261768520637808
-2.55102871239285
-3.468045064977998
-2.6371913227028756
-2.4587116299178424
-2.3848579639378364
-2.286386409297819
-2.286386409297819
-2.335622186617841
-2.2802319371328093
-2.286386409297819
-2.298695353627811
-2.372549019607845
-2.3663945474428347
-2.298695353627811
-2.3110042979578305
-2.329467714452832
-2.0217441062027888
-1.9971262175427773
-2.249459576307816
-2.304849825792821
-2.2802319371328093
-2.2679229928028177
-2.255614048472826
-2.286386409297819
-2.298695353627811
-2.304849825792821
-2.261768520637808
-2.298695353627811
-2.3110042979578305
-2.255614048472826
-2.378703491772827
-2.680272627857888
-2.434093741257831
-2.335622186617841
-2.2925408814628288
-2.335622186617841
-2.3540856031128428
-2.3540856031128428
-2.2925408814628288
-2.286386409297819
-2.2802319371328093
-2.3848579639378364
-2.329467714452832
-2.2433051041428067
-2.200223798987821
-2.483329518577854
-2.477175046412844
-2.1632969659978185
-0.8216220340276081
-1.5970855268177266
-2.409475852597848
-2.4648661020828517
-2.329467714452832
-2.3171587701228398
-2.3171587701228398
-2.6064189618778553
-3.578825563948035
-2.8464433763129016
-2.335622186617841
-2.1571424938328088
-2.3540856031128428
-2.391012436102846
-2.360240075277825
-2.2925408814628288
-2.335622186617841
-2.391012436102846
-2.3540856031128428
-2.329467714452832
-2.3110042979578305
-2.329467714452832
-2.3233132422878215
-2.2433051041428067
-2.2740774649678275
-2.175605910327811
-2.329467714452832
-2.298695353627811
-2.3233132422878215
-2.335622186617841
-2.3233132422878215
-2.329467714452832
-2.3233132422878215
-2.2925408814628288
-2.391012436102846
-2.3417766587828237
-2.3110042979578305
-2.3233132422878215
-2.3971669082678284
-2.4894839907428636
-2.434093741257831
-2.3417766587828237
-2.360240075277825
-2.3848579639378364
-2.3540856031128428
-2.329467714452832
-2.3663945474428347
-2.304849825792821
-2.4156303247628297
-2.335622186617841
-2.3663945474428347
-2.3663945474428347
-2.298695353627811
-2.3233132422878215
-2.5694921288878514
-2.4279392690928487
-2.360240075277825
-2.3110042979578305
-2.3233132422878215
-2.3663945474428347
-2.378703491772827
-2.3110042979578305
-2.298695353627811
-2.0217441062027888
-2.194069326822812
-2.6925815721878803
-2.403321380432838
-1.9355814958927628
-1.0616464484626553
-2.286386409297819
-2.3233132422878215
-3.6034434526080172
-2.994150708272913
-2.4402482134228407
-2.347931130947833
-2.372549019607845
-2.372549019607845
-2.3110042979578305
-2.2309961598128147
-2.298695353627811
-2.347931130947833
-2.194069326822812
-2.409475852597848
-2.3663945474428347
-2.391012436102846
-2.3540856031128428
-2.2309961598128147
-2.335622186617841
-2.378703491772827
-2.3417766587828237
-2.286386409297819
-2.2740774649678275
-2.3233132422878215
-2.2925408814628288
-2.2063782711528033
-2.1017522443478045
-2.2371506319778245
-2.3417766587828237
-2.304849825792821
-2.3233132422878215
-2.3417766587828237
-2.360240075277825
-2.3110042979578305
-2.298695353627811
-2.335622186617841
-2.3540856031128428
-2.304849825792821
-2.249459576307816
-2.224841687647805
-2.2740774649678275
-2.409475852597848
-2.3171587701228398
-2.2802319371328093
-2.2925408814628288
-2.261768520637808
-2.2433051041428067
-2.255614048472826
-2.2802319371328093
-2.3233132422878215
-2.2740774649678275
-2.261768520637808
-2.3110042979578305
-2.3171587701228398
-2.224841687647805
-2.224841687647805
-2.329467714452832
-2.304849825792821
-2.224841687647805
-2.255614048472826
-2.2925408814628288
-2.2433051041428067
-1.8740367742427766
-2.2433051041428067
-2.600264489712873
-2.3971669082678284
-2.3171587701228398
-2.2371506319778245
-2.2186872154828228
-2.526410823732866
-2.563337656722869
-2.298695353627811
-2.175605910327811
-2.372549019607845
-2.4587116299178424
-2.224841687647805
-2.2371506319778245
-2.2802319371328093
-2.298695353627811
-2.286386409297819
-2.2371506319778245
-2.347931130947833
-2.2740774649678275
-1.954044912387765
-2.224841687647805
-2.2925408814628288
-2.3110042979578305
-2.2740774649678275
-2.2186872154828228
-2.391012436102846
-2.3417766587828237
-2.298695353627811
-2.2802319371328093
-2.298695353627811
-2.335622186617841
-2.335622186617841
-2.2433051041428067
-2.249459576307816
-2.520256351567857
-2.391012436102846
-2.3110042979578305
-2.304849825792821
-2.347931130947833
-2.298695353627811
-2.298695353627811
-2.360240075277825
-2.3110042979578305
-2.335622186617841
-2.3110042979578305
-2.2740774649678275
-2.286386409297819
-2.2433051041428067
-2.434093741257831
-2.3110042979578305
-2.2925408814628288
-2.3233132422878215
-2.304849825792821
-2.2925408814628288
-2.286386409297819
-2.249459576307816
-1.9232725515627715
-0.7416138958825924
-2.1632969659978185
-2.2063782711528033
-2.2186872154828228
-1.6709391927977324
-1.5232318608377204
-2.729508405177883
-3.38803692683301
-2.483329518577854
-2.2679229928028177
-2.2802319371328093
-2.2925408814628288
-2.2679229928028177
-2.2063782711528033
-2.1694514381628007
-2.2802319371328093
-2.2433051041428067
-2.224841687647805
-2.772589710332896
-3.1972482897179852
-2.507947407237865
-2.3110042979578305
-2.286386409297819
-2.347931130947833
-2.304849825792821
-2.2679229928028177
-2.2802319371328093
-2.3233132422878215
-2.304849825792821
-2.2679229928028177
-2.286386409297819
-2.2802319371328093
-2.175605910327811
-2.1817603824928202
-2.2433051041428067
-2.304849825792821
-2.3233132422878215
-2.2740774649678275
-2.255614048472826
-2.3233132422878215
-2.304849825792821
-2.2679229928028177
-2.249459576307816
-2.2371506319778245
-2.286386409297819
-2.2740774649678275
-2.212532743317813
-2.2679229928028177
-2.335622186617841
-2.3233132422878215
-2.3417766587828237
-2.3171587701228398
-2.3663945474428347
-2.391012436102846
-2.3663945474428347
-2.3540856031128428
-2.3663945474428347
-2.360240075277825
-2.335622186617841
-2.3233132422878215
-2.347931130947833
-2.4279392690928487
-2.3848579639378364
-1.9478904402227823
-2.3110042979578305
-2.711044988682881
-2.4217847969278394
-2.329467714452832
-2.3233132422878215
-2.286386409297819
-2.3417766587828237
-2.2679229928028177
-2.255614048472826
-2.255614048472826
-2.114061188677796
-1.2955163907326928
-1.7447928587777384
-2.120215660842805
-2.2371506319778245
-2.2679229928028177
-2.2679229928028177
-2.3110042979578305
-2.3417766587828237
-2.3663945474428347
-2.409475852597848
-2.3848579639378364
-2.4156303247628297
-2.360240075277825
-2.3663945474428347
-3.492662953638009
-3.2218661783779687
-2.471020574247862
-2.403321380432838
-2.446402685587851
-2.329467714452832
-2.372549019607845
-2.347931130947833
-2.391012436102846
-2.3971669082678284
-2.360240075277825
-2.249459576307816
-2.298695353627811
-2.3110042979578305
-1.830955469087764
-1.990971745377768
-2.224841687647805
-2.2925408814628288
-2.304849825792821
-2.3171587701228398
-2.2802319371328093
-2.3171587701228398
-2.3540856031128428
-2.347931130947833
-2.3171587701228398
-2.335622186617841
-2.360240075277825
-2.304849825792821
-2.2186872154828228
-2.501792935072855
-2.4156303247628297
-2.3233132422878215
-1.9601993845527748
-1.141654586607671
-1.91096360723278
-2.1263701330077875
-2.04020752269779
-2.5141018794028467
-2.3233132422878215
-2.3171587701228398
-2.286386409297819
-2.212532743317813
-2.138679077337807
-3.258793011367972
-3.381882454668
-2.501792935072855
-2.3663945474428347
-2.329467714452832
-2.286386409297819
-2.286386409297819
-2.2679229928028177
-2.2679229928028177
-2.2925408814628288
-2.2802319371328093
-2.2925408814628288
-2.2740774649678275
-2.187914854657802
-2.3171587701228398
-2.3233132422878215
-2.3171587701228398
-2.2740774649678275
-2.2309961598128147
-2.2679229928028177
-2.3110042979578305
-2.304849825792821
-2.2309961598128147
-2.2433051041428067
-2.2802319371328093
-2.304849825792821
-2.2679229928028177
-2.2063782711528033
-2.360240075277825
-2.360240075277825
-2.286386409297819
-2.286386409297819
-2.2740774649678275
-2.286386409297819
-2.2925408814628288
-2.2679229928028177
-2.2802319371328093
-2.2679229928028177
-2.255614048472826
-2.2063782711528033
-2.224841687647805
-2.2186872154828228
-2.2433051041428067
-2.255614048472826
-2.2679229928028177
-2.304849825792821
-2.261768520637808
-2.2063782711528033
-2.2740774649678275
-2.2925408814628288
-2.2802319371328093
-2.224841687647805
-2.224841687647805
-2.2925408814628288
-2.249459576307816
-2.1017522443478045
-1.7386383866127564
-2.3848579639378364
-2.544874240227868
-2.2679229928028177
-2.2433051041428067
-2.2740774649678275
-2.2679229928028177
-2.2309961598128147
-2.2433051041428067
-2.2433051041428067
-2.2740774649678275
-2.2309961598128147
-2.212532743317813
-2.187914854657802
-2.2371506319778245
-2.304849825792821
-2.304849825792821
-2.2309961598128147
-2.2309961598128147
-2.2433051041428067
-2.187914854657802
-2.200223798987821
-2.2802319371328093
-2.1017522443478045
-2.1263701330077875
-2.1448335495027893
-2.1448335495027893
-2.150988021667799
-2.1017522443478045
-2.1694514381628007
-2.1263701330077875
-2.1263701330077875
-2.064825411357801
-2.0463619948628
-2.083288827852803
-2.1017522443478045
-2.089443300017785
-2.003280689707787
-2.0340530505327803
-2.114061188677796
-2.0278985783677985
-1.9786628010477763
-1.966353856717784
-2.1448335495027893
-2.114061188677796
-2.0278985783677985
-1.9294270237277809
-2.0586709391927913
-2.077134355687793
-2.0217441062027888
-2.04020752269779
-2.015589634037779
-2.064825411357801
-2.0217441062027888
-1.9417359680577726
-1.7078660257877356
-0.5569797309325777
-2.089443300017785
-2.1263701330077875
-2.1448335495027893
-2.175605910327811
-2.1448335495027893
-3.055695429922928
-3.0680043742529195
-2.3971669082678284
-2.2679229928028177
-2.187914854657802
-2.200223798987821
-2.224841687647805
-2.1817603824928202
-2.083288827852803
-2.2309961598128147
-2.2740774649678275
-2.224841687647805
-2.1632969659978185
-2.194069326822812
-2.249459576307816
-2.224841687647805
-2.1817603824928202
-2.2371506319778245
-2.2186872154828228
-2.2309961598128147
-2.2309961598128147
-2.1817603824928202
-2.1263701330077875
-2.187914854657802
-2.194069326822812
-2.1694514381628007
-2.150988021667799
-2.224841687647805
-2.2433051041428067
-2.2371506319778245
-2.255614048472826
-2.3663945474428347
-2.329467714452832
-2.2679229928028177
-2.2309961598128147
-2.2371506319778245
-2.2679229928028177
-2.3417766587828237
-2.286386409297819
-2.2309961598128147
-2.2925408814628288
-2.249459576307816
-2.2371506319778245
-2.255614048472826
-2.2802319371328093
-2.255614048472826
-2.224841687647805
-2.194069326822812
-2.347931130947833
-2.255614048472826
-2.187914854657802
-2.249459576307816
-2.372549019607845
-2.3540856031128428
-2.3171587701228398
-2.261768520637808
-2.3971669082678284
-1.9417359680577726
-2.2802319371328093
-2.618727906207874
-2.409475852597848
-2.3417766587828237
-2.329467714452832
-2.304849825792821
-2.304849825792821
-2.335622186617841
-2.4156303247628297
-2.3417766587828237
-2.378703491772827
-2.3417766587828237
-2.286386409297819
-2.261768520637808
-2.3233132422878215
-2.3233132422878215
-2.3171587701228398
-2.286386409297819
-2.304849825792821
-2.3110042979578305
-2.2063782711528033
-2.2802319371328093
-2.4279392690928487
-2.378703491772827
-2.3233132422878215
-2.335622186617841
-2.3417766587828237
-2.3540856031128428
-2.3971669082678284
-2.3110042979578305
-2.2925408814628288
-2.3663945474428347
-2.403321380432838
-2.378703491772827
-2.3233132422878215
-2.3540856031128428
-2.4279392690928487
-2.4525571577528327
-2.4156303247628297
-2.391012436102846
-2.4156303247628297
-2.403321380432838
-2.372549019607845
-2.3971669082678284
-2.4217847969278394
-2.4279392690928487
-2.409475852597848
-2.4156303247628297
-2.409475852597848
-2.298695353627811
-2.4525571577528327
-2.3663945474428347
-2.3540856031128428
-2.495638462907845
-2.3663945474428347
-2.3417766587828237
-2.372549019607845
-2.0340530505327803
-1.2278171969176688
-1.9478904402227823
-3.172630401057975
-3.2218661783779687
-2.477175046412844
-2.249459576307816
-2.403321380432838
-2.3971669082678284
-2.335622186617841
-2.2740774649678275
-2.224841687647805
-2.378703491772827
-2.347931130947833
-2.304849825792821
-2.2679229928028177
-2.298695353627811
-2.3171587701228398
-2.2371506319778245
-2.298695353627811
-1.9232725515627715
-1.5478497494977315
-2.089443300017785
-2.2186872154828228
-2.2740774649678275
-2.286386409297819
-2.286386409297819
-2.2186872154828228
-2.255614048472826
-2.249459576307816
-2.2433051041428067
-2.2186872154828228
-2.224841687647805
-2.261768520637808
-2.4587116299178424
-2.8525978484779113
-2.4402482134228407
-2.335622186617841
-2.261768520637808
