-2.3171587701228398
-2.3233132422878215
-2.3110042979578305
-2.3110042979578305
-2.2740774649678275
-2.249459576307816
-2.261768520637808
-2.187914854657802
-2.4279392690928487
-2.4217847969278394
-2.434093741257831
-2.403321380432838
-2.391012436102846
-1.9048091350677696
-2.409475852597848
-2.704890516517872
-2.4279392690928487
-2.3848579639378364
-2.360240075277825
-2.329467714452832
-2.304849825792821
-2.286386409297819
-2.409475852597848
-2.3971669082678284
-2.0340530505327803
-1.215508252587677
-1.9294270237277809
-2.194069326822812
-2.298695353627811
-2.975687291777912
-3.4865084814730274
-2.600264489712873
-2.4279392690928487
-2.3663945474428347
-2.3233132422878215
-2.2309961598128147
-2.4894839907428636
-2.4279392690928487
-2.4279392690928487
-2.3848579639378364
-2.378703491772827
-2.360240075277825
-2.347931130947833
-2.3417766587828237
-2.298695353627811
-2.2802319371328093
-2.4156303247628297
-2.347931130947833
-2.329467714452832
-2.0586709391927913
-1.6340123598077294
-2.138679077337807
-2.3110042979578305
-2.3110042979578305
-2.298695353627811
-2.3110042979578305
-2.329467714452832
-2.329467714452832
-2.3663945474428347
-2.391012436102846
-2.391012436102846
-2.3540856031128428
-2.3848579639378364
-2.544874240227868
-3.1233946237379517
-2.704890516517872
-2.477175046412844
-2.471020574247862
-2.446402685587851
-2.4279392690928487
-2.378703491772827
-2.360240075277825
-2.347931130947833
-2.347931130947833
-2.3663945474428347
-2.3663945474428347
-2.3971669082678284
-2.3110042979578305
-2.347931130947833
-2.495638462907845
-2.4217847969278394
-2.434093741257831
-2.4279392690928487
-2.3971669082678284
-2.347931130947833
-2.495638462907845
-2.471020574247862
-2.3971669082678284
-2.077134355687793
-2.477175046412844
-2.7171994608478913
-2.4525571577528327
-2.138679077337807
-2.3540856031128428
-2.434093741257831
-2.4402482134228407
-2.4402482134228407
-2.434093741257831
-2.4402482134228407
-2.434093741257831
-2.409475852597848
-2.495638462907845
-2.4402482134228407
-2.403321380432838
-2.3663945474428347
-2.391012436102846
-2.624882378372884
-2.674118155692878
-2.4156303247628297
-2.434093741257831
-2.409475852597848
-2.3663945474428347
-2.378703491772827
-2.347931130947833
-2.372549019607845
-2.3663945474428347
-2.347931130947833
-2.391012436102846
-2.360240075277825
-2.360240075277825
-2.378703491772827
-2.4648661020828517
-2.4217847969278394
-2.3233132422878215
-2.286386409297819
-2.360240075277825
-2.3233132422878215
-2.3233132422878215
-2.2925408814628288
-2.2925408814628288
-2.261768520637808
-2.255614048472826
-2.3171587701228398
-2.2802319371328093
-2.0955977721827947
-2.1017522443478045
-2.329467714452832
-2.3171587701228398
-2.3171587701228398
-2.3848579639378364
-2.3110042979578305
-2.3233132422878215
-2.3663945474428347
-2.335622186617841
-2.304849825792821
-2.347931130947833
-2.0586709391927913
-1.7817196917677414
-3.2034027618829675
-3.092622262912931
-2.649500267032867
-2.434093741257831
-2.3971669082678284
-2.378703491772827
-2.3540856031128428
-2.255614048472826
-2.3848579639378364
-2.347931130947833
-2.347931130947833
-2.3171587701228398
-2.3110042979578305
-2.298695353627811
-2.249459576307816
-1.8863457185727683
-1.3324432237226955
-1.7263294422827367
-2.581801073217871
-2.4156303247628297
-2.372549019607845
-2.3663945474428347
-2.378703491772827
-3.264947483532982
-3.338801149512988
-2.55718318455786
-2.4156303247628297
-2.360240075277825
-2.249459576307816
-1.990971745377768
-2.3171587701228398
-2.3663945474428347
-2.3663945474428347
-2.329467714452832
-2.335622186617841
-2.335622186617841
-2.335622186617841
-2.3540856031128428
-2.3110042979578305
-2.329467714452832
-2.378703491772827
-2.335622186617841
-2.249459576307816
-2.3110042979578305
-2.4648661020828517
-2.329467714452832
-2.2802319371328093
-2.3171587701228398
-2.3417766587828237
-2.329467714452832
-2.3417766587828237
-2.347931130947833
-2.286386409297819
-2.304849825792821
-2.3540856031128428
-2.2802319371328093
-2.2679229928028177
-2.2309961598128147
-2.360240075277825
-2.3848579639378364
-2.3971669082678284
-2.335622186617841
-2.2925408814628288
-2.3663945474428347
-2.403321380432838
-2.378703491772827
-2.360240075277825
-2.329467714452832
-2.3417766587828237
-2.3417766587828237
-2.298695353627811
-2.175605910327811
-2.347931130947833
-2.4279392690928487
-2.378703491772827
-2.378703491772827
-2.3663945474428347
-2.335622186617841
-2.1263701330077875
-2.015589634037779
-2.624882378372884
-2.618727906207874
-2.403321380432838
-2.360240075277825
-2.3417766587828237
-2.2802319371328093
-2.434093741257831
-2.4402482134228407
-2.3171587701228398
-2.255614048472826
-2.298695353627811
-2.3663945474428347
-2.3971669082678284
-2.403321380432838
-2.4279392690928487
-2.526410823732866
-2.4648661020828517
-2.446402685587851
-2.4402482134228407
-2.378703491772827
-2.4587116299178424
-2.4648661020828517
-2.4156303247628297
-2.4648661020828517
-2.446402685587851
-2.4217847969278394
-2.446402685587851
-2.4279392690928487
-2.434093741257831
-2.403321380432838
-2.409475852597848
-2.434093741257831
-2.378703491772827
-2.3233132422878215
-2.4156303247628297
-2.4648661020828517
-2.3663945474428347
-2.360240075277825
-2.403321380432838
-2.409475852597848
-2.0463619948628
-1.289361918567683
-2.052516467027782
-2.3233132422878215
-2.360240075277825
-2.772589710332896
-3.6280613412680296
-2.7418173495078744
-2.495638462907845
-2.5325652958978484
-2.4648661020828517
-2.4217847969278394
-2.403321380432838
-2.378703491772827
-2.4279392690928487
-2.446402685587851
-2.4156303247628297
-2.3971669082678284
-2.434093741257831
-2.434093741257831
-2.4156303247628297
-2.3848579639378364
-2.434093741257831
-2.618727906207874
-2.477175046412844
-2.4279392690928487
-2.4217847969278394
-2.409475852597848
-2.4279392690928487
-2.3663945474428347
-2.4894839907428636
-2.477175046412844
-2.4217847969278394
-2.4279392690928487
-2.434093741257831
-2.4402482134228407
-2.255614048472826
-2.434093741257831
-2.5325652958978484
-2.446402685587851
-2.4156303247628297
-2.409475852597848
-2.4217847969278394
-2.4279392690928487
-2.391012436102846
-2.3848579639378364
-2.495638462907845
-2.4279392690928487
-2.4279392690928487
-2.3971669082678284
-2.335622186617841
-2.563337656722869
-2.507947407237865
-2.409475852597848
-2.446402685587851
-2.4217847969278394
-2.4402482134228407
-2.4156303247628297
-2.409475852597848
-2.403321380432838
-2.372549019607845
-2.3971669082678284
-2.4525571577528327
-2.372549019607845
-1.6647847206327224
-1.6340123598077294
-2.4894839907428636
-2.4525571577528327
-2.483329518577854
-2.4525571577528327
-2.4587116299178424
-2.446402685587851
-2.434093741257831
-2.471020574247862
-2.507947407237865
-2.483329518577854
-2.409475852597848
-2.4587116299178424
-2.704890516517872
-3.424963759823013
-2.8525978484779113
-2.5694921288878514
-2.544874240227868
-2.501792935072855
-2.4156303247628297
-2.5694921288878514
-2.483329518577854
-2.495638462907845
-2.495638462907845
-2.4894839907428636
-2.501792935072855
-2.4648661020828517
-2.3233132422878215
-2.55718318455786
-2.631036850537866
-2.5325652958978484
-2.520256351567857
-2.507947407237865
-2.507947407237865
-2.4648661020828517
-2.4156303247628297
-2.575646601052861
-2.5141018794028467
-2.495638462907845
-2.483329518577854
-2.434093741257831
-2.403321380432838
-2.1694514381628007
-2.4279392690928487
-2.446402685587851
-2.434093741257831
-2.409475852597848
-2.409475852597848
-2.446402685587851
-2.4279392690928487
-2.378703491772827
-2.3971669082678284
-2.4648661020828517
-2.3848579639378364
-2.360240075277825
-2.3233132422878215
-2.4587116299178424
-2.261768520637808
-1.5355408051677124
-3.264947483532982
-2.766435238167886
-2.446402685587851
-2.409475852597848
-2.434093741257831
-2.4217847969278394
-2.4402482134228407
-2.391012436102846
-2.3540856031128428
-2.3233132422878215
-2.372549019607845
-2.378703491772827
-2.4525571577528327
-2.4587116299178424
-2.304849825792821
-2.347931130947833
-2.3971669082678284
-2.4402482134228407
-2.3848579639378364
-2.409475852597848
-2.4217847969278394
-2.4279392690928487
-2.4156303247628297
-2.3171587701228398
-2.4587116299178424
-2.329467714452832
-2.434093741257831
-2.4587116299178424
-2.4279392690928487
-2.403321380432838
-2.3663945474428347
-2.3233132422878215
-2.4402482134228407
-2.360240075277825
-2.3663945474428347
-2.372549019607845
-2.378703491772827
-2.360240075277825
-2.3171587701228398
-1.9848172732127856
-1.6647847206327224
-2.1632969659978185
-2.2740774649678275
-2.329467714452832
-2.347931130947833
-2.347931130947833
-2.372549019607845
-2.3417766587828237
-2.3540856031128428
-2.372549019607845
-2.360240075277825
-2.335622186617841
-2.378703491772827
-2.544874240227868
-3.1295490959029335
-2.674118155692878
-2.520256351567857
-2.434093741257831
-2.4217847969278394
-2.4279392690928487
-2.3663945474428347
-2.360240075277825
-2.0340530505327803
-2.347931130947833
-2.735662877342893
-2.4217847969278394
-2.3417766587828237
-2.3110042979578305
-2.298695353627811
-2.434093741257831
-2.378703491772827
-2.3233132422878215
-2.3110042979578305
-2.3233132422878215
-2.3171587701228398
-2.298695353627811
-2.329467714452832
-2.2802319371328093
-2.2186872154828228
-2.2925408814628288
-2.304849825792821
-2.261768520637808
-2.2925408814628288
-2.446402685587851
-2.446402685587851
-2.4402482134228407
-1.9048091350677696
-1.3509066402176972
-2.089443300017785
-2.255614048472826
-2.286386409297819
-2.3171587701228398
-2.2925408814628288
-2.3110042979578305
-2.9879962361079313
-3.424963759823013
-2.5387197680628573
-2.581801073217871
-2.4402482134228407
-2.409475852597848
-2.409475852597848
-2.391012436102846
-2.329467714452832
-2.501792935072855
-2.4402482134228407
-2.434093741257831
-2.434093741257831
-2.4279392690928487
-2.4587116299178424
-2.409475852597848
-2.378703491772827
-2.5141018794028467
-2.501792935072855
-2.4894839907428636
-2.4402482134228407
-2.4217847969278394
-2.4402482134228407
-2.446402685587851
-2.4402482134228407
-2.5387197680628573
-2.077134355687793
-0.9631748938226381
-2.329467714452832
-2.335622186617841
-2.224841687647805
-2.612573434042864
-3.720378423743037
-3.018768596932925
-2.544874240227868
-2.5141018794028467
-2.471020574247862
-2.471020574247862
-2.4894839907428636
-2.4156303247628297
-2.5387197680628573
-2.563337656722869
-2.544874240227868
-2.507947407237865
-2.5325652958978484
-2.8525978484779113
-2.6618092113628857
-2.4587116299178424
-2.495638462907845
-2.471020574247862
-2.446402685587851
-2.4587116299178424
-2.4402482134228407
-2.409475852597848
-2.3848579639378364
-2.3540856031128428
-2.4279392690928487
-2.4402482134228407
-2.3417766587828237
-2.2371506319778245
-2.446402685587851
-2.3971669082678284
-2.360240075277825
-2.3540856031128428
-2.4402482134228407
-2.3971669082678284
-2.3971669082678284
-2.409475852597848
-2.372549019607845
-2.3971669082678284
-2.3971669082678284
-2.372549019607845
-2.3540856031128428
-2.378703491772827
-2.526410823732866
-2.4402482134228407
-2.409475852597848
-2.4217847969278394
-2.4217847969278394
-2.372549019607845
-2.434093741257831
-2.391012436102846
-2.3848579639378364
-2.372549019607845
-2.378703491772827
-2.3540856031128428
-2.304849825792821
-2.298695353627811
-2.477175046412844
-2.3417766587828237
-1.9478904402227823
-2.2925408814628288
-2.624882378372884
-2.3971669082678284
-2.3417766587828237
-2.304849825792821
-2.3540856031128428
-2.335622186617841
-2.329467714452832
-2.304849825792821
-2.261768520637808
-1.7694107474377496
-1.849418885582765
-2.2740774649678275
-2.3171587701228398
-2.360240075277825
-2.347931130947833
-2.304849825792821
-2.329467714452832
-2.378703491772827
-1.9417359680577726
-2.372549019607845
-2.563337656722869
-2.3971669082678284
-2.3971669082678284
-2.711044988682881
-2.797207598992907
-2.4525571577528327
-2.347931130947833
-2.372549019607845
-2.409475852597848
-2.378703491772827
-2.360240075277825
-2.372549019607845
-2.372549019607845
-2.372549019607845
-2.298695353627811
-2.3971669082678284
-2.335622186617841
-2.434093741257831
-2.600264489712873
-2.4156303247628297
-2.360240075277825
-2.3110042979578305
-2.249459576307816
-2.3848579639378364
-2.360240075277825
-2.335622186617841
-2.3663945474428347
-2.3848579639378364
-2.335622186617841
-2.304849825792821
-2.2371506319778245
-2.224841687647805
-2.138679077337807
-2.3848579639378364
-2.3171587701228398
-2.372549019607845
-2.009435161872797
-0.9447114773276367
-3.468045064977998
-3.0987767350779407
-2.4894839907428636
-2.3971669082678284
-2.3971669082678284
-2.3663945474428347
-2.3663945474428347
-2.372549019607845
-2.5941100175478624
-2.4894839907428636
-2.360240075277825
-2.329467714452832
-2.372549019607845
-2.347931130947833
-2.372549019607845
-2.329467714452832
-2.372549019607845
-2.372549019607845
-2.3540856031128428
-2.3663945474428347
-2.3171587701228398
-2.261768520637808
-2.3171587701228398
-2.4587116299178424
-2.3171587701228398
-2.329467714452832
-2.391012436102846
-2.2925408814628288
-2.2925408814628288
-2.298695353627811
-2.2802319371328093
-2.194069326822812
-2.3540856031128428
-2.329467714452832
-2.2679229928028177
-2.2433051041428067
-2.194069326822812
-2.329467714452832
-2.2925408814628288
-2.200223798987821
-2.2802319371328093
-2.3110042979578305
-2.3233132422878215
-2.2679229928028177
-2.2679229928028177
-2.2925408814628288
-2.2925408814628288
-2.2433051041428067
-2.3848579639378364
-2.298695353627811
-2.212532743317813
-2.409475852597848
-2.347931130947833
-2.3233132422878215
-2.3171587701228398
-2.261768520637808
-2.4217847969278394
-2.329467714452832
-2.3110042979578305
-2.2925408814628288
-2.298695353627811
-2.249459576307816
-1.9294270237277809
-2.286386409297819
-2.495638462907845
-2.403321380432838
-2.298695353627811
-2.2186872154828228
-2.150988021667799
-2.2925408814628288
-2.212532743317813
-2.2371506319778245
-2.2925408814628288
-2.2802319371328093
-2.3417766587828237
-2.360240075277825
-2.3663945474428347
-2.3848579639378364
-2.347931130947833
-2.501792935072855
-2.4279392690928487
-2.329467714452832
-2.3233132422878215
-2.3233132422878215
-2.3110042979578305
-2.304849825792821
-2.2925408814628288
-2.304849825792821
-2.3171587701228398
-2.3171587701228398
-2.2925408814628288
-2.2679229928028177
-1.9232725515627715
-1.2585895577426898
-1.9786628010477763
-2.2309961598128147
-2.2309961598128147
-2.2802319371328093
-2.2740774649678275
-2.249459576307816
-2.3233132422878215
-2.298695353627811
-2.249459576307816
-2.335622186617841
-2.298695353627811
-2.261768520637808
-2.434093741257831
-3.2711019556979917
-2.68642710002287
-2.3540856031128428
-2.255614048472826
-2.391012436102846
-2.335622186617841
-2.304849825792821
-2.298695353627811
-2.3110042979578305
-2.329467714452832
-2.3110042979578305
-2.2063782711528033
-2.378703491772827
-1.9048091350677696
-0.8031586175326066
-2.2802319371328093
-2.2740774649678275
-2.2802319371328093
-2.3540856031128428
-3.3511100938430074
-3.0618499020879373
-2.4156303247628297
-2.329467714452832
-2.3171587701228398
-2.286386409297819
-2.298695353627811
-2.2802319371328093
-2.194069326822812
-2.2371506319778245
-2.409475852597848
-2.2802319371328093
-2.2433051041428067
-2.2433051041428067
-2.2433051041428067
-2.255614048472826
-2.2925408814628288
-2.2802319371328093
-2.261768520637808
-2.255614048472826
-2.2740774649678275
-2.212532743317813
-2.200223798987821
-1.6093944711477182
-1.6217034154777374
-2.1017522443478045
-2.212532743317813
-2.2309961598128147
-2.249459576307816
-2.255614048472826
-2.2371506319778245
-1.861727829912757
-0.6123699804175822
-1.8124920525927626
-2.5387197680628573
-2.403321380432838
-2.255614048472826
-2.778744182497905
-3.0249230690979347
-3.018768596932925
-3.5911345082780266
-2.624882378372884
-2.3971669082678284
-2.3540856031128428
-2.360240075277825
-2.372549019607845
-2.347931130947833
-2.2740774649678275
-2.3971669082678284
-2.372549019607845
-2.3540856031128428
-2.2433051041428067
-2.409475852597848
-2.3971669082678284
-2.347931130947833
-2.255614048472826
-2.3663945474428347
-2.3663945474428347
-2.3171587701228398
-2.329467714452832
-2.3171587701228398
-2.3233132422878215
-2.255614048472826
-2.2309961598128147
-2.360240075277825
-2.304849825792821
-2.544874240227868
-2.434093741257831
-2.3171587701228398
-2.298695353627811
-2.249459576307816
-2.2309961598128147
-2.3171587701228398
-2.335622186617841
-2.347931130947833
-2.3540856031128428
-2.3663945474428347
-2.3848579639378364
-2.347931130947833
-2.2371506319778245
-2.224841687647805
-2.495638462907845
-2.4217847969278394
-2.3848579639378364
-2.3663945474428347
-2.372549019607845
-2.372549019607845
-2.378703491772827
-2.347931130947833
-2.2925408814628288
-2.3110042979578305
-2.298695353627811
-2.286386409297819
-2.2309961598128147
-2.150988021667799
-2.0463619948628
-2.4156303247628297
-2.612573434042864
-2.3663945474428347
-2.329467714452832
-2.298695353627811
-2.3171587701228398
-2.2925408814628288
-2.3417766587828237
-2.372549019607845
-2.3540856031128428
-2.3171587701228398
-2.286386409297819
-2.3417766587828237
-2.471020574247862
-2.335622186617841
-2.446402685587851
-2.378703491772827
-2.360240075277825
-2.3971669082678284
-2.403321380432838
-1.990971745377768
-0.9139391165026156
-3.1110856794079322
-3.308028788687994
-2.5387197680628573
-2.391012436102846
-2.286386409297819
-2.434093741257831
-2.409475852597848
-2.378703491772827
-2.347931130947833
-2.4279392690928487
-2.360240075277825
-2.372549019607845
-2.378703491772827
-2.3663945474428347
-2.3417766587828237
-2.304849825792821
-2.261768520637808
-2.3110042979578305
-2.255614048472826
-2.3971669082678284
-2.378703491772827
-2.335622186617841
-2.304849825792821
-2.3233132422878215
-2.360240075277825
-2.372549019607845
-2.3417766587828237
-2.360240075277825
-2.360240075277825
-2.3171587701228398
-2.304849825792821
-2.255614048472826
-2.224841687647805
-2.4156303247628297
-2.347931130947833
-2.2925408814628288
-2.255614048472826
-2.329467714452832
-2.2309961598128147
-2.3171587701228398
-2.3417766587828237
-2.2802319371328093
-2.3110042979578305
-2.3110042979578305
-2.3171587701228398
-2.3171587701228398
-2.175605910327811
-1.818646524757745
-2.138679077337807
-2.2740774649678275
-2.255614048472826
-2.249459576307816
-2.2309961598128147
-2.2433051041428067
-2.2186872154828228
-2.255614048472826
-2.378703491772827
-2.372549019607845
-2.360240075277825
-2.3233132422878215
-2.4587116299178424
-2.8895246814679143
-2.2309961598128147
-2.335622186617841
-2.7418173495078744
-2.409475852597848
-2.347931130947833
-2.372549019607845
-2.3540856031128428
-2.360240075277825
-2.304849825792821
-2.286386409297819
-2.372549019607845
-2.3417766587828237
-2.2802319371328093
-2.298695353627811
-2.4525571577528327
-2.409475852597848
-2.372549019607845
-2.335622186617841
-2.4402482134228407
-2.372549019607845
-2.3848579639378364
-2.3971669082678284
-2.3848579639378364
-2.3663945474428347
-2.3663945474428347
-2.372549019607845
-2.372549019607845
-2.372549019607845
-2.483329518577854
-2.471020574247862
-2.4587116299178424
-2.4525571577528327
-2.4525571577528327
-2.4648661020828517
-2.483329518577854
-2.4279392690928487
-2.4525571577528327
-2.434093741257831
-2.4279392690928487
-2.4279392690928487
-2.4402482134228407
-2.3171587701228398
-2.5387197680628573
-2.4894839907428636
-2.477175046412844
-2.4587116299178424
-2.446402685587851
-2.446402685587851
-2.3971669082678284
-2.4648661020828517
-2.4587116299178424
-2.4279392690928487
-2.4279392690928487
-2.391012436102846
-2.3971669082678284
-2.2433051041428067
-2.409475852597848
-2.501792935072855
-2.0955977721827947
-1.3078253350626845
-2.0463619948628
-2.286386409297819
-2.3540856031128428
-2.3848579639378364
-3.172630401057975
-3.4865084814730274
-2.6987360443528896
-2.5141018794028467
-2.4525571577528327
-2.3540856031128428
-2.544874240227868
-2.483329518577854
-2.3848579639378364
-2.507947407237865
-2.4217847969278394
-2.409475852597848
-2.378703491772827
-2.391012436102846
-2.391012436102846
-2.360240075277825
-2.3171587701228398
-2.360240075277825
-2.329467714452832
-2.3110042979578305
-2.563337656722869
-2.4648661020828517
-2.3540856031128428
-2.3110042979578305
-2.3233132422878215
-2.3540856031128428
-2.3171587701228398
-2.347931130947833
-2.329467714452832
-2.3233132422878215
-2.3417766587828237
-2.261768520637808
-2.335622186617841
-2.3110042979578305
-2.150988021667799
-2.360240075277825
-2.3663945474428347
-2.3171587701228398
-2.3540856031128428
-2.372549019607845
-2.3110042979578305
-2.360240075277825
-2.335622186617841
-2.335622186617841
-2.329467714452832
-2.360240075277825
-2.335622186617841
-2.2186872154828228
-2.304849825792821
-2.372549019607845
-2.3233132422878215
-2.3171587701228398
-2.335622186617841
-2.360240075277825
-2.4217847969278394
-2.298695353627811
-2.409475852597848
-2.360240075277825
-1.9971262175427773
-2.372549019607845
-2.68642710002287
-2.3971669082678284
-2.2679229928028177
-2.3417766587828237
-2.4525571577528327
-2.378703491772827
-2.335622186617841
-2.3417766587828237
-2.329467714452832
-2.286386409297819
-2.286386409297819
-2.212532743317813
-2.3663945474428347
-2.335622186617841
-2.286386409297819
-2.2679229928028177
-2.2186872154828228
-2.4587116299178424
-2.2802319371328093
-2.2371506319778245
-2.3971669082678284
-2.347931130947833
-2.329467714452832
-2.3171587701228398
-2.335622186617841
-2.360240075277825
-2.304849825792821
-2.286386409297819
-2.409475852597848
-2.3540856031128428
-2.120215660842805
-2.150988021667799
-2.335622186617841
-2.347931130947833
-2.329467714452832
-2.329467714452832
-2.335622186617841
-2.298695353627811
-2.298695353627811
-2.2802319371328093
-2.2802319371328093
-2.335622186617841
-2.089443300017785
-1.1539635309376628
-1.9417359680577726
-2.5141018794028467
-2.372549019607845
-2.3171587701228398
-2.329467714452832
-2.304849825792821
-2.7418173495078744
-3.615752396938038
-2.723353933012873
-2.4217847969278394
-2.391012436102846
-2.391012436102846
-2.0586709391927913
-1.184735891762656
-2.55102871239285
-3.535744258793022
-2.6618092113628857
-2.4279392690928487
-2.403321380432838
-2.391012436102846
-2.3663945474428347
-2.372549019607845
-2.2740774649678275
-2.4648661020828517
-2.4217847969278394
-2.391012436102846
-2.3848579639378364
-2.335622186617841
-2.212532743317813
-1.7878741639327511
-2.114061188677796
-2.347931130947833
-2.3663945474428347
-2.360240075277825
-2.3417766587828237
-2.360240075277825
-2.347931130947833
-2.360240075277825
-2.3663945474428347
-2.403321380432838
-2.391012436102846
-2.347931130947833
-2.4402482134228407
-3.4311182319879947
-3.117240151572942
-2.4648661020828517
-2.249459576307816
-2.3233132422878215
-2.4217847969278394
-2.391012436102846
-2.3540856031128428
-2.3417766587828237
-2.3171587701228398
-2.2925408814628288
-2.3540856031128428
-2.5325652958978484
-2.434093741257831
-1.972508328882766
-2.175605910327811
-2.3540856031128428
-2.391012436102846
-2.372549019607845
-2.409475852597848
-2.403321380432838
-2.4217847969278394
-2.3110042979578305
-2.360240075277825
-2.372549019607845
-2.372549019607845
-1.8801912464077586
-2.3663945474428347
-2.674118155692878
-2.735662877342893
-2.477175046412844
-2.3971669082678284
-2.335622186617841
-1.9786628010477763
-2.3110042979578305
-2.6433457948678853
-2.391012436102846
-2.3848579639378364
-2.360240075277825
-2.3848579639378364
-2.3971669082678284
-2.304849825792821
-2.114061188677796
-2.2186872154828228
-2.335622186617841
-2.360240075277825
-2.3663945474428347
-2.3171587701228398
-2.3663945474428347
-2.3417766587828237
-2.261768520637808
-2.360240075277825
-2.4402482134228407
-2.409475852597848
-2.378703491772827
-2.3540856031128428
-2.2186872154828228
-2.409475852597848
-2.4156303247628297
-2.409475852597848
-2.3540856031128428
-2.347931130947833
-2.3540856031128428
-2.335622186617841
-2.329467714452832
-2.3110042979578305
-2.2740774649678275
-2.4156303247628297
-2.3417766587828237
-2.304849825792821
-2.194069326822812
-2.3663945474428347
-2.434093741257831
-2.298695353627811
-2.335622186617841
-2.3540856031128428
-2.335622186617841
-2.3417766587828237
-2.335622186617841
-2.347931130947833
-2.360240075277825
-2.3171587701228398
-2.378703491772827
-2.360240075277825
-2.329467714452832
-2.360240075277825
-2.409475852597848
-2.3663945474428347
-2.360240075277825
-2.403321380432838
-2.372549019607845
-1.954044912387765
-0.8647033391826209
-2.255614048472826
-2.329467714452832
-2.3171587701228398
-2.304849825792821
-2.778744182497905
-3.437272704153005
-2.544874240227868
-2.477175046412844
-2.347931130947833
-2.3110042979578305
-2.3233132422878215
-2.298695353627811
-2.286386409297819
-2.335622186617841
-2.304849825792821
-2.286386409297819
-2.3171587701228398
-2.335622186617841
-2.298695353627811
-2.298695353627811
-2.261768520637808
-2.4279392690928487
-2.3663945474428347
-2.3171587701228398
-2.3233132422878215
-2.372549019607845
-2.3663945474428347
-2.347931130947833
-2.3171587701228398
-2.4156303247628297
-2.372549019607845
-2.378703491772827
-2.3663945474428347
-2.3417766587828237
-2.298695353627811
-2.4525571577528327
-2.360240075277825
-2.378703491772827
-2.3540856031128428
-2.335622186617841
-2.3110042979578305
-2.3233132422878215
-2.2802319371328093
-2.304849825792821
-2.3233132422878215
-2.360240075277825
-2.3110042979578305
-2.2802319371328093
-2.3171587701228398
-2.347931130947833
-2.3110042979578305
-2.329467714452832
-2.3540856031128428
-2.360240075277825
-2.347931130947833
-2.360240075277825
-2.360240075277825
-2.378703491772827
-2.3540856031128428
-2.3417766587828237
-2.3848579639378364
-2.304849825792821
-1.9294270237277809
-2.434093741257831
-2.754126293837894
-2.434093741257831
-2.360240075277825
-2.2802319371328093
-2.3540856031128428
-2.3848579639378364
-2.360240075277825
-2.3233132422878215
-2.3540856031128428
-2.3848579639378364
-2.372549019607845
-2.3171587701228398
-2.2433051041428067
-2.3417766587828237
-2.446402685587851
-2.378703491772827
-2.403321380432838
-2.3848579639378364
-2.3971669082678284
-2.372549019607845
-2.372549019607845
-2.360240075277825
-2.329467714452832
-2.3417766587828237
-2.3417766587828237
-2.3110042979578305
-2.2802319371328093
-2.2802319371328093
-2.5141018794028467
-2.3971669082678284
-2.3663945474428347
-2.391012436102846
-2.3971669082678284
-2.360240075277825
-2.3663945474428347
-2.3417766587828237
-2.372549019607845
-2.335622186617841
-2.3540856031128428
-2.329467714452832
-2.286386409297819
-2.2802319371328093
-2.434093741257831
-2.347931130947833
-2.403321380432838
-2.372549019607845
-2.372549019607845
-2.3848579639378364
-2.360240075277825
-2.347931130947833
-2.3540856031128428
-2.372549019607845
-2.372549019607845
-2.3540856031128428
-2.3110042979578305
-2.3233132422878215
-2.052516467027782
-0.895475700007614
-2.5141018794028467
-3.560362147453033
-2.8095165433228986
-2.4156303247628297
-2.360240075277825
-2.3663945474428347
-2.3663945474428347
-2.3663945474428347
-2.2679229928028177
-2.329467714452832
-2.304849825792821
-2.200223798987821
-2.409475852597848
-2.360240075277825
-2.347931130947833
-2.372549019607845
-2.2740774649678275
-2.391012436102846
-2.3848579639378364
-2.347931130947833
-2.3171587701228398
-2.2802319371328093
-2.2740774649678275
-2.2925408814628288
-2.261768520637808
-2.2802319371328093
-2.5141018794028467
-2.495638462907845
-2.446402685587851
-2.4525571577528327
-2.403321380432838
-2.3663945474428347
-2.3540856031128428
-2.4217847969278394
-2.3540856031128428
-2.347931130947833
-2.347931130947833
-2.335622186617841
-2.3110042979578305
-2.1817603824928202
-2.3417766587828237
-2.446402685587851
-2.378703491772827
-2.3663945474428347
-2.3171587701228398
-2.372549019607845
-2.3663945474428347
-2.347931130947833
-2.3663945474428347
-2.3848579639378364
-2.360240075277825
-2.347931130947833
-2.298695353627811
-2.298695353627811
-2.4279392690928487
-2.2186872154828228
-0.8277765061926179
-1.6401668319727392
-2.4525571577528327
-2.520256351567857
-2.360240075277825
-2.2802319371328093
-2.403321380432838
-2.6371913227028756
-3.615752396938038
-2.815671015487909
-2.446402685587851
-2.2371506319778245
-1.6401668319727392
-2.0463619948628
-2.3233132422878215
-1.8863457185727683
-2.3848579639378364
-2.680272627857888
-2.4156303247628297
-2.391012436102846
-2.403321380432838
-2.3540856031128428
-2.3417766587828237
-2.3540856031128428
-2.372549019607845
-2.391012436102846
-2.55102871239285
-2.446402685587851
-2.391012436102846
-2.3971669082678284
-2.3417766587828237
-2.446402685587851
-2.4217847969278394
-2.378703491772827
-2.378703491772827
-2.3971669082678284
-2.403321380432838
-2.360240075277825
-2.3233132422878215
-2.3171587701228398
-2.9572238752829105
-2.9141425701278982
-2.483329518577854
-2.4156303247628297
-2.391012436102846
-2.3971669082678284
-2.360240075277825
-2.3417766587828237
-2.4402482134228407
-2.3971669082678284
-2.391012436102846
-2.3663945474428347
-2.378703491772827
-2.372549019607845
-2.120215660842805
-2.360240075277825
-2.477175046412844
-2.3971669082678284
-2.372549019607845
-2.3663945474428347
-2.391012436102846
-2.3971669082678284
-2.3233132422878215
-2.0340530505327803
-1.954044912387765
-1.6340123598077294
-2.070979883522784
-2.2309961598128147
-2.3233132422878215
-2.674118155692878
-2.723353933012873
-3.652679229928041
-2.883370209302905
-2.477175046412844
-2.4156303247628297
-2.3848579639378364
-2.3971669082678284
-2.372549019607845
-2.4156303247628297
-2.3663945474428347
-2.347931130947833
-2.391012436102846
-2.2433051041428067
-2.3663945474428347
-2.501792935072855
-2.391012436102846
-2.3110042979578305
-2.403321380432838
-2.3848579639378364
-2.335622186617841
-2.3663945474428347
-2.360240075277825
-2.360240075277825
-2.3540856031128428
-2.298695353627811
-2.391012436102846
-2.2186872154828228
-2.1571424938328088
-2.3663945474428347
-2.3171587701228398
-2.3110042979578305
-2.2925408814628288
-2.2371506319778245
-2.3971669082678284
-2.378703491772827
-2.360240075277825
-2.347931130947833
-2.335622186617841
-2.3417766587828237
-2.3417766587828237
-2.2679229928028177
-2.4648661020828517
-2.5694921288878514
-2.4156303247628297
-2.391012436102846
-2.3417766587828237
-2.391012436102846
-2.403321380432838
-2.372549019607845
-2.4156303247628297
-2.3663945474428347
-2.3540856031128428
-2.378703491772827
-2.3663945474428347
-2.2925408814628288
-2.1263701330077875
-2.378703491772827
-2.347931130947833
-1.972508328882766
-2.391012436102846
-2.711044988682881
-2.4279392690928487
-2.409475852597848
-2.378703491772827
-2.434093741257831
-2.4402482134228407
-2.409475852597848
-2.372549019607845
-2.335622186617841
-2.286386409297819
-2.483329518577854
-2.3971669082678284
-2.3540856031128428
-2.3848579639378364
-2.391012436102846
-2.360240075277825
-2.329467714452832
-2.372549019607845
-2.378703491772827
-2.347931130947833
-2.372549019607845
-2.372549019607845
-2.347931130947833
-2.298695353627811
-2.4587116299178424
-2.409475852597848
-2.347931130947833
-2.2740774649678275
-2.4648661020828517
-2.4279392690928487
-2.3663945474428347
-2.360240075277825
-2.347931130947833
-2.3663945474428347
-2.3540856031128428
-2.3233132422878215
-2.3171587701228398
-2.2186872154828228
-2.471020574247862
-2.4156303247628297
-2.335622186617841
-2.3540856031128428
-2.286386409297819
-2.255614048472826
-2.4217847969278394
-2.372549019607845
-2.3540856031128428
-2.329467714452832
-2.335622186617841
-2.329467714452832
-2.2740774649678275
-2.1694514381628007
-2.2679229928028177
-2.3171587701228398
-2.3171587701228398
-2.286386409297819
-1.954044912387765
-1.1293456422776516
-2.077134355687793
-3.394191398997992
-2.994150708272913
-2.471020574247862
-2.409475852597848
-2.391012436102846
-2.3417766587828237
-2.298695353627811
-2.372549019607845
-2.4279392690928487
-2.3110042979578305
-2.2802319371328093
-2.3110042979578305
-2.3663945474428347
-2.3971669082678284
-2.4402482134228407
-2.4525571577528327
-2.434093741257831
-2.4156303247628297
-2.3848579639378364
-2.360240075277825
-2.3540856031128428
-2.587955545382853
-2.5941100175478624
-2.360240075277825
-2.347931130947833
-2.3663945474428347
-2.3417766587828237
-2.3540856031128428
-2.3417766587828237
-2.329467714452832
-2.2802319371328093
-2.2309961598128147
-2.409475852597848
-2.3848579639378364
-2.2186872154828228
-1.3816790010426905
-1.7447928587777384
-2.194069326822812
-2.2371506319778245
-2.2309961598128147
-2.2740774649678275
-2.3171587701228398
-2.286386409297819
-2.2740774649678275
-2.3110042979578305
-2.298695353627811
-2.2679229928028177
-2.261768520637808
-2.304849825792821
-2.434093741257831
-2.3417766587828237
-2.335622186617841
-2.2802319371328093
-2.3110042979578305
-2.2802319371328093
-2.2925408814628288
-2.378703491772827
-2.3417766587828237
-2.329467714452832
-2.298695353627811
-2.2740774649678275
-1.9601993845527748
-2.3233132422878215
-3.1049312072429505
-2.96953281961293
-2.4525571577528327
-2.347931130947833
-2.347931130947833
-2.3171587701228398
-2.3233132422878215
-2.329467714452832
-2.304849825792821
-2.335622186617841
-2.2925408814628288
-2.3663945474428347
-2.2802319371328093
-2.2186872154828228
-2.1571424938328088
-2.372549019607845
-2.3848579639378364
-2.329467714452832
-2.304849825792821
-2.304849825792821
-2.3110042979578305
-2.304849825792821
-2.3663945474428347
-2.3171587701228398
-2.372549019607845
-2.3971669082678284
-2.347931130947833
-2.3171587701228398
-1.892500190737778
-1.3201342793926762
-2.064825411357801
-2.2433051041428067
-2.3171587701228398
-2.304849825792821
-2.2740774649678275
-2.2679229928028177
-2.3110042979578305
-2.2679229928028177
-2.286386409297819
-2.261768520637808
-2.3233132422878215
-2.304849825792821
-2.4402482134228407
-3.289565372192993
-2.735662877342893
-2.391012436102846
-2.3171587701228398
-2.249459576307816
-2.3663945474428347
-2.304849825792821
-2.255614048472826
-2.261768520637808
-2.2679229928028177
-2.2802319371328093
-2.261768520637808
-2.2309961598128147
-1.8371099412527454
-0.6739147020675963
-2.187914854657802
-2.187914854657802
-2.200223798987821
-2.2371506319778245
-2.261768520637808
-1.9048091350677696
-2.064825411357801
-2.471020574247862
-2.483329518577854
-2.2679229928028177
-2.249459576307816
-2.187914854657802
-2.3540856031128428
-3.529589786628012
-2.9510694031179288
-2.3540856031128428
-2.2740774649678275
-2.2679229928028177
-2.2433051041428067
-2.255614048472826
-2.2371506319778245
-2.2186872154828228
-2.2371506319778245
-2.224841687647805
-2.224841687647805
-2.1694514381628007
-2.1448335495027893
-2.1079067165127863
-2.329467714452832
-2.194069326822812
-2.1694514381628007
-2.175605910327811
-2.1817603824928202
-2.2186872154828228
-2.249459576307816
-2.2309961598128147
-2.150988021667799
-2.3171587701228398
-2.3233132422878215
-2.2802319371328093
-2.286386409297819
-2.1571424938328088
-2.372549019607845
-2.335622186617841
-2.286386409297819
-2.304849825792821
-2.2740774649678275
-2.286386409297819
-2.3171587701228398
-2.2802319371328093
-2.2740774649678275
-2.2802319371328093
-2.224841687647805
-2.347931130947833
-2.2802319371328093
-2.1817603824928202
-2.409475852597848
