4.391215889728128
3.7757686732280415
3.720378423743037
3.9788662546730578
4.3112077515831135
3.831158922713046
3.572671091782997
3.9173215330230438
4.200427252613103
4.151191475293081
3.4126548154929934
3.855776811373057
4.1327280587980795
4.335825640243124
3.4741995371429804
3.9173215330230438
3.9604028381780574
4.415833778388112
3.215711706212959
3.652679229928013
3.8927036443630603
4.280435390758092
3.7942320897230433
3.634215813433012
3.9173215330230438
4.188118308283084
4.0465654484880815
3.554207675287996
3.831158922713046
4.083492281478085
4.341980112408105
3.572671091782997
3.9788662546730578
4.003484143333068
4.3727524732331275
3.6034434526080172
3.7449963124030208
3.8988581165280416
4.255817502098108
3.9296304773530633
3.75730525673304
3.9173215330230438
4.12657358663307
4.12657358663307
3.5665166196180156
3.8927036443630603
3.9850207268380675
4.255817502098108
3.511126370132983
3.9050125886930522
3.9850207268380675
4.434297194883113
3.5234353144630024
3.75115078456803
3.7449963124030208
4.631240304163148
4.058874392818074
5.689809516543297
4.145037003128072
4.1327280587980795
3.9234760051880535
3.4926629536379816
3.8988581165280416
4.034256504158063
4.12657358663307
2.0217441062027888
3.166475928892937
3.886549172198051
4.335825640243124
3.572671091782997
3.7142239515780275
3.9357849495180455
4.298898807253093
3.9788662546730578
4.40352483405812
4.188118308283084
4.169654891788083
4.151191475293081
3.529589786627985
3.9173215330230438
4.0465654484880815
4.348134584573115
3.486508481473
3.781923145393024
3.9727117825080476
4.440451667048122
3.6465247577630033
3.7080694794130173
3.2957198443579747
4.0465654484880815
3.75115078456803
3.578825563948007
3.9911751990030497
4.1758093639530935
4.138882530963089
3.61575239693801
3.9788662546730578
3.9973296711680604
4.255817502098108
3.5172808422979926
3.7757686732280415
3.9850207268380675
4.883573662928187
3.9604028381780574
3.8188499783830263
3.8988581165280416
4.280435390758092
3.886549172198051
3.6465247577630033
3.9173215330230438
4.151191475293081
4.089646753643067
3.831158922713046
5.129752549528216
4.575850054678144
4.329671168078114
3.043386485592936
3.4557361206479786
3.9419394216830552
4.348134584573115
3.1049312072429505
2.1448335495027893
3.548053203123014
4.27428091859311
3.8065410340530352
3.628061341268002
3.886549172198051
4.1327280587980795
4.021947559828071
3.5234353144630024
3.9050125886930522
4.188118308283084
4.27428091859311
3.548053203123014
3.788077617558033
3.9727117825080476
4.354289056738125
3.7142239515780275
3.788077617558033
3.8988581165280416
4.280435390758092
3.837313394878028
3.5849800361130173
3.9604028381780574
4.095801225808078
3.831158922713046
3.449581648482997
3.8803947000330408
4.077337809313075
4.292744335088111
3.461890592812989
3.825004450548036
3.9727117825080476
4.225045141273086
3.560362147453006
3.7449963124030208
3.855776811373057
4.243508557768089
4.421988250553122
4.2865898629231
4.145037003128072
4.101955697973087
4.021947559828071
3.5665166196180156
3.8680857557030492
3.9419394216830552
4.200427252613103
3.4988174258029914
3.831158922713046
3.9111670608580615
4.508150860863147
3.554207675287996
3.3264922051829684
3.2464840670379527
4.1758093639530935
3.6896060629180156
3.3695735103379807
4.058874392818074
4.1942727804480935
4.0465654484880815
3.4926629536379816
3.7449963124030208
3.9911751990030497
4.249663029933098
3.6034434526080172
3.738841840238039
4.009638615498079
4.489687444368147
3.486508481473
3.7142239515780275
3.9296304773530633
4.2681264464281
3.8680857557030492
3.677297118588024
3.8434678670430373
4.101955697973087
4.120419114468088
3.572671091782997
3.800386561888025
4.034256504158063
4.3112077515831135
3.3695735103379807
3.7696142010630322
3.8988581165280416
4.243508557768089
3.61575239693801
3.8188499783830263
3.677297118588024
4.397370361893111
3.788077617558033
3.61575239693801
3.855776811373057
4.065028864983084
4.077337809313075
3.628061341268002
3.8188499783830263
4.0465654484880815
4.231199613438097
3.529589786627985
3.763459728898022
3.9296304773530633
4.305053279418103
3.61575239693801
3.788077617558033
3.9850207268380675
4.200427252613103
3.825004450548036
3.6834515907530063
3.9788662546730578
4.1942727804480935
4.058874392818074
3.5357442587929944
3.8988581165280416
3.9542483660130467
4.889728135093197
5.135907021693225
3.5172808422979926
3.9542483660130467
4.385061417563119
3.541898730958004
2.2679229928028177
3.117240151572942
4.280435390758092
3.8434678670430373
3.628061341268002
3.7696142010630322
4.188118308283084
4.052719920653064
3.541898730958004
3.8803947000330408
3.9419394216830552
4.188118308283084
3.4741995371429804
3.800386561888025
3.9788662546730578
4.348134584573115
3.578825563948007
3.572671091782997
3.7942320897230433
4.261971974263091
3.825004450548036
3.652679229928013
3.8803947000330408
4.1327280587980795
4.0711833371480655
3.560362147453006
3.8803947000330408
4.028102031993082
4.225045141273086
3.548053203123014
3.9234760051880535
4.1327280587980795
4.40352483405812
3.5665166196180156
3.75115078456803
3.9050125886930522
4.12657358663307
3.7942320897230433
3.61575239693801
3.9173215330230438
4.243508557768089
4.034256504158063
3.4988174258029914
3.874240227868059
3.948093893848065
4.354289056738125
3.541898730958004
3.8496223392080475
3.8927036443630603
4.323516695913104
3.6896060629180156
3.7449963124030208
3.9050125886930522
4.243508557768089
3.837313394878028
3.7142239515780275
3.8680857557030492
3.9727117825080476
3.8188499783830263
3.831158922713046
3.9296304773530633
4.0711833371480655
4.261971974263091
3.529589786627985
3.7757686732280415
3.9050125886930522
4.360443528903107
3.658833702093023
3.7265328959080186
3.8927036443630603
4.341980112408105
3.781923145393024
3.6465247577630033
3.7265328959080186
3.948093893848065
4.089646753643067
3.591134508277999
3.8619312835380395
4.040410976323072
4.212736196943095
3.591134508277999
3.8680857557030492
3.874240227868059
4.40352483405812
3.609597924773
3.701915007248036
3.9911751990030497
5.209760687673231
3.449581648482997
3.3141832608529764
3.9665573103430654
4.12657358663307
4.0465654484880815
3.578825563948007
3.8680857557030492
4.095801225808078
4.27428091859311
3.578825563948007
3.8434678670430373
3.9850207268380675
4.335825640243124
3.7449963124030208
3.9173215330230438
3.9788662546730578
4.261971974263091
3.837313394878028
3.628061341268002
3.9296304773530633
4.1758093639530935
4.065028864983084
3.529589786627985
4.009638615498079
4.021947559828071
4.3112077515831135
3.554207675287996
3.8434678670430373
4.495841916533128
5.554411128913278
3.8927036443630603
2.9141425701278982
2.5941100175478624
4.163500419623101
3.837313394878028
3.825004450548036
3.9234760051880535
4.138882530963089
4.0711833371480655
3.61575239693801
3.886549172198051
3.9973296711680604
4.1758093639530935
3.5234353144630024
3.738841840238039
3.9111670608580615
4.335825640243124
4.54507769385315
4.157345947458091
4.261971974263091
4.446606139213133
3.8126955062180454
3.658833702093023
3.8434678670430373
4.077337809313075
2.9818417639429216
2.4156303247628297
3.7265328959080186
3.9788662546730578
4.212736196943095
3.504971897968001
3.7449963124030208
3.9234760051880535
4.3727524732331275
3.554207675287996
3.695760535083026
3.9234760051880535
4.27428091859311
3.7757686732280415
3.7942320897230433
4.2065817247780855
4.231199613438097
4.028102031993082
3.6219068691030203
3.9234760051880535
4.003484143333068
4.261971974263091
3.4926629536379816
3.8434678670430373
4.015793087663061
4.200427252613103
3.541898730958004
3.6834515907530063
3.788077617558033
3.9911751990030497
3.732687368073029
3.609597924773
3.8680857557030492
4.089646753643067
4.0465654484880815
3.5357442587929944
3.8188499783830263
3.9542483660130467
4.298898807253093
3.529589786627985
3.8496223392080475
3.9173215330230438
4.298898807253093
3.418809287657976
3.6649881742580046
3.8680857557030492
4.200427252613103
3.8126955062180454
3.677297118588024
3.831158922713046
4.114264642303079
4.034256504158063
3.5234353144630024
3.8434678670430373
3.9911751990030497
4.1327280587980795
3.4741995371429804
4.483532972203136
4.021947559828071
4.495841916533128
3.560362147453006
3.7449963124030208
3.8619312835380395
4.2681264464281
3.763459728898022
3.61575239693801
3.886549172198051
4.151191475293081
4.040410976323072
3.486508481473
3.8803947000330408
3.837313394878028
4.163500419623101
3.4311182319879947
3.738841840238039
3.948093893848065
4.354289056738125
3.591134508277999
3.7142239515780275
3.948093893848065
4.329671168078114
3.8188499783830263
3.6034434526080172
3.7942320897230433
4.138882530963089
4.249663029933098
3.591134508277999
3.825004450548036
4.021947559828071
4.225045141273086
3.4741995371429804
3.8126955062180454
3.9419394216830552
4.329671168078114
3.6219068691030203
3.9911751990030497
4.994354161898196
5.21591515983824
3.9973296711680604
3.560362147453006
3.788077617558033
4.169654891788083
4.145037003128072
3.2034027618829395
2.347931130947833
3.652679229928013
4.323516695913104
3.591134508277999
3.8680857557030492
3.9296304773530633
4.335825640243124
3.560362147453006
3.652679229928013
3.9911751990030497
4.237354085603107
3.7265328959080186
3.560362147453006
3.9050125886930522
4.12657358663307
4.003484143333068
3.486508481473
3.7942320897230433
3.9911751990030497
4.3112077515831135
3.468045064977998
3.7265328959080186
3.9050125886930522
4.27428091859311
3.449581648482997
3.720378423743037
3.9111670608580615
4.243508557768089
3.8496223392080475
3.652679229928013
3.8988581165280416
4.895882607258178
3.800386561888025
3.1726304010579467
3.8680857557030492
4.065028864983084
4.341980112408105
3.541898730958004
3.763459728898022
4.040410976323072
4.421988250553122
3.701915007248036
3.800386561888025
3.948093893848065
4.354289056738125
3.8803947000330408
3.609597924773
3.9419394216830552
4.083492281478085
4.095801225808078
3.541898730958004
3.9542483660130467
4.052719920653064
4.329671168078114
3.4434271763179867
3.6219068691030203
4.231199613438097
4.508150860863147
3.591134508277999
3.781923145393024
3.9357849495180455
4.329671168078114
3.9296304773530633
3.75730525673304
3.9419394216830552
4.151191475293081
4.095801225808078
3.5665166196180156
3.9665573103430654
4.0465654484880815
4.27428091859311
3.7696142010630322
3.8126955062180454
4.009638615498079
4.341980112408105
3.609597924773
3.75115078456803
3.9727117825080476
4.385061417563119
3.9357849495180455
3.504971897968001
3.8434678670430373
4.1942727804480935
4.181963836118102
3.560362147453006
3.8619312835380395
3.948093893848065
4.335825640243124
3.4126548154929934
3.8188499783830263
3.9665573103430654
4.3727524732331275
3.572671091782997
3.7696142010630322
4.028102031993082
4.40352483405812
3.7449963124030208
3.652679229928013
3.8680857557030492
4.157345947458091
4.108110170138069
3.554207675287996
3.855776811373057
4.065028864983084
4.231199613438097
3.486508481473
3.8065410340530352
3.8988581165280416
4.157345947458091
3.732687368073029
3.7757686732280415
4.058874392818074
4.181963836118102
4.440451667048122
5.308232242313249
3.6834515907530063
4.095801225808078
4.077337809313075
3.4434271763179867
2.4525571577528327
3.191093817552948
4.27428091859311
3.652679229928013
3.825004450548036
3.9542483660130467
4.37890694539811
3.652679229928013
3.7449963124030208
3.9050125886930522
4.3112077515831135
3.8619312835380395
3.6834515907530063
3.886549172198051
4.163500419623101
4.138882530963089
3.732687368073029
3.825004450548036
3.9665573103430654
4.2681264464281
3.6034434526080172
3.886549172198051
4.034256504158063
4.391215889728128
3.652679229928013
3.7449963124030208
4.003484143333068
4.415833778388112
3.75730525673304
3.7449963124030208
3.9542483660130467
4.1758093639530935
4.077337809313075
3.529589786627985
3.9173215330230438
3.9665573103430654
4.3112077515831135
3.6034434526080172
3.8434678670430373
3.9911751990030497
4.391215889728128
3.6465247577630033
3.831158922713046
3.9419394216830552
4.428142722718132
4.003484143333068
3.640370285598021
4.015793087663061
4.212736196943095
4.089646753643067
3.6465247577630033
3.9050125886930522
4.065028864983084
4.385061417563119
3.628061341268002
3.8988581165280416
3.9850207268380675
4.292744335088111
3.4126548154929934
4.1942727804480935
4.015793087663061
4.292744335088111
3.825004450548036
3.7757686732280415
3.8988581165280416
4.169654891788083
4.114264642303079
3.4126548154929934
3.8680857557030492
4.021947559828071
4.261971974263091
3.548053203123014
3.781923145393024
3.8803947000330408
4.2865898629231
3.658833702093023
3.8126955062180454
3.8434678670430373
4.2681264464281
3.874240227868059
3.695760535083026
3.8619312835380395
4.12657358663307
4.120419114468088
3.609597924773
3.8680857557030492
4.169654891788083
5.271305409323245
5.6713461000482965
3.720378423743037
3.9727117825080476
4.40967930622313
3.658833702093023
3.781923145393024
3.9788662546730578
3.738841840238039
2.323313242287822
3.5172808422979926
3.8619312835380395
4.163500419623101
4.083492281478085
3.283410900027955
3.529589786627985
4.0711833371480655
4.261971974263091
3.4926629536379816
3.781923145393024
4.034256504158063
4.40967930622313
3.5972889804430093
3.738841840238039
3.9357849495180455
4.231199613438097
3.8065410340530352
3.701915007248036
3.9604028381780574
4.7420208031331565
5.628264794893284
3.3449556216779697
3.0126141247679152
2.587955545382853
4.151191475293081
3.504971897968001
3.837313394878028
3.9604028381780574
4.27428091859311
3.6834515907530063
3.8188499783830263
3.9357849495180455
4.840492357773174
4.391215889728128
3.7757686732280415
3.9850207268380675
4.249663029933098
4.0711833371480655
3.6649881742580046
3.781923145393024
3.9788662546730578
4.348134584573115
3.548053203123014
3.788077617558033
3.874240227868059
4.323516695913104
3.4311182319879947
3.2034027618829395
3.7942320897230433
4.471224027873144
3.8188499783830263
3.720378423743037
3.9727117825080476
4.169654891788083
4.212736196943095
3.5665166196180156
3.9234760051880535
4.077337809313075
4.2681264464281
3.609597924773
4.065028864983084
4.3112077515831135
4.452760611378115
3.658833702093023
3.7696142010630322
3.9111670608580615
4.3112077515831135
3.8496223392080475
3.671142646423015
3.948093893848065
4.108110170138069
3.9542483660130467
3.529589786627985
3.8065410340530352
3.9050125886930522
3.9296304773530633
3.4557361206479786
3.720378423743037
4.015793087663061
4.3112077515831135
3.578825563948007
3.7449963124030208
3.8065410340530352
3.9788662546730578
4.157345947458091
3.658833702093023
3.9296304773530633
4.009638615498079
4.1942727804480935
3.504971897968001
3.825004450548036
4.0711833371480655
4.323516695913104
3.572671091782997
3.8927036443630603
3.9173215330230438
4.3727524732331275
3.677297118588024
3.788077617558033
3.9727117825080476
4.335825640243124
3.7757686732280415
3.8126955062180454
4.557386638183142
4.2865898629231
4.034256504158063
3.560362147453006
3.9111670608580615
4.095801225808078
4.249663029933098
3.572671091782997
3.8126955062180454
3.9357849495180455
4.348134584573115
3.6649881742580046
3.7696142010630322
3.855776811373057
3.658833702093023
3.652679229928013
3.652679229928013
3.8988581165280416
4.188118308283084
4.120419114468088
3.591134508277999
3.948093893848065
4.120419114468088
4.249663029933098
3.695760535083026
3.9419394216830552
4.009638615498079
4.421988250553122
3.5849800361130173
3.738841840238039
3.9296304773530633
4.249663029933098
3.8434678670430373
3.75730525673304
3.9296304773530633
4.231199613438097
4.108110170138069
3.652679229928013
4.3173622237481215
5.3143867144782595
4.754329747463175
3.658833702093023
3.8126955062180454
3.9727117825080476
4.440451667048122
3.6896060629180156
3.529589786627985
2.4648661020828517
4.003484143333068
3.886549172198051
3.75115078456803
4.003484143333068
4.188118308283084
4.163500419623101
3.7942320897230433
4.003484143333068
4.108110170138069
4.292744335088111
3.634215813433012
3.9604028381780574
4.0465654484880815
4.458915083543125
3.75115078456803
3.8434678670430373
4.009638615498079
4.3727524732331275
3.8496223392080475
3.7080694794130173
3.9050125886930522
4.298898807253093
4.7420208031331565
4.009638615498079
3.9727117825080476
4.145037003128072
4.458915083543125
3.640370285598021
3.9357849495180455
4.015793087663061
4.458915083543125
3.7942320897230433
3.874240227868059
4.0465654484880815
4.391215889728128
3.886549172198051
3.363419038172971
3.634215813433012
4.065028864983084
4.120419114468088
3.671142646423015
3.9542483660130467
4.1327280587980795
4.3727524732331275
3.609597924773
3.9050125886930522
4.058874392818074
4.3727524732331275
3.6465247577630033
3.8496223392080475
3.9604028381780574
4.249663029933098
3.9111670608580615
3.5972889804430093
3.5357442587929944
4.563541110348153
4.200427252613103
3.5665166196180156
3.9111670608580615
4.181963836118102
4.391215889728128
3.5172808422979926
3.874240227868059
3.9911751990030497
4.6004679433381535
3.6834515907530063
3.75730525673304
3.9419394216830552
4.40352483405812
3.9419394216830552
3.7942320897230433
3.8803947000330408
4.200427252613103
4.181963836118102
3.671142646423015
3.9050125886930522
4.077337809313075
4.348134584573115
3.7080694794130173
3.800386561888025
3.9542483660130467
4.452760611378115
3.640370285598021
3.800386561888025
4.034256504158063
4.360443528903107
3.948093893848065
3.634215813433012
3.9234760051880535
4.212736196943095
4.181963836118102
3.560362147453006
3.825004450548036
4.237354085603107
4.514305333028129
3.486508481473
3.8065410340530352
4.009638615498079
4.428142722718132
3.548053203123014
3.8188499783830263
3.9911751990030497
4.385061417563119
3.75115078456803
3.634215813433012
3.9050125886930522
4.200427252613103
4.021947559828071
3.548053203123014
3.8988581165280416
4.114264642303079
4.237354085603107
4.040410976323072
5.092825716538213
4.138882530963089
4.415833778388112
3.652679229928013
3.6896060629180156
2.624882378372884
3.406500343327984
3.9419394216830552
3.6649881742580046
3.8619312835380395
4.181963836118102
4.12657358663307
3.554207675287996
3.8803947000330408
4.009638615498079
4.249663029933098
3.48035400930799
3.781923145393024
3.9419394216830552
4.292744335088111
3.701915007248036
3.8065410340530352
3.7696142010630322
4.188118308283084
3.8065410340530352
3.6219068691030203
3.855776811373057
4.120419114468088
4.120419114468088
3.628061341268002
3.788077617558033
4.040410976323072
4.298898807253093
3.48035400930799
3.8126955062180454
4.003484143333068
4.385061417563119
3.640370285598021
3.61575239693801
3.8619312835380395
4.329671168078114
3.825004450548036
3.5849800361130173
3.9173215330230438
4.249663029933098
5.788281071183316
3.35111009384298
4.108110170138069
3.9727117825080476
4.348134584573115
3.9973296711680604
3.9234760051880535
3.738841840238039
2.8095165433228986
3.043386485592936
3.8188499783830263
3.9604028381780574
4.348134584573115
3.8988581165280416
3.634215813433012
4.145037003128072
4.27428091859311
4.077337809313075
3.5665166196180156
3.548053203123014
3.8188499783830263
4.3112077515831135
3.4988174258029914
3.8126955062180454
3.9357849495180455
4.292744335088111
3.591134508277999
3.781923145393024
3.9173215330230438
4.2681264464281
3.781923145393024
3.5849800361130173
3.9050125886930522
4.077337809313075
3.9604028381780574
3.529589786627985
3.8126955062180454
3.9850207268380675
4.261971974263091
3.4926629536379816
3.8496223392080475
3.9788662546730578
4.37890694539811
3.609597924773
3.8434678670430373
3.9604028381780574
4.385061417563119
3.7757686732280415
3.548053203123014
3.9050125886930522
4.218890669108104
4.12657358663307
3.61575239693801
3.9357849495180455
3.9850207268380675
4.40967930622313
3.5172808422979926
3.837313394878028
4.015793087663061
4.446606139213133
3.5665166196180156
3.8065410340530352
3.9911751990030497
3.9850207268380675
3.9911751990030497
3.788077617558033
3.9111670608580615
4.181963836118102
4.083492281478085
3.548053203123014
3.8988581165280416
3.9727117825080476
4.354289056738125
3.554207675287996
3.8434678670430373
4.483532972203136
5.455939574273261
5.326695658808251
3.5665166196180156
3.264947483532954
2.8895246814679143
3.6465247577630033
3.628061341268002
3.9173215330230438
4.2865898629231
4.169654891788083
3.541898730958004
3.9788662546730578
4.114264642303079
4.028102031993082
3.166475928892937
3.8065410340530352
3.9604028381780574
4.385061417563119
3.5234353144630024
3.8126955062180454
3.9050125886930522
4.298898807253093
3.8126955062180454
3.701915007248036
3.9542483660130467
4.218890669108104
4.095801225808078
3.634215813433012
3.7449963124030208
4.052719920653064
4.249663029933098
3.468045064977998
3.8434678670430373
4.058874392818074
4.397370361893111
3.6834515907530063
3.7449963124030208
3.8496223392080475
4.341980112408105
3.855776811373057
3.7449963124030208
4.145037003128072
4.501996388698137
4.138882530963089
3.5172808422979926
3.9111670608580615
4.114264642303079
4.335825640243124
3.4988174258029914
3.8803947000330408
4.034256504158063
4.452760611378115
3.504971897968001
3.7080694794130173
3.948093893848065
4.261971974263091
3.75730525673304
3.6465247577630033
3.9357849495180455
4.1758093639530935
4.151191475293081
3.5972889804430093
3.9111670608580615
3.9357849495180455
4.003484143333068
3.800386561888025
3.948093893848065
3.9727117825080476
4.329671168078114
3.5849800361130173
3.609597924773
3.886549172198051
4.280435390758092
3.7942320897230433
3.7265328959080186
4.052719920653064
4.181963836118102
4.138882530963089
3.578825563948007
3.9111670608580615
4.0465654484880815
4.298898807253093
3.572671091782997
4.009638615498079
3.837313394878028
4.415833778388112
3.548053203123014
3.7696142010630322
3.9296304773530633
4.243508557768089
3.788077617558033
3.652679229928013
3.8619312835380395
4.101955697973087
4.077337809313075
3.5849800361130173
3.9604028381780574
4.028102031993082
4.298898807253093
3.5665166196180156
3.781923145393024
3.9542483660130467
4.37890694539811
3.628061341268002
3.720378423743037
3.886549172198051
4.323516695913104
3.8927036443630603
3.7142239515780275
3.8988581165280416
4.12657358663307
4.157345947458091
3.6896060629180156
3.7942320897230433
4.040410976323072
4.249663029933098
3.511126370132983
3.8803947000330408
3.9727117825080476
4.3727524732331275
3.6649881742580046
3.7757686732280415
4.446606139213133
5.505175351593283
4.1758093639530935
3.788077617558033
4.034256504158063
4.2065817247780855
4.101955697973087
3.6034434526080172
3.634215813433012
2.55718318455786
3.788077617558033
3.548053203123014
3.886549172198051
4.009638615498079
4.428142722718132
3.541898730958004
3.8927036443630603
3.9173215330230438
4.305053279418103
3.75730525673304
3.61575239693801
3.886549172198051
4.225045141273086
4.120419114468088
3.6465247577630033
3.7757686732280415
3.9850207268380675
4.2681264464281
3.554207675287996
3.8680857557030492
3.9234760051880535
4.305053279418103
3.4741995371429804
3.554207675287996
3.874240227868059
4.292744335088111
3.7142239515780275
3.5849800361130173
3.8803947000330408
4.181963836118102
4.095801225808078
3.609597924773
3.837313394878028
4.077337809313075
4.237354085603107
3.61575239693801
3.9850207268380675
3.9542483660130467
4.335825640243124
3.6219068691030203
3.874240227868059
3.9727117825080476
4.2865898629231
3.732687368073029
3.7449963124030208
3.9604028381780574
4.120419114468088
4.015793087663061
3.554207675287996
3.9542483660130467
4.803565524783171
4.778947636123188
3.640370285598021
3.75115078456803
3.6896060629180156
4.723557386638155
3.701915007248036
3.781923145393024
3.9542483660130467
4.3173622237481215
3.837313394878028
3.720378423743037
3.9727117825080476
4.169654891788083
3.5234353144630024
3.154166984562945
3.831158922713046
4.058874392818074
4.188118308283084
3.4926629536379816
3.9111670608580615
3.9050125886930522
4.37890694539811
3.634215813433012
3.701915007248036
3.8680857557030492
4.255817502098108
3.8496223392080475
3.8927036443630603
4.015793087663061
4.163500419623101
4.077337809313075
3.591134508277999
3.825004450548036
4.0711833371480655
4.37890694539811
3.640370285598021
3.7449963124030208
3.9357849495180455
4.354289056738125
3.511126370132983
3.732687368073029
3.8803947000330408
4.108110170138069
3.7449963124030208
3.5665166196180156
3.9050125886930522
4.163500419623101
3.9727117825080476
3.504971897968001
3.8126955062180454
3.9788662546730578
4.243508557768089
3.468045064977998
3.7696142010630322
3.9234760051880535
4.231199613438097
3.381882454667973
3.7696142010630322
3.886549172198051
5.148215966023217
4.67432160931816
4.163500419623101
3.948093893848065
3.5172808422979926
4.0465654484880815
3.5665166196180156
3.8619312835380395
2.8095165433228986
3.221866178377941
3.554207675287996
3.8496223392080475
3.886549172198051
4.243508557768089
3.529589786627985
3.886549172198051
3.9604028381780574
4.200427252613103
3.800386561888025
3.6034434526080172
3.837313394878028
4.12657358663307
4.058874392818074
3.5665166196180156
3.9788662546730578
4.0465654484880815
4.243508557768089
3.449581648482997
3.8126955062180454
3.9727117825080476
4.40967930622313
3.658833702093023
3.800386561888025
3.8496223392080475
4.261971974263091
3.8496223392080475
3.720378423743037
3.837313394878028
4.145037003128072
4.114264642303079
3.548053203123014
3.8065410340530352
4.052719920653064
4.2865898629231
3.5172808422979926
3.8496223392080475
4.058874392818074
4.3727524732331275
3.640370285598021
3.720378423743037
3.9604028381780574
4.298898807253093
3.7449963124030208
3.8680857557030492
3.874240227868059
4.169654891788083
4.218890669108104
3.511126370132983
3.8619312835380395
4.0711833371480655
4.335825640243124
3.554207675287996
3.8126955062180454
3.9850207268380675
4.3727524732331275
3.609597924773
4.717402914473173
5.19129727117823
4.569695582513134
3.8619312835380395
3.5357442587929944
2.871061264972913
3.831158922713046
4.015793087663061
3.548053203123014
3.9050125886930522
4.028102031993082
4.3173622237481215
3.486508481473
3.8496223392080475
3.9419394216830552
3.701915007248036
3.363419038172971
3.732687368073029
3.9234760051880535
4.261971974263091
3.720378423743037
3.677297118588024
3.9727117825080476
4.12657358663307
3.9973296711680604
3.424963759822985
3.9604028381780574
3.9604028381780574
4.341980112408105
4.163500419623101
4.0711833371480655
3.8803947000330408
4.37890694539811
3.6034434526080172
3.75730525673304
3.8988581165280416
4.292744335088111
3.831158922713046
3.640370285598021
3.8803947000330408
4.108110170138069
4.040410976323072
4.065028864983084
4.748175275298167
4.058874392818074
4.2681264464281
3.4988174258029914
3.2403295948729705
2.9572238752829105
4.212736196943095
3.504971897968001
3.6219068691030203
3.886549172198051
4.323516695913104
3.8188499783830263
3.560362147453006
3.886549172198051
3.720378423743037
4.292744335088111
4.67432160931816
4.015793087663061
3.5357442587929944
2.655654739197877
3.160321456727955
3.763459728898022
3.855776811373057
4.37890694539811
3.591134508277999
3.652679229928013
3.7696142010630322
4.225045141273086
3.695760535083026
3.3880369268329824
3.8496223392080475
4.108110170138069
4.021947559828071
3.4741995371429804
3.831158922713046
3.8434678670430373
4.169654891788083
3.4311182319879947
3.6834515907530063
3.8188499783830263
4.261971974263091
3.4988174258029914
3.9727117825080476
3.9850207268380675
4.2065817247780855
3.732687368073029
3.609597924773
3.8619312835380395
4.120419114468088
3.9788662546730578
3.554207675287996
3.7942320897230433
3.9234760051880535
4.188118308283084
3.4311182319879947
3.732687368073029
3.8927036443630603
4.2681264464281
3.5357442587929944
3.609597924773
3.8126955062180454
4.188118308283084
3.628061341268002
3.695760535083026
3.825004450548036
4.12657358663307
4.12657358663307
3.357264566007961
3.781923145393024
3.9727117825080476
4.698939497978172
3.9911751990030497
3.7696142010630322
3.8988581165280416
4.40352483405812
3.4557361206479786
3.6034434526080172
3.781923145393024
4.101955697973087
3.461890592812989
3.800386561888025
3.831158922713046
4.163500419623101
3.9296304773530633
3.055695429922928
3.0987767350779407
3.8434678670430373
4.1942727804480935
3.381882454667973
3.75115078456803
3.9850207268380675
4.231199613438097
3.5357442587929944
3.677297118588024
3.8988581165280416
4.2681264464281
3.831158922713046
3.572671091782997
4.009638615498079
4.237354085603107
4.077337809313075
3.437272704152977
3.825004450548036
4.021947559828071
4.27428091859311
3.529589786627985
3.8065410340530352
3.7757686732280415
4.354289056738125
3.591134508277999
3.7142239515780275
3.8988581165280416
4.2681264464281
3.720378423743037
3.6834515907530063
3.75730525673304
4.083492281478085
4.065028864983084
3.529589786627985
3.800386561888025
4.021947559828071
4.292744335088111
3.5665166196180156
3.677297118588024
3.8988581165280416
4.335825640243124
3.677297118588024
3.5357442587929944
3.855776811373057
4.335825640243124
3.825004450548036
3.6034434526080172
3.9111670608580615
4.145037003128072
4.0465654484880815
3.486508481473
3.9173215330230438
4.520459805193139
5.523638768088285
3.837313394878028
3.8927036443630603
4.015793087663061
4.569695582513134
3.652679229928013
3.8188499783830263
3.8188499783830263
2.8649067928079033
3.3388011495129604
3.6219068691030203
3.886549172198051
4.243508557768089
4.1942727804480935
3.6896060629180156
3.9357849495180455
4.181963836118102
4.3112077515831135
3.4741995371429804
3.9050125886930522
4.065028864983084
4.415833778388112
3.7265328959080186
3.855776811373057
3.9604028381780574
4.3112077515831135
3.886549172198051
3.7080694794130173
3.9665573103430654
4.292744335088111
4.1942727804480935
3.7265328959080186
3.9788662546730578
4.101955697973087
4.348134584573115
3.652679229928013
3.886549172198051
4.009638615498079
4.489687444368147
3.701915007248036
3.8619312835380395
3.9604028381780574
4.243508557768089
3.9173215330230438
3.7696142010630322
3.9788662546730578
4.1942727804480935
4.145037003128072
3.695760535083026
3.9234760051880535
4.065028864983084
4.27428091859311
3.5172808422979926
3.9173215330230438
4.095801225808078
4.452760611378115
3.652679229928013
3.75115078456803
4.065028864983084
5.012817578393197
4.212736196943095
3.763459728898022
3.8126955062180454
3.9542483660130467
4.446606139213133
3.7265328959080186
3.9727117825080476
4.028102031993082
4.366598001068117
3.6219068691030203
3.886549172198051
4.483532972203136
6.249866483558382
3.0310775412629165
3.3880369268329824
3.9604028381780574
4.360443528903107
3.8988581165280416
3.720378423743037
3.363419038172971
2.711044988682881
3.9173215330230438
3.5172808422979926
3.9234760051880535
4.120419114468088
4.305053279418103
3.634215813433012
3.9542483660130467
3.9727117825080476
4.40967930622313
3.75115078456803
3.8680857557030492
3.9973296711680604
4.415833778388112
3.8434678670430373
3.800386561888025
3.8434678670430373
4.218890669108104
4.145037003128072
3.652679229928013
3.9234760051880535
4.2865898629231
4.514305333028129
3.658833702093023
3.8188499783830263
3.9911751990030497
4.471224027873144
3.7080694794130173
3.8927036443630603
4.009638615498079
4.385061417563119
3.9665573103430654
3.6649881742580046
3.9542483660130467
4.225045141273086
4.083492281478085
3.4741995371429804
3.9173215330230438
4.028102031993082
4.391215889728128
3.424963759822985
4.477378500038126
5.7082729330383
4.212736196943095
3.7080694794130173
3.7757686732280415
3.9050125886930522
3.271101955697964
2.6371913227028756
3.671142646423015
3.9296304773530633
4.157345947458091
4.157345947458091
3.671142646423015
3.855776811373057
4.138882530963089
4.212736196943095
3.572671091782997
3.855776811373057
4.028102031993082
4.341980112408105
3.6219068691030203
3.8065410340530352
4.348134584573115
4.9266549680832
3.8803947000330408
3.6649881742580046
3.8988581165280416
4.27428091859311
4.145037003128072
3.6649881742580046
3.9788662546730578
3.9788662546730578
4.280435390758092
3.591134508277999
3.9234760051880535
4.028102031993082
4.120419114468088
2.858752320642893
3.6219068691030203
3.831158922713046
4.243508557768089
3.9173215330230438
3.5849800361130173
3.9234760051880535
4.1942727804480935
4.12657358663307
3.6649881742580046
3.8126955062180454
4.021947559828071
4.292744335088111
3.6465247577630033
3.9234760051880535
3.9357849495180455
4.360443528903107
3.720378423743037
3.695760535083026
3.8680857557030492
4.2681264464281
3.7696142010630322
3.634215813433012
3.9234760051880535
4.218890669108104
4.009638615498079
3.363419038172971
3.8188499783830263
5.0497444113832
4.5327687495231315
3.511126370132983
3.9234760051880535
3.948093893848065
4.335825640243124
3.6034434526080172
3.7265328959080186
3.8988581165280416
4.261971974263091
3.8434678670430373
3.6649881742580046
3.8927036443630603
4.0465654484880815
3.308028788687967
3.468045064977998
3.8188499783830263
3.9665573103430654
4.1942727804480935
3.529589786627985
3.8188499783830263
3.9419394216830552
4.249663029933098
3.511126370132983
3.6834515907530063
3.874240227868059
4.1758093639530935
3.7696142010630322
3.6649881742580046
3.7757686732280415
4.0465654484880815
4.028102031993082
3.511126370132983
3.837313394878028
3.9973296711680604
4.237354085603107
3.5665166196180156
3.7942320897230433
3.855776811373057
4.237354085603107
3.511126370132983
3.800386561888025
3.9727117825080476
4.237354085603107
3.7942320897230433
3.634215813433012
3.695760535083026
4.089646753643067
3.9973296711680604
3.548053203123014
3.720378423743037
3.9911751990030497
4.218890669108104
3.394191398997992
3.6649881742580046
4.028102031993082
4.120419114468088
4.065028864983084
5.308232242313249
3.652679229928013
3.837313394878028
2.0955977721827947
3.2957198443579747
3.8126955062180454
4.120419114468088
3.9665573103430654
3.468045064977998
3.8126955062180454
3.948093893848065
4.2681264464281
4.028102031993082
4.028102031993082
3.9850207268380675
4.360443528903107
3.5234353144630024
3.7265328959080186
3.8619312835380395
4.2681264464281
3.720378423743037
3.628061341268002
3.8126955062180454
4.108110170138069
4.015793087663061
3.4557361206479786
3.264947483532954
3.554207675287996
4.181963836118102
3.4311182319879947
3.677297118588024
3.9173215330230438
4.249663029933098
3.48035400930799
3.763459728898022
3.6896060629180156
4.225045141273086
3.738841840238039
3.6219068691030203
3.8188499783830263
4.138882530963089
3.9604028381780574
3.591134508277999
3.788077617558033
3.9173215330230438
4.218890669108104
3.4434271763179867
3.8126955062180454
3.9296304773530633
4.391215889728128
3.554207675287996
3.6219068691030203
3.886549172198051
4.335825640243124
4.298898807253093
4.120419114468088
3.9111670608580615
4.181963836118102
4.200427252613103
3.554207675287996
3.855776811373057
4.028102031993082
4.200427252613103
3.3141832608529764
4.138882530963089
3.9850207268380675
4.477378500038126
3.5172808422979926
3.486508481473
3.486508481473
4.151191475293081
3.8126955062180454
3.671142646423015
3.948093893848065
4.231199613438097
4.089646753643067
3.61575239693801
3.9111670608580615
4.089646753643067
4.3112077515831135
3.5234353144630024
3.800386561888025
4.052719920653064
4.2865898629231
3.591134508277999
3.800386561888025
3.9111670608580615
4.335825640243124
3.8803947000330408
3.671142646423015
3.9850207268380675
4.120419114468088
4.095801225808078
3.578825563948007
3.9296304773530633
4.058874392818074
4.569695582513134
3.9788662546730578
3.9173215330230438
3.948093893848065
4.40967930622313
3.658833702093023
3.837313394878028
3.9604028381780574
4.335825640243124
3.8803947000330408
3.7696142010630322
3.8496223392080475
4.163500419623101
4.169654891788083
3.48035400930799
3.4311182319879947
4.040410976323072
4.329671168078114
3.652679229928013
3.6896060629180156
3.9727117825080476
4.37890694539811
3.572671091782997
3.7265328959080186
3.9296304773530633
4.772793163958178
4.951272856743211
3.8803947000330408
3.9604028381780574
4.200427252613103
4.095801225808078
3.5234353144630024
3.874240227868059
3.8496223392080475
2.9141425701278982
2.772589710332896
3.763459728898022
3.9234760051880535
4.2865898629231
3.578825563948007
3.671142646423015
3.9050125886930522
4.40352483405812
3.677297118588024
3.4926629536379816
3.886549172198051
4.151191475293081
4.065028864983084
3.48035400930799
3.9788662546730578
5.726736349533301
4.083492281478085
3.831158922713046
3.788077617558033
3.8803947000330408
4.335825640243124
3.634215813433012
3.363419038172971
2.2925408814628288
3.8496223392080475
3.837313394878028
3.634215813433012
3.8619312835380395
4.1327280587980795
4.040410976323072
3.5357442587929944
3.9357849495180455
4.052719920653064
4.2681264464281
3.4434271763179867
3.831158922713046
3.9542483660130467
4.354289056738125
3.6034434526080172
3.7265328959080186
3.9111670608580615
4.280435390758092
3.800386561888025
3.591134508277999
3.8988581165280416
4.083492281478085
4.083492281478085
3.548053203123014
3.763459728898022
4.058874392818074
5.018972050558207
3.825004450548036
3.8188499783830263
3.9665573103430654
4.3112077515831135
3.424963759822985
3.652679229928013
3.8434678670430373
4.243508557768089
3.738841840238039
3.541898730958004
3.837313394878028
4.157345947458091
3.8188499783830263
2.797207598992907
3.4741995371429804
3.9296304773530633
4.095801225808078
3.394191398997992
3.7142239515780275
3.837313394878028
4.237354085603107
3.418809287657976
3.591134508277999
3.788077617558033
4.188118308283084
3.6219068691030203
3.5357442587929944
3.763459728898022
4.40352483405812
4.101955697973087
3.3880369268329824
3.701915007248036
3.8680857557030492
4.1327280587980795
3.3388011495129604
3.5665166196180156
3.7942320897230433
4.329671168078114
3.461890592812989
3.5665166196180156
3.800386561888025
4.508150860863147
3.9850207268380675
3.5849800361130173
3.8065410340530352
4.120419114468088
3.9419394216830552
3.4311182319879947
3.75730525673304
3.9973296711680604
4.218890669108104
3.394191398997992
3.75730525673304
3.855776811373057
4.354289056738125
2.994150708272913
3.160321456727955
3.6896060629180156
4.218890669108104
3.7265328959080186
3.4311182319879947
4.27428091859311
5.289768825818246
4.2065817247780855
3.4126548154929934
3.781923145393024
4.003484143333068
3.375727982502963
1.9848172732127856
3.75730525673304
3.9665573103430654
4.329671168078114
3.3695735103379807
3.628061341268002
3.831158922713046
4.465069555708134
3.548053203123014
3.4741995371429804
3.8496223392080475
4.27428091859311
4.009638615498079
3.3141832608529764
3.781923145393024
4.397370361893111
4.7297118588031655
3.3141832608529764
3.800386561888025
3.9050125886930522
4.483532972203136
3.381882454667973
3.578825563948007
4.0711833371480655
4.452760611378115
3.6034434526080172
3.529589786627985
3.8680857557030492
4.366598001068117
3.855776811373057
2.8649067928079033
3.831158922713046
4.040410976323072
4.27428091859311
2.8279799598179
3.3388011495129604
3.658833702093023
4.40352483405812
3.141858040232953
3.4311182319879947
3.511126370132983
4.1327280587980795
3.277256427862973
3.289565372192965
3.6034434526080172
3.9911751990030497
3.75730525673304
2.9818417639429216
3.283410900027955
3.5234353144630024
3.9542483660130467
2.9510694031179288
3.394191398997992
3.4926629536379816
4.360443528903107
3.308028788687967
3.289565372192965
3.3141832608529764
4.348134584573115
3.277256427862973
2.901833625797906
3.258793011367972
3.658833702093023
3.332646677347978
2.760280766002876
3.332646677347978
3.652679229928013
4.009638615498079
2.8895246814679143
3.406500343327984
3.634215813433012
4.249663029933098
2.9510694031179288
3.437272704152977
3.788077617558033
4.360443528903107
3.7142239515780275
3.548053203123014
3.8496223392080475
4.255817502098108
4.021947559828071
3.554207675287996
4.101955697973087
4.292744335088111
4.514305333028129
3.6834515907530063
4.114264642303079
4.225045141273086
4.723557386638155
3.701915007248036
3.9973296711680604
4.138882530963089
4.6435492484931675
3.8496223392080475
3.640370285598021
4.028102031993082
4.360443528903107
4.151191475293081
3.5172808422979926
3.837313394878028
4.169654891788083
4.434297194883113
3.4311182319879947
3.8680857557030492
3.9234760051880535
4.483532972203136
3.504971897968001
3.825004450548036
4.065028864983084
4.428142722718132
3.695760535083026
3.578825563948007
3.8680857557030492
4.157345947458091
3.8680857557030492
3.855776811373057
4.957427328908192
4.243508557768089
3.9296304773530633
1.757101803107758
3.264947483532954
3.75115078456803
4.329671168078114
3.264947483532954
3.486508481473
3.6649881742580046
4.2065817247780855
3.4988174258029914
3.2526385392029624
3.61575239693801
3.9788662546730578
3.781923145393024
3.215711706212959
3.541898730958004
3.7449963124030208
3.855776811373057
2.975687291777912
3.3388011495129604
3.720378423743037
4.0465654484880815
2.932605986622927
3.449581648482997
4.489687444368147
4.5943134711731455
3.468045064977998
3.418809287657976
3.788077617558033
4.341980112408105
4.188118308283084
3.578825563948007
3.9727117825080476
4.218890669108104
4.397370361893111
3.48035400930799
3.8434678670430373
4.089646753643067
3.9727117825080476
3.178784873222956
4.692785025813162
3.6896060629180156
4.188118308283084
3.825004450548036
3.7696142010630322
4.108110170138069
4.551232166018132
4.385061417563119
3.8927036443630603
4.218890669108104
4.471224027873144
4.840492357773174
4.465069555708134
4.785102108288171
4.575850054678144
5.092825716538213
4.12657358663307
4.3173622237481215
4.495841916533128
5.105134660868233
4.163500419623101
3.9727117825080476
4.895882607258178
4.945118384578201
4.723557386638155
4.009638615498079
4.021947559828071
4.188118308283084
4.778947636123188
3.837313394878028
4.280435390758092
4.366598001068117
5.043589939218219
3.695760535083026
4.083492281478085
4.225045141273086
4.711248442308165
3.8065410340530352
3.738841840238039
3.9665573103430654
4.6004679433381535
3.9173215330230438
3.4926629536379816
3.8988581165280416
4.083492281478085
4.163500419623101
3.3264922051829684
3.7449963124030208
3.9911751990030497
4.231199613438097
3.2403295948729705
3.658833702093023
3.825004450548036
4.323516695913104
3.825004450548036
3.9665573103430654
4.54507769385315
4.9881996897332135
3.9973296711680604
3.3695735103379807
3.788077617558033
3.831158922713046
3.9727117825080476
3.264947483532954
2.507947407237865
2.6925815721878803
4.065028864983084
3.215711706212959
3.289565372192965
2.9572238752829105
4.0465654484880815
3.3388011495129604
3.3880369268329824
3.4926629536379816
3.9050125886930522
3.5234353144630024
3.221866178377941
3.4126548154929934
3.560362147453006
3.9604028381780574
3.9727117825080476
2.7848986546628876
2.249459576307816
5.800590015513308
10.570305943389036
9.881005060908944
8.096208133058697
7.259199918618564
2.4402482134228407
2.1202156608428053
2.8095165433228986
3.886549172198051
4.243508557768089
4.858955774268176
5.382085908293255
5.597492434068291
5.455939574273261
3.9788662546730578
5.006663106228215
6.034459957783345
7.185346252638558
5.474402990768262
6.391419343353438
6.41603723201345
7.388443834083573
5.018972050558207
5.4620940464382715
5.505175351593283
5.899061570153325
4.27428091859311
3.3388011495129604
3.5172808422979926
3.4434271763179867
2.907988097962916
0.7600773123775938
1.4801505556827075
1.4986139721777092
2.3171587701228398
-0.7600773123775938
0.433890287632549
0.5200528979425745
1.8863457185727683
-0.7846952010376053
-0.44619923196256844
0.23694717835254234
1.1908903639276658
-0.3108008443325483
-1.1478090587726528
-0.033849596907498114
0.9877927824826491
1.4432237226927047
-0.5138984257775646
1.39398794537271
2.3110042979578305
4.0711833371480655
1.1601180031026725
2.975687291777912
3.720378423743037
5.862134737163322
3.363419038172971
4.009638615498079
4.735866330968175
6.237557539228389
4.526614277358149
4.095801225808078
5.105134660868233
6.077541262938357
6.292947788713393
3.634215813433012
5.234378576333243
5.702118460873318
7.129956003153555
3.375727982502963
4.760484219628157
5.166679382518219
7.000712087688543
3.8188499783830263
4.305053279418103
5.080516772208221
6.483736425828446
4.9266549680832
3.5234353144630024
4.803565524783171
5.677500572213306
6.034459957783345
3.1233946237379517
4.698939497978172
5.566720073243298
6.8345413392335015
2.895679153632896
4.348134584573115
4.834337885608192
6.6868340072734895
3.437272704152977
3.9173215330230438
4.754329747463175
6.040614429948354
4.3727524732331275
3.2464840670379527
4.452760611378115
5.302077770148239
5.320541186643241
2.4402482134228407
4.151191475293081
4.637394776328158
6.231403067063379
2.4156303247628297
3.855776811373057
4.2865898629231
6.2683299000533825
3.074158846417929
4.329671168078114
3.8988581165280416
5.419012741283257
4.298898807253093
3.3141832608529764
4.465069555708134
5.111289133033214
5.511329823758264
2.477175046412844
4.077337809313075
5.228224104168233
7.88695607944867
1.990971745377768
3.640370285598021
4.280435390758092
6.212939650568378
2.0217441062027888
1.7817196917677414
3.634215813433012
5.111289133033214
3.9973296711680604
2.624882378372884
3.9234760051880535
4.785102108288171
5.357468019633243
2.003280689707787
3.8126955062180454
4.329671168078114
5.9421428753083365
2.0955977721827947
3.504971897968001
4.021947559828071
6.126777040258352
2.877215737137895
3.1480125123979352
3.9973296711680604
5.388240380458265
3.9788662546730578
2.4525571577528327
3.8065410340530352
4.766638691793168
4.91434602375318
1.8001831082627426
3.4311182319879947
3.7449963124030208
5.031280994888199
1.104727753617668
2.298695353627811
2.8525978484779113
4.440451667048122
1.7632562752727399
2.2186872154828228
3.363419038172971
4.834337885608192
3.6034434526080172
2.1756059103278105
3.554207675287996
4.169654891788083
4.735866330968175
1.6647847206327224
3.264947483532954
3.7449963124030208
5.486711935098282
1.7632562752727399
3.166475928892937
3.468045064977998
5.369776963963263
2.526410823732866
2.606418961877855
3.504971897968001
4.803565524783171
3.6834515907530063
2.1571424938328088
3.301874316522957
4.1327280587980795
5.320541186643241
1.8063375804277528
3.3264922051829684
3.9173215330230438
5.554411128913278
1.7632562752727399
2.994150708272913
3.5849800361130173
5.437476157778259
2.655654739197877
2.612573434042864
3.5234353144630024
4.822028941278172
3.837313394878028
1.9848172732127856
3.418809287657976
4.237354085603107
4.91434602375318
1.8432644134177558
3.308028788687967
3.9234760051880535
5.529793240253267
1.9417359680577726
3.1480125123979352
3.7757686732280415
5.455939574273261
2.772589710332896
2.735662877342893
3.486508481473
4.803565524783171
4.089646753643067
2.347931130947833
3.6034434526080172
4.440451667048122
5.142061493858235
2.0709798835227837
3.5665166196180156
4.188118308283084
5.628264794893284
2.212532743317813
3.363419038172971
4.034256504158063
5.84367132066832
3.018768596932925
2.9818417639429216
4.009638615498079
5.166679382518219
4.212736196943095
2.483329518577854
3.825004450548036
4.67432160931816
5.2220696320032225
2.2740774649678275
3.701915007248036
4.181963836118102
5.8805981536583225
2.6371913227028756
4.200427252613103
5.615955850563292
5.474402990768262
2.729508405177883
1.3509066402176972
3.363419038172971
5.105134660868233
4.138882530963089
2.4402482134228407
3.781923145393024
4.557386638183142
5.068207827878203
2.200223798987821
3.215711706212959
3.948093893848065
5.652882683553296
2.224841687647805
3.332646677347978
3.8126955062180454
5.560565601078289
2.9387604587879093
2.901833625797906
3.7265328959080186
4.9389639124131905
4.065028864983084
2.3540856031128428
3.695760535083026
4.501996388698137
4.945118384578201
1.990971745377768
3.5972889804430093
4.040410976323072
5.597492434068291
2.083288827852803
3.215711706212959
3.8619312835380395
5.548256656748296
2.9202970422929075
2.8464433763129016
3.75115078456803
5.086671244373231
4.292744335088111
2.4894839907428636
3.720378423743037
4.489687444368147
5.135907021693225
2.052516467027782
3.634215813433012
4.169654891788083
5.757508710358322
2.255614048472826
3.424963759822985
5.757508710358322
5.523638768088285
3.3449556216779697
2.9818417639429216
3.8988581165280416
5.117443605198224
4.188118308283084
2.674118155692878
1.91096360723278
4.003484143333068
5.142061493858235
2.194069326822812
3.634215813433012
4.145037003128072
5.689809516543297
2.3971669082678284
3.4126548154929934
3.8496223392080475
5.437476157778259
2.994150708272913
3.0680043742529195
3.9665573103430654
5.185142799013221
4.255817502098108
2.544874240227868
3.825004450548036
4.662012664988168
5.19129727117823
2.2802319371328093
3.763459728898022
4.2865898629231
5.892907097988342
2.4156303247628297
3.406500343327984
4.003484143333068
5.646728211388286
3.0864677907479487
3.006459652602933
3.7942320897230433
5.351313547468262
4.0465654484880815
2.575646601052861
3.855776811373057
4.557386638183142
5.123598077363234
2.403321380432838
3.6834515907530063
4.323516695913104
5.585183489738299
2.329467714452832
3.4926629536379816
4.009638615498079
5.646728211388286
3.049540957757918
3.0618499020879373
4.058874392818074
4.982045217568204
4.077337809313075
2.631036850537866
4.212736196943095
5.135907021693225
5.2405330484982535
2.323313242287822
3.541898730958004
4.526614277358149
5.862134737163322
2.4648661020828517
3.6034434526080172
4.12657358663307
5.73904529386332
3.7265328959080186
4.569695582513134
3.886549172198051
4.803565524783171
3.554207675287996
2.655654739197877
3.9111670608580615
4.5820045268431535
5.209760687673231
1.0554919762976458
2.797207598992907
4.151191475293081
5.677500572213306
2.3848579639378364
3.511126370132983
3.9973296711680604
5.572874545408279
3.2034027618829395
3.0680043742529195
3.8803947000330408
5.135907021693225
4.0465654484880815
2.606418961877855
3.8927036443630603
4.54507769385315
5.105134660868233
2.2679229928028177
3.6219068691030203
4.188118308283084
5.628264794893284
2.323313242287822
3.449581648482997
4.0465654484880815
5.597492434068291
2.9879962361079313
3.0618499020879373
3.8803947000330408
5.043589939218219
4.058874392818074
2.606418961877855
3.7757686732280415
4.588158999008135
5.012817578393197
2.2925408814628288
3.6834515907530063
4.231199613438097
5.640573739223304
2.255614048472826
3.671142646423015
4.0465654484880815
5.505175351593283
3.080313318582939
3.1295490959029335
3.948093893848065
5.154370438188227
4.108110170138069
2.68642710002287
3.9111670608580615
4.569695582513134
5.148215966023217
2.871061264972913
3.9111670608580615
4.200427252613103
5.585183489738299
2.1632969659978185
3.886549172198051
4.028102031993082
5.646728211388286
3.0618499020879373
3.0126141247679152
3.886549172198051
5.080516772208221
4.12657358663307
2.68642710002287
3.437272704152977
4.37890694539811
4.994354161898196
2.2802319371328093
3.732687368073029
4.231199613438097
5.6590371557183055
2.3848579639378364
3.4434271763179867
4.0711833371480655
5.566720073243298
2.9633783474479203
3.0003051804379233
4.0465654484880815
5.148215966023217
3.9973296711680604
2.624882378372884
3.75730525673304
4.588158999008135
5.117443605198224
2.304849825792821
3.75730525673304
4.2865898629231
5.634419267058294
2.3848579639378364
3.5172808422979926
3.9911751990030497
5.615955850563292
3.658833702093023
3.468045064977998
4.028102031993082
5.111289133033214
4.101955697973087
2.704890516517872
3.9050125886930522
4.6435492484931675
5.043589939218219
2.3356221866178415
3.6834515907530063
4.255817502098108
5.646728211388286
2.3540856031128428
2.883370209302905
3.5172808422979926
5.523638768088285
3.043386485592936
3.092622262912931
3.9665573103430654
5.628264794893284
5.295923297983257
2.8095165433228986
3.9419394216830552
4.649703720658149
5.025126522723218
1.5970855268177266
2.212532743317813
4.662012664988168
6.132931512423362
2.4402482134228407
3.4741995371429804
3.9788662546730578
5.6036469062333
3.1233946237379517
3.1110856794079322
3.886549172198051
5.0743623000432105
4.101955697973087
2.6987360443528896
3.8680857557030492
4.551232166018132
4.705093970143154
1.89865466290276
3.6834515907530063
4.261971974263091
5.6590371557183055
2.391012436102846
3.5665166196180156
4.034256504158063
5.634419267058294
2.944914930952919
3.0864677907479487
3.9542483660130467
5.0497444113832
4.101955697973087
2.606418961877855
3.6649881742580046
4.6435492484931675
4.975890745403193
2.2740774649678275
3.6896060629180156
4.052719920653064
5.6713461000482965
2.3356221866178415
3.4741995371429804
4.065028864983084
5.486711935098282
2.994150708272913
3.141858040232953
4.366598001068117
5.714427405203311
4.188118308283084
2.661809211362886
4.040410976323072
4.538923221688139
5.080516772208221
2.3663945474428347
3.7757686732280415
4.231199613438097
5.683655044378289
2.4648661020828517
3.6034434526080172
3.9111670608580615
4.877419190763177
2.680272627857888
3.0864677907479487
3.9665573103430654
5.092825716538213
4.1327280587980795
2.704890516517872
3.763459728898022
4.563541110348153
5.098980188703223
2.3171587701228398
3.7449963124030208
4.212736196943095
5.7328908216983105
2.6987360443528896
3.8126955062180454
4.083492281478085
5.609801378398282
3.215711706212959
3.1233946237379517
3.9542483660130467
5.166679382518219
4.1942727804480935
2.618727906207874
3.8927036443630603
4.588158999008135
5.098980188703223
2.2925408814628288
3.701915007248036
4.083492281478085
5.7328908216983105
2.200223798987821
3.4311182319879947
4.0465654484880815
5.6590371557183055
3.092622262912931
3.0864677907479487
3.9173215330230438
5.142061493858235
4.114264642303079
2.612573434042864
3.855776811373057
4.711248442308165
5.345159075303252
2.255614048472826
3.7142239515780275
4.243508557768089
5.677500572213306
2.3171587701228398
3.418809287657976
4.034256504158063
5.609801378398282
3.0249230690979347
3.0618499020879373
3.9973296711680604
5.025126522723218
4.151191475293081
2.224841687647805
4.077337809313075
5.991378652628332
5.455939574273261
2.2925408814628288
3.8803947000330408
3.468045064977998
6.015996541288343
2.3356221866178415
3.400345871162974
4.058874392818074
5.634419267058294
2.772589710332896
1.5847765824877347
3.4926629536379816
5.148215966023217
4.2065817247780855
2.483329518577854
3.800386561888025
4.612776887668146
5.2405330484982535
2.212532743317813
3.578825563948007
4.212736196943095
5.83751684850331
2.286386409297819
3.375727982502963
4.0465654484880815
5.73904529386332
3.1295490959029335
3.049540957757918
3.9604028381780574
5.252841992828244
4.163500419623101
2.544874240227868
3.9050125886930522
4.662012664988168
5.209760687673231
2.1448335495027893
3.7142239515780275
4.298898807253093
5.782126599018307
2.434093741257831
3.35111009384298
4.040410976323072
5.7082729330383
3.043386485592936
2.994150708272913
3.8988581165280416
5.117443605198224
4.151191475293081
2.563337656722869
3.781923145393024
4.575850054678144
5.185142799013221
2.212532743317813
3.634215813433012
4.225045141273086
5.695963988708308
2.194069326822812
3.357264566007961
4.0711833371480655
5.677500572213306
3.006459652602933
2.9264515144579173
3.8927036443630603
5.203606215508222
4.145037003128072
2.0955977721827947
3.9788662546730578
4.7420208031331565
5.203606215508222
2.138679077337807
3.634215813433012
4.2065817247780855
5.763663182523304
2.261768520637808
3.363419038172971
3.9911751990030497
5.597492434068291
3.055695429922928
3.0310775412629165
3.9296304773530633
5.0743623000432105
4.3112077515831135
2.471020574247862
3.7942320897230433
4.655858192823159
5.2405330484982535
2.1571424938328088
3.634215813433012
4.218890669108104
5.892907097988342
2.194069326822812
3.394191398997992
3.9973296711680604
5.640573739223304
3.0618499020879373
2.9879962361079313
3.8434678670430373
5.0743623000432105
4.12657358663307
2.501792935072855
3.831158922713046
4.5327687495231315
5.271305409323245
2.249459576307816
3.7265328959080186
4.225045141273086
5.7451997660283025
2.298695353627811
3.400345871162974
4.483532972203136
6.286793316548384
3.154166984562945
3.006459652602933
4.052719920653064
5.0743623000432105
4.218890669108104
2.520256351567857
3.9665573103430654
4.625085831998166
5.277459881488256
2.877215737137895
5.4620940464382715
3.9419394216830552
5.4620940464382715
1.7509473309427481
3.400345871162974
4.009638615498079
5.6713461000482965
3.049540957757918
1.8186465247577446
2.877215737137895
5.123598077363234
4.200427252613103
2.507947407237865
3.7942320897230433
4.625085831998166
5.295923297983257
2.304849825792821
3.4988174258029914
4.188118308283084
5.825207904173318
2.3540856031128428
3.418809287657976
3.9604028381780574
5.6713461000482965
3.1357035680679433
2.9264515144579173
3.9234760051880535
5.117443605198224
4.169654891788083
2.5387197680628577
3.9727117825080476
4.877419190763177
5.363622491798253
2.114061188677796
3.677297118588024
4.108110170138069
5.9421428753083365
2.3417766587828237
3.418809287657976
4.089646753643067
5.7944355433483254
3.080313318582939
2.9387604587879093
4.009638615498079
5.2220696320032225
4.095801225808078
2.471020574247862
3.874240227868059
4.569695582513134
5.234378576333243
2.2371506319778245
3.720378423743037
4.243508557768089
5.683655044378289
2.2802319371328093
3.4741995371429804
4.089646753643067
5.609801378398282
3.0310775412629165
2.760280766002876
3.9296304773530633
5.160524910353237
4.151191475293081
2.3171587701228398
4.151191475293081
4.698939497978172
5.252841992828244
2.2063782711528033
3.701915007248036
4.181963836118102
5.775972126853325
2.360240075277825
3.4926629536379816
4.077337809313075
5.560565601078289
3.154166984562945
2.994150708272913
3.9111670608580615
5.142061493858235
4.200427252613103
2.544874240227868
3.8065410340530352
4.575850054678144
5.178988326848239
2.200223798987821
3.61575239693801
4.1758093639530935
5.6590371557183055
2.298695353627811
3.3695735103379807
3.9357849495180455
5.665191627883287
3.074158846417929
3.0249230690979347
3.8619312835380395
5.068207827878203
4.151191475293081
2.471020574247862
3.855776811373057
4.563541110348153
5.160524910353237
2.501792935072855
3.7142239515780275
4.249663029933098
5.665191627883287
2.2925408814628288
3.357264566007961
3.9973296711680604
5.665191627883287
3.049540957757918
3.006459652602933
3.9850207268380675
5.105134660868233
3.9973296711680604
2.754126293837894
3.855776811373057
4.5820045268431535
5.172833854683229
2.224841687647805
3.6834515907530063
4.225045141273086
6.25602095572339
3.554207675287996
3.732687368073029
4.0465654484880815
5.572874545408279
3.1049312072429505
2.544874240227868
2.4217847969278394
5.05589888354821
4.1942727804480935
2.5941100175478624
3.8988581165280416
4.6004679433381535
5.117443605198224
3.0310775412629165
3.264947483532954
3.8680857557030492
5.677500572213306
2.323313242287822
3.4926629536379816
4.021947559828071
5.597492434068291
2.9387604587879093
2.8464433763129016
3.8927036443630603
5.129752549528216
4.1327280587980795
2.674118155692878
3.855776811373057
4.551232166018132
5.160524910353237
2.2186872154828228
3.6896060629180156
4.27428091859311
5.6590371557183055
2.329467714452832
3.5972889804430093
4.028102031993082
5.597492434068291
3.0618499020879373
3.0372320134279267
3.886549172198051
5.135907021693225
4.1758093639530935
2.674118155692878
3.8988581165280416
4.67432160931816
5.037435467053208
2.3540856031128428
3.75730525673304
4.705093970143154
6.052923374278346
2.4156303247628297
3.578825563948007
4.151191475293081
5.6036469062333
3.0372320134279267
3.117240151572942
4.034256504158063
5.129752549528216
4.181963836118102
2.6925815721878803
3.9296304773530633
4.440451667048122
4.37890694539811
2.194069326822812
3.7265328959080186
4.212736196943095
5.6713461000482965
2.4156303247628297
3.35111009384298
4.021947559828071
5.560565601078289
3.080313318582939
3.080313318582939
3.948093893848065
5.068207827878203
4.095801225808078
3.6896060629180156
4.6435492484931675
4.803565524783171
5.129752549528216
2.2925408814628288
3.7696142010630322
4.27428091859311
5.640573739223304
1.0862643371226666
2.483329518577854
3.8927036443630603
5.499020879428274
3.0864677907479487
3.092622262912931
4.280435390758092
5.6590371557183055
4.292744335088111
2.612573434042864
3.9357849495180455
4.54507769385315
5.068207827878203
2.3540856031128428
3.8126955062180454
4.27428091859311
5.677500572213306
2.286386409297819
3.48035400930799
4.065028864983084
5.308232242313249
2.3110042979578305
3.0618499020879373
3.8680857557030492
4.982045217568204
4.231199613438097
2.581801073217871
3.9357849495180455
4.618931359833156
5.05589888354821
2.3171587701228398
3.732687368073029
4.280435390758092
5.652882683553296
2.477175046412844
3.48035400930799
4.625085831998166
7.136110475318563
2.7910531268278973
2.9510694031179288
2.526410823732866
4.452760611378115
4.089646753643067
2.624882378372884
3.886549172198051
4.569695582513134
5.117443605198224
2.3540856031128428
3.837313394878028
4.397370361893111
5.591337961903281
2.3663945474428347
3.5357442587929944
3.9727117825080476
5.499020879428274
3.092622262912931
3.1480125123979352
3.9419394216830552
5.006663106228215
4.083492281478085
2.649500267032867
3.8927036443630603
4.662012664988168
4.932809440248209
2.015589634037779
3.8065410340530352
4.237354085603107
5.652882683553296
2.3663945474428347
3.4434271763179867
4.015793087663061
5.591337961903281
3.074158846417929
3.0618499020879373
3.8496223392080475
5.0743623000432105
4.138882530963089
2.655654739197877
3.825004450548036
4.495841916533128
5.06205335571322
2.249459576307816
3.701915007248036
4.188118308283084
5.622110322728302
2.391012436102846
3.4926629536379816
4.065028864983084
5.597492434068291
2.944914930952919
3.074158846417929
3.9788662546730578
5.037435467053208
4.101955697973087
2.606418961877855
3.8065410340530352
4.551232166018132
5.0497444113832
2.3540856031128428
3.658833702093023
3.874240227868059
5.917524986648326
2.360240075277825
3.5234353144630024
3.9419394216830552
5.449785102108279
2.9633783474479203
3.1049312072429505
4.009638615498079
5.123598077363234
4.114264642303079
2.55102871239285
3.8680857557030492
4.563541110348153
5.129752549528216
2.2925408814628288
3.695760535083026
4.181963836118102
5.73904529386332
3.75115078456803
3.357264566007961
3.6465247577630033
5.585183489738299
3.154166984562945
3.074158846417929
3.948093893848065
5.111289133033214
4.169654891788083
2.471020574247862
3.825004450548036
4.6004679433381535
5.142061493858235
2.2309961598128147
3.3695735103379807
3.9604028381780574
5.7082729330383
2.2679229928028177
3.3880369268329824
3.9604028381780574
5.634419267058294
2.9818417639429216
2.9510694031179288
3.9234760051880535
5.092825716538213
4.015793087663061
2.5387197680628577
3.8496223392080475
4.8651102464331855
5.3390046031382425
2.187914854657802
3.732687368073029
4.292744335088111
5.615955850563292
2.3171587701228398
3.468045064977998
3.9604028381780574
5.665191627883287
3.0372320134279267
3.671142646423015
5.499020879428274
4.92050049591819
3.9234760051880535
2.304849825792821
3.763459728898022
4.631240304163148
5.154370438188227
2.200223798987821
2.587955545382853
3.0680043742529195
5.6036469062333
2.3663945474428347
3.4434271763179867
4.101955697973087
5.6036469062333
3.080313318582939
3.1357035680679433
3.825004450548036
5.068207827878203
4.138882530963089
2.495638462907845
3.75730525673304
4.705093970143154
5.271305409323245
2.2679229928028177
3.5849800361130173
4.188118308283084
5.726736349533301
2.323313242287822
3.394191398997992
4.021947559828071
5.714427405203311
3.0987767350779407
2.9202970422929075
3.9234760051880535
5.0497444113832
4.212736196943095
2.507947407237865
3.781923145393024
4.54507769385315
5.271305409323245
2.0709798835227837
3.658833702093023
4.2065817247780855
5.689809516543297
2.1202156608428053
3.418809287657976
4.040410976323072
5.634419267058294
3.0372320134279267
2.901833625797906
3.855776811373057
5.086671244373231
4.1942727804480935
2.477175046412844
3.825004450548036
4.501996388698137
5.142061493858235
2.372549019607845
3.9234760051880535
4.1942727804480935
5.73904529386332
2.3848579639378364
3.154166984562945
4.354289056738125
5.640573739223304
3.154166984562945
2.994150708272913
3.886549172198051
5.142061493858235
4.188118308283084
2.5141018794028467
3.788077617558033
4.151191475293081
5.160524910353237
2.138679077337807
3.652679229928013
4.188118308283084
5.806744487678317
2.329467714452832
3.4557361206479786
3.9173215330230438
5.597492434068291
3.154166984562945
3.0618499020879373
3.9234760051880535
5.166679382518219
4.366598001068117
2.520256351567857
3.8188499783830263
4.569695582513134
5.277459881488256
2.1571424938328088
3.652679229928013
4.2065817247780855
5.83751684850331
2.360240075277825
3.3695735103379807
4.003484143333068
5.585183489738299
3.2280206505429514
2.8525978484779113
3.7942320897230433
5.105134660868233
4.218890669108104
2.4894839907428636
3.825004450548036
4.5820045268431535
5.320541186643241
2.200223798987821
3.695760535083026
4.261971974263091
5.788281071183316
2.323313242287822
3.5234353144630024
4.243508557768089
5.6713461000482965
3.1480125123979352
2.975687291777912
3.9234760051880535
5.031280994888199
4.877419190763177
4.188118308283084
3.609597924773
4.508150860863147
5.234378576333243
2.1694514381628007
3.178784873222956
2.649500267032867
5.751354238193313
2.347931130947833
3.400345871162974
4.040410976323072
5.646728211388286
3.1110856794079322
2.9572238752829105
3.9419394216830552
5.160524910353237
4.2065817247780855
2.5694921288878514
3.8126955062180454
4.618931359833156
5.185142799013221
1.8124920525927626
3.4434271763179867
4.188118308283084
5.775972126853325
2.3356221866178415
3.394191398997992
4.009638615498079
5.597492434068291
3.695760535083026
3.800386561888025
4.27428091859311
5.474402990768262
4.225045141273086
2.4648661020828517
3.701915007248036
4.495841916533128
4.575850054678144
0.6677602299025863
3.529589786627985
4.12657358663307
5.775972126853325
2.2925408814628288
3.3695735103379807
4.058874392818074
5.726736349533301
3.074158846417929
2.907988097962916
3.9604028381780574
5.382085908293255
4.3112077515831135
2.446402685587851
3.831158922713046
4.588158999008135
5.234378576333243
2.1017522443478045
3.720378423743037
4.280435390758092
5.775972126853325
2.286386409297819
3.400345871162974
4.083492281478085
5.6036469062333
3.1295490959029335
2.8464433763129016
3.9234760051880535
5.148215966023217
4.255817502098108
2.4279392690928487
3.8496223392080475
4.452760611378115
5.295923297983257
2.1817603824928202
3.658833702093023
4.200427252613103
5.775972126853325
2.372549019607845
3.578825563948007
3.9357849495180455
5.634419267058294
3.1295490959029335
3.0003051804379233
3.9419394216830552
5.117443605198224
4.261971974263091
2.544874240227868
3.831158922713046
4.5327687495231315
5.185142799013221
2.2186872154828228
3.6834515907530063
4.489687444368147
6.009842069123361
2.1448335495027893
3.5972889804430093
4.040410976323072
5.689809516543297
3.117240151572942
2.9202970422929075
3.9173215330230438
5.0743623000432105
4.2865898629231
2.4648661020828517
3.8496223392080475
4.588158999008135
4.9881996897332135
1.8124920525927626
3.652679229928013
4.255817502098108
5.683655044378289
2.2925408814628288
3.406500343327984
3.9542483660130467
5.628264794893284
3.092622262912931
3.018768596932925
3.9419394216830552
5.086671244373231
4.120419114468088
2.883370209302905
4.483532972203136
5.21591515983824
6.440655120673461
2.5141018794028467
3.6896060629180156
2.8464433763129016
4.963581801073202
2.255614048472826
3.4557361206479786
3.9727117825080476
5.572874545408279
3.0680043742529195
3.043386485592936
3.6834515907530063
4.089646753643067
4.114264642303079
2.544874240227868
3.6649881742580046
4.569695582513134
5.142061493858235
2.2186872154828228
3.640370285598021
4.101955697973087
5.7082729330383
2.378703491772827
3.424963759822985
3.9911751990030497
5.597492434068291
3.092622262912931
3.0249230690979347
3.837313394878028
5.080516772208221
4.108110170138069
2.526410823732866
3.825004450548036
4.5943134711731455
5.154370438188227
2.286386409297819
3.572671091782997
4.1327280587980795
5.677500572213306
2.477175046412844
3.3880369268329824
3.9234760051880535
5.523638768088285
3.043386485592936
2.994150708272913
3.8803947000330408
4.982045217568204
4.169654891788083
2.575646601052861
3.855776811373057
4.588158999008135
5.135907021693225
2.1202156608428053
3.7142239515780275
4.138882530963089
5.591337961903281
2.3540856031128428
3.461890592812989
4.021947559828071
5.560565601078289
3.055695429922928
3.092622262912931
3.763459728898022
4.717402914473173
4.458915083543125
2.68642710002287
3.7942320897230433
4.5943134711731455
5.7944355433483254
2.4894839907428636
3.7080694794130173
4.12657358663307
5.695963988708308
2.3417766587828237
3.461890592812989
3.9727117825080476
5.505175351593283
3.074158846417929
3.049540957757918
3.9234760051880535
5.0743623000432105
4.225045141273086
2.0463619948628
3.5665166196180156
4.501996388698137
5.105134660868233
2.286386409297819
3.695760535083026
4.163500419623101
5.677500572213306
2.3848579639378364
3.3203377330179586
4.028102031993082
5.597492434068291
3.1480125123979352
3.1233946237379517
4.495841916533128
5.357468019633243
4.255817502098108
2.5387197680628577
3.8065410340530352
4.606622415503137
5.05589888354821
2.298695353627811
3.7080694794130173
4.218890669108104
5.689809516543297
2.378703491772827
3.449581648482997
3.9911751990030497
5.068207827878203
2.7418173495078744
3.0372320134279267
3.8680857557030492
5.209760687673231
4.12657358663307
2.581801073217871
3.8496223392080475
4.538923221688139
5.123598077363234
2.2925408814628288
4.261971974263091
4.526614277358149
4.6435492484931675
2.187914854657802
3.35111009384298
4.015793087663061
5.517484295923275
3.0680043742529195
3.1110856794079322
3.9604028381780574
5.05589888354821
4.163500419623101
2.587955545382853
3.8188499783830263
4.508150860863147
5.068207827878203
2.304849825792821
3.8680857557030492
4.0711833371480655
5.615955850563292
2.372549019607845
3.400345871162974
3.9788662546730578
5.554411128913278
3.1295490959029335
3.0126141247679152
3.738841840238039
4.945118384578201
4.114264642303079
2.575646601052861
3.781923145393024
4.40967930622313
4.9881996897332135
2.298695353627811
3.6465247577630033
4.138882530963089
5.622110322728302
2.3171587701228398
3.394191398997992
3.9788662546730578
5.560565601078289
3.166475928892937
2.9202970422929075
3.8065410340530352
5.037435467053208
4.588158999008135
3.006459652602933
3.8126955062180454
4.458915083543125
5.178988326848239
2.323313242287822
3.628061341268002
4.12657358663307
5.6713461000482965
2.434093741257831
3.4741995371429804
3.9665573103430654
5.554411128913278
2.994150708272913
2.8156710154879088
3.3264922051829684
4.883573662928187
4.0711833371480655
2.526410823732866
3.5972889804430093
4.908191551588198
5.105134660868233
2.2679229928028177
3.677297118588024
4.151191475293081
5.702118460873318
2.360240075277825
3.400345871162974
3.9788662546730578
5.480557462933272
3.0864677907479487
3.160321456727955
3.9850207268380675
4.975890745403193
4.163500419623101
2.587955545382853
3.9296304773530633
4.514305333028129
5.080516772208221
2.261768520637808
3.75115078456803
4.1758093639530935
5.7328908216983105
2.581801073217871
3.4741995371429804
4.028102031993082
5.535947712418277
3.141858040232953
3.043386485592936
3.8927036443630603
5.0743623000432105
4.237354085603107
2.6371913227028756
3.7449963124030208
4.508150860863147
5.160524910353237
2.4402482134228407
4.1942727804480935
4.2681264464281
5.991378652628332
4.415833778388112
3.449581648482997
3.9542483660130467
5.6713461000482965
3.141858040232953
3.074158846417929
3.9911751990030497
4.797411052618189
2.520256351567857
2.089443300017785
3.6834515907530063
3.9788662546730578
5.068207827878203
2.2371506319778245
3.6834515907530063
4.212736196943095
5.788281071183316
2.9264515144579173
4.698939497978172
4.249663029933098
5.597492434068291
3.0987767350779407
3.117240151572942
3.548053203123014
3.591134508277999
4.052719920653064
2.5325652958978484
3.886549172198051
4.6004679433381535
5.252841992828244
2.2925408814628288
3.7757686732280415
4.1942727804480935
5.757508710358322
2.372549019607845
3.4311182319879947
4.003484143333068
5.677500572213306
3.2034027618829395
2.8464433763129016
3.781923145393024
5.012817578393197
4.335825640243124
2.5694921288878514
3.855776811373057
4.551232166018132
5.246687520663236
2.1694514381628007
3.7265328959080186
4.27428091859311
5.806744487678317
2.3540856031128428
3.449581648482997
4.748175275298167
5.972915236133329
5.006663106228215
2.1017522443478045
3.055695429922928
5.025126522723218
4.341980112408105
2.495638462907845
3.886549172198051
4.662012664988168
5.357468019633243
2.1571424938328088
3.671142646423015
4.181963836118102
5.21591515983824
1.966353856717784
3.363419038172971
4.028102031993082
5.695963988708308
3.049540957757918
2.9264515144579173
3.9173215330230438
5.185142799013221
4.261971974263091
2.434093741257831
3.7942320897230433
4.649703720658149
5.21591515983824
1.9232725515627715
3.948093893848065
4.212736196943095
5.831362376338328
2.3356221866178415
3.418809287657976
4.095801225808078
5.597492434068291
3.166475928892937
2.975687291777912
3.9050125886930522
5.05589888354821
4.243508557768089
2.507947407237865
3.8496223392080475
4.40352483405812
5.277459881488256
2.1325246051727973
3.591134508277999
4.200427252613103
5.83751684850331
2.329467714452832
3.375727982502963
3.886549172198051
5.646728211388286
3.1972482897179573
2.9264515144579173
3.8927036443630603
4.834337885608192
4.0465654484880815
2.477175046412844
3.7449963124030208
4.563541110348153
5.2405330484982535
2.1571424938328088
3.652679229928013
4.163500419623101
5.788281071183316
2.323313242287822
3.301874316522957
3.9542483660130467
5.6713461000482965
3.424963759822985
3.043386485592936
3.9665573103430654
5.19745174334324
4.458915083543125
2.4279392690928487
3.8188499783830263
4.5327687495231315
5.3390046031382425
2.187914854657802
3.695760535083026
4.114264642303079
5.788281071183316
2.2433051041428067
3.375727982502963
3.9542483660130467
6.139085984588371
4.557386638183142
2.8649067928079033
3.831158922713046
3.7080694794130173
3.4311182319879947
2.378703491772827
3.8188499783830263
4.514305333028129
5.326695658808251
2.0463619948628
3.6465247577630033
4.606622415503137
6.496045370158464
2.434093741257831
3.3880369268329824
3.9911751990030497
5.640573739223304
3.191093817552948
2.9879962361079313
3.9973296711680604
5.0497444113832
4.3112077515831135
2.507947407237865
3.886549172198051
4.606622415503137
5.092825716538213
1.7263294422827367
3.578825563948007
4.1327280587980795
5.806744487678317
2.3971669082678284
3.4126548154929934
3.9973296711680604
5.640573739223304
3.160321456727955
3.0249230690979347
3.7942320897230433
5.018972050558207
4.323516695913104
2.409475852597848
3.7757686732280415
4.465069555708134
5.308232242313249
2.194069326822812
3.6219068691030203
4.145037003128072
5.788281071183316
2.3663945474428347
3.3695735103379807
4.034256504158063
5.689809516543297
3.2095572340479492
2.901833625797906
3.9542483660130467
5.080516772208221
4.354289056738125
2.4217847969278394
3.8065410340530352
4.538923221688139
5.265150937158236
2.1263701330077875
3.6896060629180156
4.083492281478085
5.511329823758264
2.68642710002287
3.4311182319879947
4.015793087663061
5.782126599018307
3.2464840670379527
2.9633783474479203
3.8619312835380395
5.105134660868233
4.366598001068117
2.520256351567857
3.8680857557030492
4.637394776328158
5.357468019633243
2.138679077337807
3.800386561888025
4.225045141273086
5.769817654688314
2.403321380432838
3.271101955697964
3.8619312835380395
5.542102184583286
3.1295490959029335
2.96953281961293
3.9173215330230438
5.111289133033214
4.2865898629231
2.409475852597848
3.763459728898022
4.508150860863147
5.345159075303252
2.224841687647805
3.781923145393024
4.323516695913104
5.800590015513308
2.372549019607845
3.418809287657976
3.9850207268380675
5.566720073243298
3.2526385392029624
2.9633783474479203
3.9727117825080476
5.068207827878203
5.037435467053208
2.1079067165127863
3.48035400930799
4.557386638183142
5.160524910353237
2.0586709391927913
3.634215813433012
4.2065817247780855
5.788281071183316
2.3540856031128428
3.234175122707961
4.0465654484880815
5.6036469062333
3.141858040232953
2.9879962361079313
4.40352483405812
5.492866407263264
3.166475928892937
2.7171994608478913
3.9296304773530633
4.54507769385315
5.258996464993254
2.2186872154828228
3.7265328959080186
4.298898807253093
5.652882683553296
2.3356221866178415
3.4126548154929934
4.052719920653064
5.640573739223304
3.1480125123979352
3.0126141247679152
4.065028864983084
5.006663106228215
4.249663029933098
2.5694921288878514
3.781923145393024
4.538923221688139
5.172833854683229
2.3110042979578305
3.8188499783830263
4.077337809313075
5.597492434068291
2.378703491772827
3.375727982502963
3.9850207268380675
5.542102184583286
2.9818417639429216
3.074158846417929
3.7449963124030208
5.154370438188227
4.255817502098108
2.495638462907845
3.831158922713046
4.526614277358149
5.166679382518219
2.323313242287822
3.658833702093023
4.151191475293081
5.6590371557183055
2.4156303247628297
3.424963759822985
4.009638615498079
5.480557462933272
3.117240151572942
3.0126141247679152
3.9050125886930522
5.018972050558207
4.145037003128072
2.526410823732866
3.800386561888025
4.501996388698137
6.182167289743385
2.575646601052861
4.188118308283084
4.1327280587980795
5.609801378398282
2.3540856031128428
3.3449556216779697
3.9173215330230438
4.1942727804480935
2.194069326822812
2.895679153632896
3.831158922713046
5.012817578393197
4.231199613438097
2.526410823732866
3.7265328959080186
4.951272856743211
5.554411128913278
2.2371506319778245
3.6896060629180156
4.200427252613103
5.615955850563292
2.4279392690928487
3.468045064977998
4.028102031993082
5.505175351593283
3.141858040232953
3.0126141247679152
3.8619312835380395
5.0497444113832
4.341980112408105
2.9264515144579173
3.9173215330230438
4.3727524732331275
5.172833854683229
2.323313242287822
3.701915007248036
4.151191475293081
5.689809516543297
2.403321380432838
3.424963759822985
3.9850207268380675
5.486711935098282
3.1110856794079322
2.9510694031179288
3.75115078456803
4.975890745403193
4.1942727804480935
2.575646601052861
3.7942320897230433
4.557386638183142
5.160524910353237
2.2802319371328093
3.677297118588024
4.151191475293081
5.769817654688314
2.495638462907845
3.381882454667973
3.8803947000330408
5.302077770148239
3.043386485592936
3.0680043742529195
3.9111670608580615
4.766638691793168
4.120419114468088
3.363419038172971
5.105134660868233
4.772793163958178
5.21591515983824
2.2802319371328093
3.7142239515780275
3.8988581165280416
4.108110170138069
1.892500190737778
3.357264566007961
3.9973296711680604
5.560565601078289
3.160321456727955
3.1233946237379517
3.9296304773530633
5.025126522723218
4.243508557768089
2.587955545382853
3.8126955062180454
4.452760611378115
5.135907021693225
2.3540856031128428
3.855776811373057
4.200427252613103
5.591337961903281
2.372549019607845
3.48035400930799
4.021947559828071
5.548256656748296
3.154166984562945
2.9510694031179288
3.75730525673304
5.068207827878203
4.2065817247780855
2.544874240227868
3.831158922713046
4.668167137153151
5.098980188703223
2.286386409297819
3.701915007248036
4.058874392818074
5.628264794893284
2.3417766587828237
3.3264922051829684
3.8680857557030492
5.369776963963263
2.9633783474479203
2.901833625797906
3.720378423743037
4.9266549680832
4.557386638183142
2.612573434042864
3.6834515907530063
4.397370361893111
5.782126599018307
1.757101803107758
3.2526385392029624
4.058874392818074
5.566720073243298
2.3663945474428347
3.424963759822985
3.8988581165280416
5.548256656748296
2.944914930952919
1.966353856717784
3.874240227868059
4.9266549680832
4.108110170138069
2.544874240227868
3.7265328959080186
4.3173622237481215
5.06205335571322
2.1694514381628007
3.6034434526080172
4.083492281478085
5.646728211388286
2.347931130947833
3.381882454667973
3.9788662546730578
5.369776963963263
3.018768596932925
3.006459652602933
3.8126955062180454
4.908191551588198
4.114264642303079
2.5141018794028467
3.837313394878028
4.37890694539811
5.105134660868233
2.1694514381628007
3.6034434526080172
4.151191475293081
6.052923374278346
2.5387197680628577
3.4434271763179867
3.9419394216830552
5.554411128913278
3.0987767350779407
3.0372320134279267
3.9111670608580615
5.068207827878203
4.231199613438097
2.5325652958978484
3.763459728898022
4.588158999008135
5.258996464993254
1.954044912387765
3.394191398997992
4.138882530963089
5.695963988708308
2.526410823732866
3.375727982502963
3.9973296711680604
5.634419267058294
3.055695429922928
3.0372320134279267
3.9788662546730578
5.172833854683229
4.348134584573115
2.3663945474428347
4.021947559828071
4.612776887668146
5.868289209328331
3.357264566007961
3.8619312835380395
4.225045141273086
4.649703720658149
1.2955163907326928
3.3695735103379807
4.003484143333068
5.572874545408279
2.895679153632896
2.8279799598179
3.8434678670430373
5.455939574273261
4.618931359833156
2.434093741257831
3.763459728898022
4.557386638183142
5.302077770148239
2.089443300017785
3.5849800361130173
4.212736196943095
5.769817654688314
2.286386409297819
3.461890592812989
4.0711833371480655
5.6036469062333
2.8649067928079033
2.200223798987821
3.677297118588024
4.9266549680832
4.2681264464281
2.360240075277825
3.6465247577630033
4.415833778388112
5.234378576333243
2.064825411357801
3.701915007248036
4.1758093639530935
5.8805981536583225
2.2433051041428067
3.7142239515780275
4.631240304163148
5.646728211388286
3.074158846417929
2.883370209302905
3.8619312835380395
5.086671244373231
4.2865898629231
2.3356221866178415
3.658833702093023
4.557386638183142
5.345159075303252
2.0340530505327803
3.5357442587929944
3.9665573103430654
5.542102184583286
2.077134355687793
3.1972482897179573
3.825004450548036
5.622110322728302
2.901833625797906
2.5941100175478624
3.763459728898022
4.951272856743211
3.8680857557030492
2.391012436102846
3.7942320897230433
4.692785025813162
5.4620940464382715
1.6401668319727392
3.634215813433012
4.151191475293081
5.929833930978346
1.966353856717784
3.221866178377941
4.052719920653064
5.874443681493341
3.006459652602933
2.858752320642893
3.8619312835380395
5.406703796953265
4.483532972203136
2.4648661020828517
3.9788662546730578
4.723557386638155
5.622110322728302
1.9232725515627715
3.7757686732280415
4.366598001068117
6.200630706238385
2.1632969659978185
3.4988174258029914
4.095801225808078
6.09600467943336
3.1049312072429505
2.901833625797906
4.052719920653064
5.419012741283257
4.495841916533128
2.329467714452832
3.9357849495180455
4.760484219628157
5.7451997660283025
1.91096360723278
3.781923145393024
4.329671168078114
6.557590091808479
2.0217441062027888
3.449581648482997
4.218890669108104
6.446809592838443
3.6649881742580046
3.074158846417929
4.237354085603107
5.812898959843327
4.735866330968175
2.501792935072855
4.3173622237481215
5.19129727117823
6.182167289743385
1.8678823020777668
3.948093893848065
5.025126522723218
8.040817883573691
0.2246382340225228
2.575646601052861
3.75115078456803
6.09600467943336
2.544874240227868
2.2433051041428067
3.511126370132983
5.726736349533301
4.895882607258178
1.7447928587777384
3.5357442587929944
4.218890669108104
5.21591515983824
0.7416138958825924
2.83413443198291
2.8033620711578893
4.421988250553122
0.7723862567076134
2.409475852597848
3.3264922051829684
5.905216042318334
2.3171587701228398
2.1694514381628007
3.504971897968001
5.111289133033214
4.089646753643067
1.6340123598077294
3.5849800361130173
4.692785025813162
5.954451819638329
1.2708985020726815
3.572671091782997
4.188118308283084
6.594516924798482
1.6032399989827364
3.178784873222956
4.138882530963089
6.471427481498454
2.96953281961293
2.68642710002287
3.837313394878028
5.609801378398282
4.508150860863147
1.7201749701177547
3.6896060629180156
4.778947636123188
5.720581877368319
1.3385976958876775
3.289565372192965
4.0711833371480655
6.323720149538442
1.3078253350626845
2.9264515144579173
3.7265328959080186
6.132931512423362
2.729508405177883
2.286386409297819
3.831158922713046
5.351313547468262
4.360443528903107
1.6647847206327224
3.4926629536379816
4.637394776328158
5.800590015513308
1.2401261412476885
3.591134508277999
4.249663029933098
6.55143561964347
1.89865466290276
3.4557361206479786
4.366598001068117
6.520663258818478
3.3880369268329824
3.0126141247679152
4.421988250553122
5.948297347473347
4.7420208031331565
2.391012436102846
4.329671168078114
5.289768825818246
6.083695735103367
2.3971669082678284
4.40352483405812
4.957427328908192
6.705297423768492
3.049540957757918
4.415833778388112
4.8651102464331855
6.465273009333443
3.75115078456803
3.6034434526080172
4.760484219628157
5.9421428753083365
5.092825716538213
2.994150708272913
4.366598001068117
4.945118384578201
5.806744487678317
2.347931130947833
3.732687368073029
3.948093893848065
6.151394928918363
2.624882378372884
3.7757686732280415
4.27428091859311
6.028305485618364
3.4741995371429804
3.1357035680679433
4.261971974263091
5.363622491798253
4.588158999008135
2.631036850537866
3.9419394216830552
4.902037079423188
5.862134737163322
2.2679229928028177
3.8188499783830263
4.3727524732331275
6.089850207268349
2.563337656722869
4.040410976323072
5.468248518603279
6.0036875969583505
3.381882454667973
3.117240151572942
4.089646753643067
5.018972050558207
3.043386485592936
2.077134355687793
3.8496223392080475
4.637394776328158
5.443630629943269
2.286386409297819
3.8065410340530352
4.341980112408105
5.8559802649983395
2.477175046412844
3.609597924773
4.101955697973087
5.751354238193313
3.3141832608529764
3.1233946237379517
4.003484143333068
5.092825716538213
4.391215889728128
2.606418961877855
3.9234760051880535
4.655858192823159
5.4620940464382715
2.249459576307816
3.837313394878028
4.298898807253093
5.83751684850331
2.4587116299178424
3.4741995371429804
4.1758093639530935
5.905216042318334
3.363419038172971
3.2034027618829395
4.034256504158063
5.086671244373231
4.477378500038126
2.631036850537866
4.009638615498079
4.625085831998166
5.419012741283257
2.329467714452832
3.7449963124030208
4.243508557768089
5.917524986648326
2.9879962361079313
3.61575239693801
4.138882530963089
5.769817654688314
3.221866178377941
3.049540957757918
4.0465654484880815
5.0497444113832
4.37890694539811
2.747971821672884
3.8927036443630603
4.551232166018132
5.326695658808251
2.2433051041428067
3.055695429922928
4.440451667048122
5.862134737163322
2.526410823732866
3.4557361206479786
4.0711833371480655
5.689809516543297
3.2403295948729705
3.0003051804379233
4.003484143333068
5.0743623000432105
4.323516695913104
2.544874240227868
3.8126955062180454
4.428142722718132
5.117443605198224
2.1817603824928202
3.6465247577630033
4.101955697973087
5.634419267058294
2.4648661020828517
3.4434271763179867
4.015793087663061
5.4620940464382715
3.160321456727955
3.0003051804379233
3.837313394878028
5.000508634063205
4.1942727804480935
2.483329518577854
3.874240227868059
4.391215889728128
5.086671244373231
2.2309961598128147
3.61575239693801
4.151191475293081
5.628264794893284
2.3663945474428347
3.4557361206479786
3.8680857557030492
5.443630629943269
3.2526385392029624
3.0680043742529195
3.763459728898022
4.908191551588198
4.237354085603107
2.581801073217871
3.7265328959080186
4.341980112408105
5.185142799013221
2.212532743317813
3.6034434526080172
4.120419114468088
5.572874545408279
2.446402685587851
3.3203377330179586
4.1942727804480935
5.572874545408279
3.8619312835380395
4.625085831998166
3.634215813433012
4.908191551588198
3.1726304010579467
1.3755245288776807
3.671142646423015
4.471224027873144
5.228224104168233
2.2433051041428067
3.634215813433012
4.138882530963089
5.591337961903281
2.1694514381628007
3.504971897968001
3.9850207268380675
5.394394852623274
3.1049312072429505
3.049540957757918
3.8927036443630603
5.043589939218219
4.145037003128072
2.501792935072855
3.781923145393024
4.471224027873144
5.19745174334324
2.3848579639378364
3.825004450548036
4.1327280587980795
5.628264794893284
2.3356221866178415
3.357264566007961
3.9111670608580615
5.542102184583286
3.2280206505429514
2.9572238752829105
3.9234760051880535
4.840492357773174
4.261971974263091
2.563337656722869
3.7142239515780275
4.298898807253093
5.0497444113832
2.1694514381628007
3.677297118588024
4.028102031993082
5.585183489738299
2.3356221866178415
3.363419038172971
3.8927036443630603
5.492866407263264
3.0372320134279267
3.0003051804379233
3.628061341268002
5.265150937158236
4.81587446911319
2.501792935072855
3.701915007248036
4.3727524732331275
5.129752549528216
2.1079067165127863
3.529589786627985
4.101955697973087
5.523638768088285
2.064825411357801
3.6834515907530063
3.9788662546730578
5.505175351593283
2.895679153632896
2.2309961598128147
3.75115078456803
4.932809440248209
4.212736196943095
2.4648661020828517
3.701915007248036
4.40352483405812
5.117443605198224
2.083288827852803
3.6219068691030203
4.0711833371480655
5.677500572213306
2.3540856031128428
3.4741995371429804
4.5943134711731455
7.5546145825386155
2.9633783474479203
2.944914930952919
3.8803947000330408
4.963581801073202
4.249663029933098
2.3848579639378364
3.634215813433012
2.9510694031179288
4.772793163958178
2.083288827852803
3.695760535083026
4.003484143333068
5.302077770148239
2.1694514381628007
3.4126548154929934
3.948093893848065
5.566720073243298
3.1480125123979352
2.9202970422929075
3.8680857557030492
5.06205335571322
4.27428091859311
2.4156303247628297
3.763459728898022
4.458915083543125
5.357468019633243
2.1202156608428053
3.6219068691030203
4.157345947458091
5.8559802649983395
2.255614048472826
3.271101955697964
4.009638615498079
5.646728211388286
3.0618499020879373
2.83413443198291
3.9419394216830552
5.646728211388286
5.000508634063205
1.1662724752676545
3.449581648482997
4.489687444368147
5.4005493247882566
2.0217441062027888
3.5357442587929944
4.329671168078114
5.831362376338328
2.3171587701228398
3.4988174258029914
4.089646753643067
5.812898959843327
3.1972482897179573
2.8895246814679143
4.021947559828071
6.040614429948354
3.9911751990030497
1.972508328882766
3.8188499783830263
4.625085831998166
5.511329823758264
2.064825411357801
3.695760535083026
4.231199613438097
6.009842069123361
2.249459576307816
3.332646677347978
3.9604028381780574
5.83751684850331
2.9879962361079313
2.747971821672884
3.9542483660130467
5.025126522723218
4.397370361893111
2.3171587701228398
3.7757686732280415
4.54507769385315
5.4005493247882566
1.9417359680577726
3.6649881742580046
4.0465654484880815
6.009842069123361
2.2679229928028177
3.6034434526080172
4.218890669108104
5.868289209328331
3.160321456727955
2.9264515144579173
3.9850207268380675
5.302077770148239
4.483532972203136
2.2740774649678275
3.8126955062180454
4.612776887668146
5.554411128913278
1.972508328882766
3.486508481473
3.886549172198051
5.98522418046335
2.0463619948628
3.166475928892937
3.8065410340530352
5.455939574273261
3.264947483532954
2.4156303247628297
3.486508481473
4.705093970143154
3.9111670608580615
1.689402609292734
3.486508481473
4.514305333028129
5.652882683553296
1.689402609292734
3.671142646423015
4.145037003128072
6.102159151598369
2.009435161872797
3.0310775412629165
4.021947559828071
5.720581877368319
2.4894839907428636
1.6463213041377214
1.972508328882766
2.858752320642893
1.7755652196027594
-0.42158134330255725
1.1293456422776516
2.624882378372884
3.9727117825080476
0.7354594237176103
2.587955545382853
3.308028788687967
5.302077770148239
1.7878741639327511
3.381882454667973
4.662012664988168
6.637598229953468
4.1758093639530935
3.7142239515780275
4.81587446911319
6.052923374278346
5.615955850563292
3.8803947000330408
5.702118460873318
6.385264871188456
7.277663335113566
3.695760535083026
5.320541186643241
5.98522418046335
7.99773657841868
4.458915083543125
5.492866407263264
5.98522418046335
7.843874774293658
5.437476157778259
5.111289133033214
6.25602095572339
7.4192161949085955
6.631443757788486
4.465069555708134
6.477581953663464
8.194679687698713
7.043793392843528
3.9850207268380675
5.351313547468262
5.665191627883287
7.129956003153555
2.2802319371328093
4.200427252613103
5.234378576333243
6.754533201088487
4.2681264464281
3.8188499783830263
4.91434602375318
6.040614429948354
5.369776963963263
3.289565372192965
4.717402914473173
5.388240380458265
6.317565677373432
2.9818417639429216
4.428142722718132
4.822028941278172
6.631443757788486
3.0864677907479487
4.058874392818074
4.754329747463175
6.372955926858436
4.0465654484880815
3.671142646423015
4.569695582513134
5.677500572213306
5.043589939218219
3.0249230690979347
4.360443528903107
5.123598077363234
6.046768902113364
2.55718318455786
4.138882530963089
4.68047608148317
6.2683299000533825
2.7848986546628876
3.6034434526080172
4.508150860863147
6.028305485618364
3.578825563948007
3.178784873222956
4.231199613438097
5.289768825818246
4.7420208031331565
2.495638462907845
4.009638615498079
4.698939497978172
5.702118460873318
2.3848579639378364
3.8496223392080475
4.292744335088111
6.028305485618364
2.507947407237865
3.5234353144630024
4.225045141273086
5.757508710358322
3.381882454667973
2.9387604587879093
4.145037003128072
5.511329823758264
4.655858192823159
2.471020574247862
3.8927036443630603
4.6435492484931675
5.597492434068291
2.2186872154828228
3.6649881742580046
4.2681264464281
5.972915236133329
2.4648661020828517
3.4557361206479786
4.052719920653064
5.3390046031382425
3.357264566007961
2.9879962361079313
4.077337809313075
5.554411128913278
5.142061493858235
3.043386485592936
3.8680857557030492
4.218890669108104
2.9141425701278982
-0.2061748175275213
3.4557361206479786
5.757508710358322
7.942346328933675
3.9296304773530633
2.9572238752829105
2.8095165433228986
4.7420208031331565
3.3388011495129604
3.400345871162974
4.360443528903107
5.000508634063205
3.831158922713046
1.4555326670226965
2.8525978484779113
3.671142646423015
5.105134660868233
2.089443300017785
3.0126141247679152
3.5972889804430093
5.6036469062333
2.347931130947833
3.781923145393024
4.341980112408105
5.665191627883287
3.055695429922928
2.471020574247862
4.163500419623101
5.492866407263264
4.341980112408105
2.2186872154828228
3.8619312835380395
5.308232242313249
6.188321761908366
3.4311182319879947
5.388240380458265
3.332646677347978
5.0743623000432105
0.7908496732026148
1.9478904402227823
4.385061417563119
6.539126675313478
4.354289056738125
3.75115078456803
4.2681264464281
4.785102108288171
3.4126548154929934
1.7017115536227536
3.855776811373057
5.068207827878203
6.194476234073376
2.55718318455786
3.6649881742580046
4.021947559828071
5.954451819638329
2.667963683527869
3.8496223392080475
4.452760611378115
5.806744487678317
3.258793011367972
2.932605986622927
4.108110170138069
5.523638768088285
4.67432160931816
2.4894839907428636
3.9050125886930522
4.625085831998166
5.628264794893284
2.3848579639378364
3.9173215330230438
5.382085908293255
6.108313623763351
3.049540957757918
3.8188499783830263
4.452760611378115
6.028305485618364
3.529589786627985
3.0003051804379233
2.6987360443528896
4.249663029933098
4.551232166018132
2.612573434042864
3.9973296711680604
4.68047608148317
5.505175351593283
2.2679229928028177
3.8496223392080475
4.348134584573115
6.2252485948983685
2.8525978484779113
3.5357442587929944
4.0711833371480655
5.806744487678317
3.4988174258029914
3.3203377330179586
4.255817502098108
5.622110322728302
5.068207827878203
2.778744182497905
3.1049312072429505
3.1726304010579467
4.735866330968175
2.0709798835227837
4.1327280587980795
5.05589888354821
6.188321761908366
1.9232725515627715
2.8156710154879088
3.75730525673304
5.886752625823332
3.6465247577630033
2.994150708272913
3.9234760051880535
4.668167137153151
3.948093893848065
2.446402685587851
4.1327280587980795
4.883573662928187
5.271305409323245
1.9355814958927628
3.406500343327984
3.8496223392080475
5.486711935098282
2.1756059103278105
2.9387604587879093
2.9387604587879093
0.7723862567076134
-12.98901350423437
-31.113934030161992
-41.25034968591848
-35.48976373947765
-22.706925052770803
-13.9121843289845
-12.779761450624344
-13.069021642379386
-11.038045827929109
-7.960809745428649
3.1357035680679433
11.204216576384123
15.75852597848476
9.480964370183893
5.948297347473347
2.1017522443478045
-1.5416952773327222
-6.945321838203511
-6.26832990005341
-3.8803947000330687
-0.4154268711375475
2.089443300017785
4.348134584573115
10.071793698023969
14.453777879504582
16.724778108389906
12.89054194959435
12.145850817629256
10.08410264235396
9.505582258843877
4.625085831998166
2.9572238752829105
5.006663106228215
7.246890974288571
6.040614429948354
6.015996541288343
6.889931588718507
8.311614658833705
7.529996693878605
4.3112077515831135
1.0985732814526583
-4.335825640243124
-8.76089112687875
-14.176826632079532
-12.884387477429373
-11.616566211439194
-9.647135118638905
-11.887362986699236
-8.994761069148788
-5.899061570153352
-2.471020574247862
-2.994150708272913
-1.9478904402227823
-1.0985732814526583
-0.7169960072226089
-1.215508252587677
-2.1817603824928202
-0.47697159278756174
0.8523943948526291
2.2433051041428067
0.37850003814754446
1.7324839144477464
2.507947407237865
1.6401668319727392
-1.3324432237226955
-0.6492968134075848
-1.0678009206276373
-0.6677602299025863
-2.471020574247862
-2.797207598992907
-2.298695353627811
-0.9939472546476313
-0.7477683680476023
-0.8400854505226096
1.5970855268177266
3.8496223392080475
6.816077922738501
6.139085984588371
6.816077922738501
5.19129727117823
4.9266549680832
0.6923781185625978
0.901630172172624
1.3201342793926762
2.8464433763129016
1.6093944711477182
1.9048091350677696
2.5325652958978484
3.166475928892937
1.5416952773327222
-1.0062561989776508
-0.6492968134075848
-0.02154065257750637
2.0217441062027888
1.7878741639327511
4.366598001068117
6.379110399023446
9.647135118638905
9.080923679458813
12.330484982579272
15.2292413722947
19.832786551715387
21.06368098471556
24.49172198062105
26.836575875486382
24.270160982681002
16.220111390859827
7.6284682485186215
4.021947559828071
2.883370209302905
4.3727524732331275
2.471020574247862
5.209760687673231
7.505378805218594
11.481167823809175
8.902443986673807
8.994761069148815
7.726939803158639
7.573077999033617
3.4311182319879947
2.1571424938328088
3.4557361206479786
5.782126599018307
6.539126675313478
5.572874545408279
6.933012893873519
6.717606368098483
6.391419343353438
2.655654739197877
4.120419114468088
5.185142799013221
7.148419419648555
3.948093893848065
5.19129727117823
5.7082729330383
6.717606368098483
4.1327280587980795
4.0465654484880815
5.320541186643241
6.502199842323475
5.695963988708308
3.658833702093023
4.778947636123188
5.006663106228215
5.185142799013221
1.892500190737778
3.486508481473
4.280435390758092
6.065232318608365
2.4217847969278394
3.258793011367972
4.40352483405812
7.179191780473548
3.0987767350779407
3.141858040232953
4.2865898629231
5.4620940464382715
4.668167137153151
1.9232725515627715
4.101955697973087
5.068207827878203
6.059077846443356
2.8649067928079033
4.354289056738125
4.81587446911319
6.649907174283487
3.0372320134279267
4.083492281478085
4.754329747463175
6.459118537168462
4.052719920653064
3.6034434526080172
4.3112077515831135
5.203606215508222
5.098980188703223
2.8895246814679143
4.446606139213133
5.0743623000432105
6.059077846443356
2.6371913227028756
4.2065817247780855
4.705093970143154
6.452964065003453
2.760280766002876
3.6896060629180156
4.551232166018132
6.434500648508451
4.034256504158063
3.1357035680679433
4.348134584573115
5.468248518603279
4.908191551588198
2.5941100175478624
4.120419114468088
4.895882607258178
5.892907097988342
2.323313242287822
3.9357849495180455
4.323516695913104
6.212939650568378
2.612573434042864
3.468045064977998
4.255817502098108
5.966760763968348
3.578825563948007
3.1049312072429505
4.1327280587980795
5.277459881488256
4.809719996948181
2.4648661020828517
4.009638615498079
4.754329747463175
5.868289209328331
2.1632969659978185
3.634215813433012
3.7942320897230433
6.452964065003453
2.68642710002287
3.4926629536379816
4.12657358663307
5.7451997660283025
3.609597924773
2.8895246814679143
3.9911751990030497
5.209760687673231
4.932809440248209
2.495638462907845
3.9665573103430654
4.698939497978172
5.8559802649983395
2.1448335495027893
3.695760535083026
4.3112077515831135
6.206785178403368
2.520256351567857
3.406500343327984
4.138882530963089
5.812898959843327
3.554207675287996
2.797207598992907
4.034256504158063
5.19129727117823
4.877419190763177
2.4156303247628297
3.8188499783830263
4.5820045268431535
5.819053432008309
2.150988021667799
3.7696142010630322
4.255817502098108
6.108313623763351
2.575646601052861
3.35111009384298
4.92050049591819
5.437476157778259
3.154166984562945
2.766435238167886
3.8434678670430373
5.086671244373231
4.7912565804531795
2.304849825792821
4.631240304163148
6.200630706238385
5.511329823758264
2.0586709391927913
3.5972889804430093
4.292744335088111
6.108313623763351
2.495638462907845
2.55718318455786
2.8279799598179
6.532972203148468
3.8619312835380395
3.5972889804430093
5.702118460873318
4.975890745403193
4.723557386638155
1.5293863330027024
2.55102871239285
4.452760611378115
5.831362376338328
2.083288827852803
3.671142646423015
4.2681264464281
6.120622568093371
1.954044912387765
2.944914930952919
4.009638615498079
5.782126599018307
3.6034434526080172
2.8464433763129016
4.003484143333068
5.228224104168233
4.932809440248209
2.2679229928028177
3.874240227868059
4.5820045268431535
5.763663182523304
2.187914854657802
4.003484143333068
4.366598001068117
6.274484372218392
2.495638462907845
3.301874316522957
3.9665573103430654
5.899061570153325
3.658833702093023
2.797207598992907
3.9727117825080476
5.228224104168233
4.717402914473173
2.286386409297819
3.8619312835380395
4.2065817247780855
5.480557462933272
2.0340530505327803
3.6649881742580046
4.255817502098108
6.046768902113364
2.5325652958978484
3.289565372192965
4.065028864983084
5.726736349533301
3.578825563948007
2.8156710154879088
4.058874392818074
5.111289133033214
5.326695658808251
2.5325652958978484
3.8927036443630603
4.612776887668146
5.831362376338328
2.114061188677796
3.6896060629180156
4.181963836118102
6.157549401083372
2.477175046412844
3.006459652602933
4.335825640243124
5.886752625823332
3.5972889804430093
2.5141018794028467
3.640370285598021
5.111289133033214
4.809719996948181
2.360240075277825
3.8188499783830263
4.501996388698137
5.825207904173318
2.1694514381628007
3.61575239693801
4.218890669108104
6.169858345413365
2.4525571577528327
3.3264922051829684
4.557386638183142
6.329874621703424
3.634215813433012
2.8156710154879088
3.9788662546730578
5.166679382518219
4.902037079423188
2.304849825792821
3.8803947000330408
4.6004679433381535
5.892907097988342
2.0278985783677985
3.658833702093023
4.145037003128072
5.819053432008309
2.1202156608428053
3.166475928892937
4.0465654484880815
5.782126599018307
3.48035400930799
2.760280766002876
3.9419394216830552
5.129752549528216
4.766638691793168
2.2186872154828228
3.9050125886930522
4.5820045268431535
5.720581877368319
2.1325246051727973
3.634215813433012
4.305053279418103
6.163703873248383
2.520256351567857
3.258793011367972
4.028102031993082
5.775972126853325
3.5849800361130173
2.7848986546628876
3.9604028381780574
5.148215966023217
5.468248518603279
3.554207675287996
2.052516467027782
4.231199613438097
5.775972126853325
2.015589634037779
3.5972889804430093
4.218890669108104
6.126777040258352
2.544874240227868
3.234175122707961
4.034256504158063
5.7944355433483254
3.628061341268002
2.8095165433228986
4.028102031993082
5.080516772208221
4.612776887668146
2.2309961598128147
3.8680857557030492
4.5820045268431535
5.7944355433483254
2.1017522443478045
3.788077617558033
4.243508557768089
6.145240456753354
2.4587116299178424
3.3695735103379807
4.188118308283084
5.702118460873318
3.7696142010630322
2.8895246814679143
3.9542483660130467
5.123598077363234
4.834337885608192
2.329467714452832
3.8680857557030492
4.569695582513134
5.7944355433483254
2.114061188677796
3.738841840238039
4.237354085603107
6.169858345413365
2.563337656722869
3.461890592812989
4.212736196943095
5.751354238193313
3.486508481473
2.8464433763129016
4.065028864983084
5.086671244373231
4.760484219628157
2.329467714452832
3.8927036443630603
4.631240304163148
5.806744487678317
2.052516467027782
3.7080694794130173
4.305053279418103
6.692988479438499
2.661809211362886
3.3695735103379807
4.028102031993082
5.683655044378289
3.2280206505429514
3.264947483532954
4.021947559828071
5.037435467053208
4.735866330968175
2.2925408814628288
3.9296304773530633
4.6004679433381535
5.615955850563292
1.6647847206327224
3.363419038172971
4.188118308283084
5.948297347473347
2.409475852597848
3.3695735103379807
4.065028864983084
5.7082729330383
3.609597924773
2.8033620711578893
3.9788662546730578
5.111289133033214
4.692785025813162
2.434093741257831
3.9419394216830552
4.483532972203136
5.726736349533301
2.138679077337807
3.6649881742580046
4.163500419623101
6.015996541288343
2.477175046412844
3.3388011495129604
4.015793087663061
5.683655044378289
3.301874316522957
2.8279799598179
4.015793087663061
5.203606215508222
4.748175275298167
2.286386409297819
3.831158922713046
4.5943134711731455
5.560565601078289
2.077134355687793
3.6465247577630033
4.0711833371480655
5.97906970829834
2.4279392690928487
3.363419038172971
4.145037003128072
5.585183489738299
3.308028788687967
2.7910531268278973
3.9419394216830552
5.025126522723218
4.7297118588031655
2.3417766587828237
3.837313394878028
5.135907021693225
7.277663335113566
1.8371099412527454
3.652679229928013
4.237354085603107
5.948297347473347
2.4217847969278394
1.954044912387765
3.0372320134279267
5.517484295923275
3.5172808422979926
2.7848986546628876
3.9173215330230438
4.994354161898196
4.705093970143154
2.391012436102846
3.7449963124030208
4.434297194883113
5.585183489738299
2.212532743317813
3.6834515907530063
4.114264642303079
5.84367132066832
2.55718318455786
3.1357035680679433
4.0465654484880815
5.523638768088285
3.6034434526080172
2.877215737137895
3.9173215330230438
5.068207827878203
4.717402914473173
2.255614048472826
3.8065410340530352
4.458915083543125
6.219094122733386
2.7910531268278973
3.738841840238039
4.218890669108104
5.892907097988342
2.55718318455786
3.357264566007961
4.089646753643067
5.566720073243298
3.5234353144630024
2.883370209302905
3.9911751990030497
4.994354161898196
4.668167137153151
1.9971262175427773
3.2280206505429514
4.428142722718132
5.628264794893284
2.1571424938328088
3.7142239515780275
4.255817502098108
5.874443681493341
2.575646601052861
3.3264922051829684
4.034256504158063
5.579029017573289
3.5972889804430093
3.2095572340479492
5.037435467053208
5.148215966023217
5.123598077363234
2.618727906207874
3.9173215330230438
4.526614277358149
5.548256656748296
1.7817196917677414
2.114061188677796
3.800386561888025
5.874443681493341
2.5694921288878514
3.301874316522957
3.9850207268380675
5.831362376338328
3.9973296711680604
2.877215737137895
3.9111670608580615
5.006663106228215
4.668167137153151
2.4402482134228407
3.8065410340530352
4.471224027873144
5.566720073243298
2.194069326822812
3.6834515907530063
4.077337809313075
5.8805981536583225
2.471020574247862
2.932605986622927
3.9850207268380675
5.499020879428274
3.486508481473
2.883370209302905
4.009638615498079
5.006663106228215
4.735866330968175
2.3663945474428347
3.8927036443630603
4.471224027873144
5.665191627883287
2.2063782711528033
3.825004450548036
4.698939497978172
6.052923374278346
2.631036850537866
3.4126548154929934
4.902037079423188
5.203606215508222
3.234175122707961
2.907988097962916
4.015793087663061
4.975890745403193
4.698939497978172
2.471020574247862
3.9357849495180455
4.440451667048122
5.203606215508222
2.083288827852803
4.218890669108104
5.388240380458265
6.188321761908366
2.631036850537866
2.5941100175478624
2.6371913227028756
5.394394852623274
3.5972889804430093
2.871061264972913
3.948093893848065
4.92050049591819
4.785102108288171
2.5387197680628577
3.720378423743037
4.421988250553122
5.634419267058294
2.194069326822812
3.720378423743037
4.249663029933098
5.929833930978346
2.618727906207874
3.308028788687967
3.9111670608580615
5.480557462933272
3.6834515907530063
2.9202970422929075
4.360443528903107
5.154370438188227
4.902037079423188
2.360240075277825
3.8619312835380395
4.508150860863147
5.714427405203311
2.2371506319778245
3.732687368073029
4.157345947458091
6.065232318608365
2.520256351567857
3.3264922051829684
4.089646753643067
5.394394852623274
3.357264566007961
2.895679153632896
4.009638615498079
5.086671244373231
4.754329747463175
2.304849825792821
3.8496223392080475
4.508150860863147
5.695963988708308
2.1202156608428053
3.6649881742580046
4.1942727804480935
5.905216042318334
2.563337656722869
3.258793011367972
4.108110170138069
5.554411128913278
3.5972889804430093
2.8033620711578893
3.9788662546730578
4.871264718598195
4.754329747463175
2.304849825792821
3.5665166196180156
4.766638691793168
5.720581877368319
2.1817603824928202
3.6649881742580046
3.9911751990030497
5.97906970829834
2.5387197680628577
3.2280206505429514
4.052719920653064
5.591337961903281
3.6219068691030203
2.8279799598179
3.8680857557030492
5.000508634063205
4.8651102464331855
2.2740774649678275
3.7696142010630322
4.440451667048122
5.726736349533301
2.1017522443478045
3.5234353144630024
4.114264642303079
6.040614429948354
2.483329518577854
3.2034027618829395
3.9727117825080476
5.628264794893284
3.5665166196180156
2.655654739197877
3.9234760051880535
5.012817578393197
5.068207827878203
2.446402685587851
3.7696142010630322
4.458915083543125
5.825207904173318
2.0217441062027888
3.504971897968001
4.034256504158063
6.09600467943336
2.544874240227868
3.258793011367972
4.003484143333068
5.529793240253267
3.6034434526080172
2.6371913227028756
3.677297118588024
4.902037079423188
4.809719996948181
2.2063782711528033
3.800386561888025
4.483532972203136
5.665191627883287
1.954044912387765
3.5972889804430093
4.163500419623101
6.022151013453353
3.2280206505429514
4.551232166018132
2.329467714452832
5.234378576333243
3.5357442587929944
2.680272627857888
3.8803947000330408
5.05589888354821
4.902037079423188
2.2802319371328093
3.8496223392080475
4.40352483405812
5.7944355433483254
2.138679077337807
3.640370285598021
4.151191475293081
6.089850207268349
2.6002644897128726
3.191093817552948
3.9111670608580615
5.677500572213306
3.75730525673304
2.7418173495078744
3.9419394216830552
5.06205335571322
4.963581801073202
2.286386409297819
3.837313394878028
4.428142722718132
5.8559802649983395
2.3848579639378364
4.0711833371480655
4.225045141273086
6.120622568093371
2.704890516517872
3.308028788687967
4.058874392818074
5.622110322728302
3.701915007248036
2.7418173495078744
3.9665573103430654
4.994354161898196
4.797411052618189
2.1756059103278105
3.7265328959080186
4.145037003128072
5.726736349533301
2.0217441062027888
3.578825563948007
4.114264642303079
6.040614429948354
2.606418961877855
3.154166984562945
3.9727117825080476
5.628264794893284
3.671142646423015
2.68642710002287
4.748175275298167
4.428142722718132
4.465069555708134
2.2679229928028177
3.7757686732280415
4.477378500038126
5.714427405203311
1.8494188855827651
4.052719920653064
4.261971974263091
6.083695735103367
2.6371913227028756
3.221866178377941
4.052719920653064
5.6713461000482965
3.8803947000330408
3.424963759822985
3.9911751990030497
5.031280994888199
4.994354161898196
2.2740774649678275
3.75115078456803
4.452760611378115
5.862134737163322
2.1571424938328088
3.5357442587929944
4.145037003128072
5.972915236133329
2.55102871239285
3.0987767350779407
3.301874316522957
5.289768825818246
3.634215813433012
2.631036850537866
3.831158922713046
4.895882607258178
4.858955774268176
2.1571424938328088
3.788077617558033
4.415833778388112
5.806744487678317
1.861727829912757
3.461890592812989
4.305053279418103
6.742224256758496
2.772589710332896
3.191093817552948
3.9727117825080476
5.702118460873318
3.6465247577630033
2.68642710002287
3.9357849495180455
4.994354161898196
4.994354161898196
2.261768520637808
3.8988581165280416
4.446606139213133
5.683655044378289
1.4986139721777092
3.301874316522957
4.181963836118102
6.040614429948354
2.6002644897128726
3.1849393453879378
4.2065817247780855
6.280638844383374
5.369776963963263
2.4894839907428636
3.9850207268380675
5.031280994888199
4.969736273238212
2.304849825792821
2.760280766002876
3.6834515907530063
5.905216042318334
2.1325246051727973
3.591134508277999
4.169654891788083
6.09600467943336
2.704890516517872
4.520459805193139
4.1942727804480935
6.262175427888372
3.886549172198051
2.711044988682881
3.9788662546730578
5.443630629943269
5.178988326848239
0.8770122835126126
3.0864677907479487
4.489687444368147
5.8805981536583225
2.1448335495027893
3.6034434526080172
4.200427252613103
6.132931512423362
2.711044988682881
3.191093817552948
4.009638615498079
5.597492434068291
3.1480125123979352
2.304849825792821
3.9050125886930522
4.877419190763177
4.895882607258178
2.2186872154828228
3.788077617558033
4.508150860863147
5.825207904173318
2.1263701330077875
3.572671091782997
4.1758093639530935
6.0036875969583505
2.5325652958978484
3.264947483532954
4.021947559828071
5.585183489738299
3.6896060629180156
2.754126293837894
3.9727117825080476
4.8528013021031935
4.9266549680832
2.298695353627811
3.732687368073029
4.40352483405812
5.7451997660283025
2.1079067165127863
3.628061341268002
4.692785025813162
6.465273009333443
2.729508405177883
3.2957198443579747
4.040410976323072
5.579029017573289
3.695760535083026
2.797207598992907
3.9234760051880535
4.889728135093197
4.871264718598195
2.2186872154828228
3.7449963124030208
4.37890694539811
5.277459881488256
1.178581419597674
3.461890592812989
4.3112077515831135
5.806744487678317
2.6002644897128726
3.1849393453879378
3.9234760051880535
5.406703796953265
3.7142239515780275
2.8402889041478923
3.874240227868059
4.969736273238212
4.895882607258178
2.446402685587851
4.009638615498079
4.458915083543125
5.7451997660283025
2.1694514381628007
3.7265328959080186
4.101955697973087
5.954451819638329
2.649500267032867
3.3388011495129604
3.9973296711680604
5.511329823758264
3.671142646423015
2.8033620711578893
4.058874392818074
5.092825716538213
4.846646829938185
2.391012436102846
3.8496223392080475
4.483532972203136
5.7328908216983105
2.1817603824928202
3.628061341268002
4.181963836118102
5.935988403143328
2.754126293837894
3.258793011367972
4.040410976323072
5.585183489738299
3.5849800361130173
2.7171994608478913
4.569695582513134
6.649907174283487
4.625085831998166
2.360240075277825
3.166475928892937
2.901833625797906
5.492866407263264
2.200223798987821
3.609597924773
4.101955697973087
5.917524986648326
2.6002644897128726
2.944914930952919
4.058874392818074
5.523638768088285
3.61575239693801
2.711044988682881
3.874240227868059
4.858955774268176
4.698939497978172
2.304849825792821
3.6219068691030203
4.298898807253093
5.535947712418277
2.003280689707787
3.560362147453006
4.249663029933098
5.966760763968348
2.778744182497905
3.215711706212959
4.083492281478085
5.499020879428274
3.7080694794130173
2.8464433763129016
3.9911751990030497
4.9881996897332135
4.994354161898196
2.403321380432838
3.9419394216830552
4.618931359833156
5.683655044378289
2.2309961598128147
3.7449963124030208
4.218890669108104
6.071386790773348
2.766435238167886
3.3695735103379807
4.108110170138069
5.622110322728302
3.886549172198051
2.932605986622927
4.058874392818074
5.0497444113832
4.91434602375318
2.6925815721878803
3.8680857557030492
4.606622415503137
5.73904529386332
2.2740774649678275
3.8126955062180454
4.397370361893111
5.966760763968348
2.754126293837894
3.271101955697964
3.8496223392080475
5.905216042318334
3.9173215330230438
2.9818417639429216
4.834337885608192
5.265150937158236
4.982045217568204
2.544874240227868
4.009638615498079
4.508150860863147
5.868289209328331
2.446402685587851
3.8680857557030492
4.255817502098108
6.046768902113364
2.8895246814679143
3.4741995371429804
4.169654891788083
4.969736273238212
3.4741995371429804
2.96953281961293
4.083492281478085
5.086671244373231
5.018972050558207
2.5387197680628577
4.028102031993082
4.631240304163148
5.84367132066832
2.3417766587828237
3.9234760051880535
4.3112077515831135
6.059077846443356
2.895679153632896
3.4434271763179867
4.249663029933098
5.652882683553296
3.9973296711680604
2.9879962361079313
4.12657358663307
5.0743623000432105
5.080516772208221
2.624882378372884
3.9727117825080476
4.67432160931816
5.8559802649983395
2.544874240227868
4.501996388698137
4.7912565804531795
6.120622568093371
2.975687291777912
3.572671091782997
4.292744335088111
5.572874545408279
3.8803947000330408
3.080313318582939
4.1942727804480935
5.0743623000432105
5.092825716538213
3.3203377330179586
5.4620940464382715
2.3971669082678284
4.803565524783171
2.391012436102846
3.9234760051880535
4.391215889728128
6.009842069123361
2.907988097962916
3.658833702093023
4.323516695913104
5.622110322728302
3.9604028381780574
3.1049312072429505
4.181963836118102
5.117443605198224
5.154370438188227
2.778744182497905
4.040410976323072
4.526614277358149
5.831362376338328
2.501792935072855
3.837313394878028
4.292744335088111
5.954451819638329
2.895679153632896
3.400345871162974
4.151191475293081
5.517484295923275
3.8188499783830263
2.8895246814679143
3.9788662546730578
4.828183413443182
4.963581801073202
2.477175046412844
3.9296304773530633
4.428142722718132
5.7944355433483254
2.4402482134228407
3.837313394878028
4.3727524732331275
6.102159151598369
3.363419038172971
12.102769512474243
11.561175961954163
7.843874774293658
5.437476157778259
4.145037003128072
4.975890745403193
5.862134737163322
5.634419267058294
3.074158846417929
4.434297194883113
5.018972050558207
6.022151013453353
2.729508405177883
4.015793087663061
4.434297194883113
6.139085984588371
3.1295490959029335
3.560362147453006
4.298898807253093
5.615955850563292
3.886549172198051
2.6987360443528896
4.360443528903107
5.086671244373231
5.000508634063205
2.507947407237865
3.8619312835380395
4.415833778388112
5.615955850563292
2.194069326822812
3.4741995371429804
4.040410976323072
5.6036469062333
2.649500267032867
3.0987767350779407
3.8803947000330408
5.289768825818246
3.8188499783830263
2.96953281961293
3.9973296711680604
4.889728135093197
4.969736273238212
2.4156303247628297
3.788077617558033
4.298898807253093
5.874443681493341
3.2526385392029624
5.234378576333243
3.886549172198051
5.757508710358322
2.8033620711578893
3.357264566007961
4.101955697973087
5.419012741283257
2.975687291777912
1.467841611352716
3.738841840238039
4.735866330968175
4.7297118588031655
1.8124920525927626
3.117240151572942
3.424963759822985
4.612776887668146
0.7231504793875909
1.9232725515627715
2.446402685587851
4.095801225808078
0.9939472546476313
1.4062968897027015
2.1632969659978185
3.788077617558033
2.224841687647805
1.215508252587677
2.409475852597848
3.4434271763179867
3.609597924773
0.9939472546476313
2.674118155692878
3.4988174258029914
5.363622491798253
2.446402685587851
2.901833625797906
3.4434271763179867
5.252841992828244
2.187914854657802
2.6433457948678853
2.200223798987821
3.9604028381780574
3.461890592812989
2.360240075277825
3.5665166196180156
4.5820045268431535
4.7297118588031655
1.9355814958927628
3.5849800361130173
3.9173215330230438
5.449785102108279
1.7324839144477464
3.1726304010579467
3.837313394878028
5.769817654688314
2.2802319371328093
2.8033620711578893
3.572671091782997
5.21591515983824
3.468045064977998
2.2433051041428067
3.548053203123014
4.625085831998166
4.637394776328158
1.892500190737778
3.3388011495129604
4.028102031993082
5.548256656748296
1.8801912464077586
3.166475928892937
3.7265328959080186
5.628264794893284
2.4156303247628297
2.8402889041478923
3.6896060629180156
5.160524910353237
3.48035400930799
2.446402685587851
3.61575239693801
4.6435492484931675
4.7912565804531795
1.8740367742427766
3.5665166196180156
4.12657358663307
5.665191627883287
1.7940286360977609
3.271101955697964
3.948093893848065
5.8559802649983395
2.4587116299178424
2.8649067928079033
3.75730525673304
5.3390046031382425
3.658833702093023
2.378703491772827
3.75730525673304
4.618931359833156
4.501996388698137
2.1817603824928202
3.541898730958004
4.114264642303079
5.597492434068291
1.7140204979527454
3.2280206505429514
3.9665573103430654
5.800590015513308
2.4525571577528327
2.944914930952919
3.886549172198051
5.535947712418277
3.8927036443630603
2.520256351567857
3.886549172198051
4.81587446911319
5.086671244373231
2.1202156608428053
3.628061341268002
4.452760611378115
5.868289209328331
2.0709798835227837
3.511126370132983
4.083492281478085
6.034459957783345
2.7171994608478913
3.289565372192965
4.200427252613103
5.486711935098282
3.9419394216830552
2.5387197680628577
3.8680857557030492
4.877419190763177
5.0497444113832
2.089443300017785
3.763459728898022
4.40352483405812
5.954451819638329
2.015589634037779
